1698844078.00
64.000000
-0.00
-0.00
-0.00
-0.00
-0.00
-0.00
-0.00
-0.00
-0.00
-0.00
0.00
0.01
0.01
-0.00
-0.03
-0.05
-0.05
0.00
0.13
0.36
0.66
1.01
1.37
1.72
2.06
2.40
2.79
3.24
3.80
4.42
5.06
5.66
6.20
6.68
7.15
7.68
8.31
9.14
10.09
11.04
11.88
12.56
13.14
13.76
14.65
15.96
17.91
20.32
22.90
25.38
27.58
29.57
31.68
34.32
37.81
42.54
48.15
54.10
59.83
64.97
69.58
74.14
79.34
85.71
93.76
103.00
112.62
121.73
129.77
136.75
143.30
150.75
157.77
166.64
177.95
191.79
206.97
220.57
228.25
225.36
208.53
176.87
132.76
80.05
23.07
-34.94
-92.44
-149.16
-205.23
-260.37
-313.74
-363.87
-409.83
-450.91
-486.50
-515.74
-537.23
-549.22
-549.96
-538.37
-514.21
-478.67
-433.88
-382.45
-327.02
-269.84
-212.63
-156.66
-102.95
-52.37
-5.90
35.58
71.43
101.35
125.50
144.38
158.69
169.15
176.37
180.75
182.57
182.07
179.51
175.23
169.65
163.18
156.15
148.81
141.30
133.69
126.02
118.33
110.69
103.16
95.80
88.68
81.83
75.25
68.95
62.95
57.25
51.86
46.78
42.03
37.59
33.45
29.62
26.07
22.81
19.82
17.11
14.66
12.48
10.56
8.87
7.39
6.09
4.94
3.92
3.03
2.28
1.68
1.22
0.88
0.62
0.40
0.18
-0.05
-0.27
-0.46
-0.60
-0.68
-0.71
-0.73
-0.79
-0.93
-1.15
-1.40
-1.60
-1.69
-1.63
-1.49
-1.38
-1.43
-1.73
-2.30
-3.00
-3.64
-4.02
-4.09
-3.93
-3.78
-3.94
-4.60
-5.76
-7.18
-8.48
-9.32
-9.53
-9.28
-8.98
-9.11
-10.03
-11.72
-13.84
-15.80
-17.14
-17.64
-17.44
-16.97
-16.70
-17.06
-18.37
-20.86
-24.49
-28.66
-31.93
-32.27
-27.74
-17.51
-2.55
14.56
30.40
42.12
48.44
49.80
47.88
44.59
41.42
39.16
38.19
38.81
41.30
45.65
51.29
56.98
61.04
62.09
58.86
51.20
39.97
26.74
13.31
1.18
-8.83
-16.59
-22.43
-26.78
-29.70
-30.86
-29.67
-25.75
-19.27
-11.07
-2.59
4.69
9.70
12.09
12.16
10.57
7.96
4.94
2.10
0.17
0.05
2.45
7.41
14.09
20.96
26.35
29.05
28.90
26.67
23.76
21.64
21.04
22.18
24.86
28.72
33.44
38.70
44.25
50.06
56.40
63.41
71.36
80.34
90.03
99.73
108.68
116.23
122.00
125.59
125.81
121.26
110.84
94.29
72.38
46.38
16.99
-16.42
-51.52
-86.34
-117.87
-142.24
-156.02
-157.89
-149.49
-134.80
-118.33
-103.32
-91.61
-83.73
-80.15
-81.75
-89.44
-102.86
-119.75
-136.31
-148.81
-155.64
-157.39
-155.99
-153.06
-148.84
-142.11
-131.25
-115.68
-96.65
-77.44
-61.92
-53.20
-52.49
-58.70
-68.95
-79.57
-87.08
-89.07
-84.54
-73.69
-57.53
-37.51
-15.24
7.67
29.66
49.35
65.68
78.05
86.50
91.64
94.42
95.66
95.83
94.81
92.16
87.43
80.60
72.25
63.50
55.83
50.70
49.32
52.46
60.27
72.17
86.87
102.54
117.20
129.21
137.51
141.75
142.10
139.03
133.23
125.73
117.93
111.52
108.08
108.59
113.07
120.60
129.84
139.58
149.19
158.55
167.61
175.81
181.86
183.98
180.42
170.06
152.70
129.05
100.53
69.26
37.94
9.73
-12.25
-25.71
-30.12
-27.09
-20.01
-13.06
-9.85
-12.59
-21.87
-37.23
-57.90
-83.31
-113.00
-146.02
-180.46
-213.23
-240.63
-259.14
-266.56
-262.79
-249.98
-231.98
-213.22
-197.35
-186.21
-179.65
-176.14
-173.84
-171.58
-169.41
-168.59
-170.98
-178.26
-190.99
-207.94
-225.78
-239.54
-243.72
-233.99
-208.82
-170.16
-123.07
-74.10
-29.36
6.98
33.13
49.32
56.90
57.73
53.86
47.54
41.14
36.95
36.68
40.99
49.22
59.62
69.86
77.79
82.17
82.91
81.00
77.81
74.34
70.62
65.61
57.77
45.93
30.20
12.21
-5.14
-18.79
-26.52
-27.67
-23.22
-15.20
-5.77
3.38
11.28
17.54
21.87
23.82
22.83
18.41
10.56
-0.10
-12.31
-24.49
-35.11
-42.99
-47.48
-48.49
-46.42
-42.08
-36.61
-31.26
-27.07
-24.53
-23.50
-23.28
-23.01
-22.17
-20.85
-19.72
-19.61
-21.11
-24.08
-27.67
-30.41
-30.69
-27.14
-19.00
-6.34
9.95
28.24
46.44
62.32
73.85
79.66
79.22
73.12
62.92
50.78
38.99
29.43
23.11
20.13
19.75
20.72
21.64
21.21
18.54
13.21
5.43
-4.05
-14.19
-23.96
-32.74
-40.41
-47.24
-53.59
-59.60
-64.92
-68.64
-69.50
-66.20
-57.85
-44.33
-26.61
-6.69
12.81
29.38
41.40
48.66
52.23
53.89
55.20
56.90
58.86
60.60
61.83
62.85
64.38
66.98
70.55
74.14
76.37
76.04
72.75
66.96
59.66
51.71
43.48
34.79
25.23
14.67
3.41
-7.94
-18.71
-28.27
-35.95
-40.75
-41.28
-36.11
-24.42
-6.59
15.62
39.55
62.26
81.25
94.73
101.73
102.04
96.29
86.01
73.50
61.28
51.44
44.97
41.71
40.68
40.67
40.81
40.71
40.44
40.34
40.83
42.35
45.10
48.86
52.74
55.32
55.11
51.29
44.30
36.04
29.45
27.67
33.12
46.79
67.98
94.46
122.87
149.32
170.09
182.43
185.27
179.45
167.44
152.50
137.53
124.26
112.94
102.81
92.88
82.70
72.57
63.42
56.21
51.41
48.63
46.71
44.02
39.22
31.82
22.55
13.11
5.45
0.84
-0.82
-0.97
-1.91
-5.80
-13.99
-26.52
-42.09
-58.30
-72.10
-80.43
-80.96
-72.86
-57.19
-36.72
-15.13
3.98
18.05
26.01
28.14
25.61
19.96
12.59
4.55
-3.55
-11.52
-19.31
-26.75
-33.39
-38.57
-41.77
-42.98
-43.06
-43.48
-45.97
-51.80
-61.34
-73.92
-88.16
-102.40
-115.33
-126.15
-134.61
-140.91
-145.55
-149.34
-153.31
-158.33
-164.64
-171.43
-176.76
-177.97
-172.62
-159.35
-138.40
-111.39
-80.71
-48.72
-17.29
12.07
37.99
59.01
73.78
81.53
82.51
78.14
70.56
61.89
53.63
46.43
40.35
35.26
31.16
28.16
26.16
24.70
22.87
19.58
13.78
4.70
-7.98
-23.97
-42.09
-60.28
-75.85
-86.09
-89.16
-84.86
-74.76
-61.78
-48.99
-38.51
-30.81
-24.72
-18.27
-9.67
1.77
15.37
29.39
41.72
50.71
55.62
56.66
54.75
51.08
46.72
42.53
39.16
37.03
36.46
37.60
40.46
44.78
50.03
55.37
59.85
62.53
62.83
60.53
55.93
49.61
42.17
34.15
25.83
17.38
8.96
0.83
-6.74
-13.57
-19.63
-24.93
-29.14
-31.41
-30.41
-24.80
-13.94
1.45
19.22
36.22
49.24
55.91
55.32
47.98
35.46
19.80
2.95
-13.54
-28.67
-41.90
-52.98
-61.78
-68.15
-72.00
-73.43
-72.92
-71.19
-68.96
-66.66
-64.20
-61.21
-57.46
-53.23
-49.37
-47.01
-47.06
-49.80
-54.96
-61.90
-69.99
-78.43
-85.99
-90.69
-89.87
-81.02
-62.80
-35.90
-3.14
31.27
62.92
88.27
105.21
112.98
111.99
103.48
89.37
72.06
54.05
37.39
23.12
11.09
0.17
-11.15
-24.03
-38.79
-54.79
-70.79
-85.38
-97.63
-107.31
-114.91
-121.46
-128.01
-135.32
-143.59
-152.49
-161.32
-169.27
-175.78
-180.77
-184.77
-188.52
-192.49
-196.28
-198.43
-196.92
-190.08
-177.51
-160.39
-140.97
-121.59
-104.03
-89.26
-77.92
-70.85
-69.11
-73.26
-82.45
-94.05
-104.10
-108.70
-105.49
-94.41
-77.32
-56.95
-35.66
-14.86
4.80
22.79
38.25
49.99
57.07
59.51
58.55
56.28
54.63
54.37
54.61
53.15
47.63
36.89
21.94
5.96
-6.70
-12.17
-8.41
4.13
22.88
44.26
64.86
82.40
95.84
105.16
110.80
113.39
113.56
112.10
110.06
108.62
108.77
110.93
114.76
119.28
123.23
125.60
125.97
124.58
121.96
118.44
113.85
107.41
98.12
85.39
69.47
51.59
33.76
17.99
5.85
-2.07
-5.94
-6.37
-3.91
1.22
9.07
19.66
32.64
47.06
61.49
74.29
83.99
89.63
90.98
88.40
82.68
74.68
65.20
54.91
44.58
35.14
27.60
22.64
20.26
19.53
18.95
17.06
13.13
7.42
0.99
-4.99
-9.78
-13.34
-16.18
-18.95
-22.03
-25.34
-28.38
-30.40
-30.73
-28.86
-24.56
-17.81
-8.68
2.69
16.09
31.00
46.55
61.44
74.31
84.01
89.98
92.26
91.39
88.13
83.30
77.70
72.16
67.48
64.28
62.75
62.50
62.66
62.16
60.07
56.03
50.18
43.12
35.54
28.01
20.79
13.83
6.84
-0.59
-8.83
-17.97
-27.63
-36.87
-44.32
-48.50
-48.42
-43.94
-35.95
-26.00
-15.80
-6.66
0.77
6.34
10.09
11.93
11.70
9.35
5.19
0.07
-4.89
-8.59
-10.35
-10.05
-8.10
-5.19
-2.10
0.61
2.59
3.68
3.89
3.23
1.69
-0.84
-4.50
-9.45
-15.71
-23.19
-31.60
-40.52
-49.38
-57.38
-63.56
-66.83
-66.20
-61.09
-51.64
-38.87
-24.56
-10.87
0.21
7.29
9.91
8.49
4.02
-2.22
-8.94
-15.01
-19.43
-21.43
-20.52
-16.65
-10.30
-2.40
5.84
13.23
18.85
22.19
23.30
22.60
20.79
18.49
15.85
12.44
7.37
-0.19
-10.28
-21.73
-32.28
-39.22
-40.43
-35.13
-24.16
-9.52
6.41
21.54
34.44
44.30
50.69
53.43
52.61
48.63
42.34
34.91
27.53
21.17
16.34
13.06
11.03
9.83
9.13
8.77
8.75
9.07
9.62
10.11
10.16
9.40
7.71
5.20
2.13
-1.26
-4.82
-8.45
-11.98
-14.98
-16.78
-16.59
-13.84
-8.38
-0.64
8.48
17.83
26.28
32.92
37.15
38.77
37.86
34.79
30.18
24.78
19.49
15.16
12.34
11.10
10.90
10.72
9.50
6.64
2.31
-2.62
-7.00
-10.06
-11.79
-12.94
-14.61
-17.64
-22.29
-28.21
-34.73
-41.17
-46.91
-51.32
-53.63
-52.98
-48.70
-40.70
-29.71
-17.19
-4.98
5.21
12.25
15.81
16.30
14.54
11.47
7.87
4.25
0.94
-1.79
-3.62
-4.17
-3.23
-0.96
2.02
4.74
6.25
5.95
3.90
0.77
-2.51
-5.10
-6.60
-7.16
-7.36
-7.94
-9.44
-11.96
-15.12
-18.12
-20.03
-19.99
-17.43
-12.15
-4.34
5.41
16.16
26.68
35.65
41.98
45.11
45.13
42.75
38.96
34.77
30.92
27.95
26.19
26.02
27.60
30.87
35.36
40.26
44.73
48.17
50.44
51.83
52.81
53.81
55.06
56.46
57.67
58.17
57.47
55.35
52.08
48.59
46.25
46.41
49.85
56.37
64.80
73.47
80.62
84.90
85.31
81.21
72.35
59.05
42.48
24.66
8.01
-5.42
-14.56
-19.50
-21.12
-20.44
-18.10
-14.33
-9.26
-3.44
2.02
5.62
6.00
2.39
-5.22
-16.09
-29.19
-43.59
-58.68
-74.12
-89.46
-103.71
-115.12
-121.54
-121.24
-113.70
-100.20
-83.46
-66.74
-52.76
-43.04
-37.85
-36.66
-38.69
-43.10
-48.77
-54.05
-56.79
-54.88
-47.08
-33.63
-16.41
1.60
17.40
28.89
35.43
37.72
37.19
35.19
32.45
29.08
24.87
19.82
14.32
9.04
4.50
0.66
-3.11
-7.63
-13.37
-19.83
-25.56
-28.59
-27.19
-20.61
-9.47
4.47
18.76
31.09
39.80
44.24
44.66
41.89
36.98
30.86
24.23
17.57
11.33
5.99
2.04
-0.17
-0.73
-0.22
0.29
-0.36
-2.97
-7.59
-13.49
-19.48
-24.44
-27.87
-30.07
-31.97
-34.63
-38.79
-44.55
-51.40
-58.47
-64.82
-69.62
-72.16
-71.81
-68.18
-61.20
-51.42
-40.02
-28.66
-19.08
-12.73
-10.53
-12.93
-19.92
-31.22
-46.12
-63.34
-80.94
-96.48
-107.64
-112.86
-111.91
-105.98
-97.26
-88.07
-80.01
-73.45
-67.57
-61.02
-52.69
-42.33
-30.76
-19.48
-10.10
-3.86
-1.45
-2.95
-7.93
-15.35
-23.44
-29.73
-31.54
-26.70
-14.35
4.64
27.89
52.33
75.05
93.90
107.60
115.49
117.30
113.15
103.74
90.57
75.69
61.30
49.08
39.84
33.56
29.68
27.48
26.32
25.62
24.80
23.31
20.82
17.34
13.21
8.84
4.44
-0.15
-5.29
-11.30
-18.14
-25.43
-32.56
-38.97
-44.14
-47.51
-48.33
-45.80
-39.52
-29.90
-18.41
-7.12
1.99
7.84
10.58
11.23
10.96
10.50
9.93
9.09
8.11
7.62
8.57
11.56
16.50
22.42
28.00
32.10
34.17
34.24
32.57
29.43
24.87
19.01
12.18
5.07
-1.48
-6.76
-10.50
-12.92
-14.44
-15.31
-15.26
-13.53
-9.16
-1.52
9.21
21.98
35.06
46.59
55.14
60.05
61.37
59.69
55.85
50.73
45.14
39.81
35.23
31.49
28.12
24.18
18.63
10.84
0.97
-9.97
-20.50
-29.30
-35.70
-39.80
-42.20
-43.44
-43.76
-43.02
-41.19
-38.68
-36.44
-35.58
-36.77
-39.68
-43.11
-45.42
-45.22
-41.83
-35.30
-26.13
-14.96
-2.49
10.39
22.42
32.12
38.15
39.83
37.36
31.77
24.51
16.97
10.28
5.20
2.27
1.85
4.03
8.58
14.93
22.33
30.02
37.32
43.50
47.62
48.49
44.92
36.30
23.12
7.06
-9.41
-23.80
-34.28
-40.03
-40.96
-37.28
-29.14
-16.65
-0.14
19.49
40.65
61.37
79.61
93.75
102.69
105.82
102.97
94.35
80.73
63.45
44.30
25.30
8.21
-5.69
-15.80
-22.09
-25.04
-25.38
-24.06
-22.04
-20.20
-19.15
-19.20
-20.43
-22.89
-26.84
-32.71
-40.93
-51.40
-63.22
-74.56
-83.16
-86.95
-84.78
-76.70
-63.87
-48.08
-31.34
-15.42
-1.80
8.35
14.24
15.50
12.37
5.83
-2.53
-10.89
-17.53
-21.25
-21.58
-18.69
-13.26
-6.32
1.05
7.80
13.21
16.88
18.78
19.13
18.20
16.02
12.29
6.40
-2.19
-13.55
-26.80
-40.05
-50.67
-55.96
-54.05
-44.45
-28.32
-8.08
13.32
33.09
49.17
60.41
66.33
66.83
62.02
52.13
37.67
19.66
-0.38
-20.62
-39.38
-55.61
-69.03
-80.04
-89.24
-97.01
-103.25
-107.52
-109.42
-108.97
-106.72
-103.67
-100.93
-99.47
-99.76
-101.64
-104.29
-106.22
-105.57
-100.57
-90.12
-74.26
-54.35
-32.64
-11.65
6.62
21.08
31.45
37.90
40.66
39.91
35.94
29.55
22.16
15.52
11.14
9.77
11.07
13.89
16.85
18.90
19.72
19.68
19.51
19.82
20.74
21.84
22.29
21.19
18.03
12.86
6.36
-0.31
-5.84
-9.01
-8.96
-5.34
1.53
10.77
20.95
30.52
38.03
42.52
43.64
41.54
36.77
30.02
22.12
13.96
6.53
0.74
-2.81
-4.10
-3.68
-2.51
-1.59
-1.57
-2.64
-4.53
-6.81
-9.18
-11.63
-14.37
-17.72
-21.85
-26.58
-31.30
-35.02
-36.52
-34.63
-28.58
-18.28
-4.46
11.46
27.65
42.26
53.74
61.06
63.83
62.27
57.14
49.54
40.70
31.80
23.74
17.10
12.15
8.80
6.68
5.16
3.52
1.09
-2.43
-6.98
-12.14
-17.51
-22.85
-28.33
-34.28
-40.94
-48.04
-54.63
-59.22
-60.15
-56.23
-47.17
-33.81
-17.83
-1.33
13.81
26.30
35.57
41.56
44.43
44.37
41.71
36.99
31.18
25.49
21.06
18.45
17.41
17.01
16.06
13.72
9.84
5.01
0.11
-4.21
-7.91
-11.64
-16.38
-22.97
-31.74
-42.28
-53.50
-63.84
-71.60
-75.25
-73.71
-66.61
-54.46
-38.59
-20.97
-3.70
11.38
23.12
31.07
35.38
36.53
35.12
31.75
27.09
21.87
16.83
12.65
9.71
8.06
7.40
7.17
6.73
5.51
3.05
-0.85
-6.12
-12.47
-19.40
-26.30
-32.68
-38.26
-43.05
-47.34
-51.56
-56.07
-60.87
-65.48
-68.87
-69.66
-66.48
-58.37
-45.11
-27.38
-6.56
15.52
37.04
56.49
72.93
85.99
95.74
102.52
106.78
108.95
109.49
108.85
107.56
106.10
104.86
104.05
103.74
103.90
104.40
105.03
105.44
105.20
103.88
101.24
97.33
92.60
87.73
83.47
80.32
78.34
77.19
76.17
74.55
71.80
67.80
62.80
57.36
52.10
47.51
43.82
40.96
38.60
36.23
33.32
29.51
24.88
20.02
15.86
13.27
12.40
12.28
10.85
5.60
-5.34
-22.05
-42.23
-61.31
-73.57
-73.91
-59.54
-30.98
7.97
51.35
92.70
126.88
151.25
165.89
173.13
176.22
178.14
180.75
184.46
188.43
191.06
190.43
184.79
173.05
155.09
131.92
105.54
78.50
53.31
31.78
14.63
1.43
-8.90
-17.57
-25.63
-33.73
-42.10
-50.62
-58.96
-66.85
-74.25
-81.22
-87.93
-94.69
-101.91
-109.91
-118.81
-128.56
-138.90
-149.64
-160.11
-169.41
-177.00
-183.24
-189.19
-196.16
-204.90
-214.97
-224.98
-232.26
-234.04
-229.14
-218.71
-205.59
-192.81
-182.22
-174.02
-167.45
-160.50
-150.85
-136.91
-118.15
-94.67
-66.92
-35.83
-0.27
34.99
62.54
77.71
81.13
76.83
69.60
63.39
60.67
62.20
67.36
73.26
76.26
72.54
59.38
36.71
7.62
-22.66
-48.76
-67.55
-76.50
-74.85
-63.65
-44.89
-20.52
8.10
39.76
73.04
105.93
136.57
163.33
184.65
198.81
204.02
198.65
181.78
153.99
117.64
77.17
38.46
7.54
-10.83
-14.52
-4.91
13.21
32.95
47.40
52.10
46.28
32.77
16.45
2.09
-7.32
-11.17
-10.75
-7.98
-4.38
-0.47
3.87
8.81
14.07
18.97
22.70
24.56
24.08
20.91
14.68
4.99
-8.37
-25.11
-44.19
-64.05
-83.52
-102.62
-122.55
-144.69
-169.15
-193.97
-215.19
-228.09
-228.88
-216.76
-194.78
-168.85
-145.47
-129.41
-122.10
-121.28
-121.77
-117.19
-102.83
-77.78
-45.30
-11.72
15.67
31.07
32.45
22.82
9.38
0.11
0.48
11.98
32.65
58.85
87.09
113.41
131.98
139.86
138.65
130.98
117.18
96.04
67.45
33.70
-0.58
-29.77
-48.49
-55.84
-54.57
-49.91
-47.94
-53.36
-67.66
-87.84
-107.11
-116.63
-109.65
-86.72
-53.64
-18.08
14.00
37.71
51.35
56.48
56.88
56.59
58.62
64.60
74.58
86.97
98.87
107.40
110.44
107.15
97.43
81.55
60.35
35.31
8.98
-15.07
-32.47
-39.40
-34.20
-18.20
4.67
29.40
51.62
68.93
81.09
89.39
95.21
98.90
99.58
95.97
87.61
75.39
61.18
46.72
32.61
18.13
2.21
-15.27
-32.60
-46.64
-54.26
-53.93
-46.59
-35.17
-23.33
-13.87
-7.92
-5.11
-4.32
-4.50
-5.10
-6.05
-7.44
-9.29
-11.51
-13.96
-16.59
-19.42
-22.52
-25.98
-29.88
-34.27
-39.07
-43.97
-48.44
-51.91
-53.99
-54.75
-54.77
-54.94
-56.03
-58.33
-61.36
-63.99
-64.79
-62.52
-56.55
-47.07
-35.00
-21.70
-8.51
3.49
13.64
21.67
27.47
30.98
32.21
31.30
28.60
24.76
20.53
16.65
13.60
11.51
10.18
9.15
7.92
6.06
3.35
-0.21
-4.47
-9.18
-14.04
-18.81
-23.26
-27.24
-30.62
-33.35
-35.37
-36.59
-36.83
-35.83
-33.24
-28.76
-22.24
-13.77
-3.82
6.87
17.35
26.62
33.79
38.27
39.78
38.38
34.47
28.71
21.92
14.98
8.68
3.66
0.33
-1.20
-1.05
0.44
2.78
5.44
7.92
9.84
11.00
11.33
10.88
9.66
7.55
4.33
-0.22
-6.10
-13.00
-20.21
-26.77
-31.70
-34.19
-33.79
-30.44
-24.53
-16.75
-7.99
0.85
9.03
16.15
21.97
26.22
28.48
28.39
25.85
21.21
15.29
9.22
4.27
1.38
0.95
2.83
6.56
11.65
17.71
24.39
31.36
38.55
45.69
52.16
57.09
59.73
59.66
56.89
51.73
44.72
37.54
31.67
27.90
26.16
26.00
27.06
29.03
31.51
33.98
37.89
44.09
51.94
59.22
63.62
64.03
60.95
56.02
51.44
52.50
62.70
81.88
106.23
130.80
152.16
169.17
182.36
193.28
207.82
230.16
260.61
295.27
328.89
357.54
379.35
394.05
375.87
312.71
212.51
100.86
3.28
-68.59
-116.40
-147.95
-171.49
-192.13
-207.59
-214.83
-213.36
-206.39
-198.97
-195.23
-197.27
-206.14
-220.09
-232.20
-236.14
-229.52
-215.04
-198.03
-182.96
-169.43
-157.49
-146.77
-136.46
-128.19
-125.12
-128.70
-135.62
-138.12
-128.48
-104.50
-70.52
-34.59
-4.89
14.07
22.37
22.71
18.53
12.32
5.15
-1.91
-6.73
-6.09
2.19
18.10
39.47
62.34
81.59
92.24
90.83
76.60
52.04
22.24
-8.75
-37.81
-63.24
-84.07
-98.81
-105.39
-101.71
-88.14
-69.10
-52.52
-46.39
-55.10
-77.49
-107.79
-139.48
-167.57
-189.95
-206.71
-218.33
-224.42
-224.27
-218.69
-206.80
-192.33
-179.25
-168.90
-159.00
-144.54
-120.09
-82.16
-31.49
27.05
85.76
137.83
179.18
208.84
227.99
238.81
244.46
246.96
246.70
242.42
233.24
219.38
202.13
183.35
165.16
151.52
145.32
146.78
152.90
159.49
163.04
161.93
156.79
150.03
147.25
152.73
167.07
187.02
208.03
226.51
240.61
249.76
237.52
195.68
128.77
52.16
-18.81
-76.31
-119.45
-150.58
-172.52
-187.16
-192.73
-187.67
-172.99
-152.84
-132.78
-117.29
-109.05
-108.92
-116.22
-126.76
-134.93
-136.02
-125.63
-101.60
-65.21
-22.72
15.07
35.99
31.33
1.08
-45.51
-94.17
-131.57
-149.84
-148.37
-132.17
-108.16
-81.35
-54.37
-29.09
-8.00
5.71
9.76
4.24
-7.70
-20.83
-29.83
-31.14
-25.08
-14.48
-3.78
3.22
4.63
0.64
-6.91
-15.55
-22.77
-26.80
-26.86
-23.29
-17.27
-10.57
-4.95
-1.76
-1.41
-3.34
-6.40
-9.43
-11.88
-13.89
-16.19
-19.72
-25.08
-32.38
-41.05
-50.26
-59.25
-67.49
-74.69
-80.66
-85.22
-88.13
-89.87
-90.89
-91.78
-93.07
-94.92
-96.90
-98.04
-97.17
-93.34
-86.29
-76.48
-65.10
-53.48
-42.45
-31.81
-20.23
-5.82
13.17
37.81
68.60
105.58
148.33
195.38
243.39
286.95
319.53
335.58
332.43
311.15
275.52
230.34
180.22
129.51
83.05
46.42
25.05
22.11
36.64
63.20
93.62
120.08
137.55
144.38
140.95
127.85
104.78
70.93
26.72
-24.42
-75.66
-118.17
-143.81
-147.69
-129.70
-94.48
-49.64
-3.30
37.93
70.13
91.90
103.81
107.51
105.12
98.61
89.54
78.83
66.78
53.28
38.25
21.97
5.11
-11.50
-27.18
-41.51
-54.29
-65.49
-75.09
-82.92
-88.84
-92.89
-95.43
-97.08
-98.50
-100.25
-102.65
-105.83
-109.73
-114.13
-118.49
-122.01
-123.78
-123.06
-119.58
-113.82
-106.90
-100.19
-94.63
-90.32
-86.54
-82.39
-77.36
-71.84
-67.23
-65.41
-68.04
-75.73
-87.49
-101.23
-114.41
-124.65
-130.14
-129.85
-123.58
-111.95
-96.28
-77.75
-57.65
-36.66
-14.06
12.24
44.24
81.43
119.20
149.31
164.10
158.35
132.03
91.26
46.70
9.53
-12.69
-18.21
-10.29
7.55
31.11
56.82
82.62
108.33
134.90
163.13
193.05
223.90
256.77
290.28
319.91
339.61
344.62
333.17
306.81
269.73
210.61
131.42
45.53
-30.11
-85.50
-119.86
-137.64
-144.58
-145.67
-144.24
-139.53
-130.89
-118.86
-104.14
-86.18
-63.73
-36.61
-6.80
21.91
46.64
64.46
73.00
72.30
65.37
56.68
49.40
42.66
36.33
31.65
29.79
30.18
31.00
29.55
22.64
7.30
-16.47
-43.98
-66.87
-76.70
-70.42
-50.33
-22.39
6.21
29.01
42.79
48.18
47.75
44.21
37.51
27.37
14.73
9.22
18.71
44.15
79.00
107.33
125.63
133.33
130.92
123.83
114.73
103.81
90.60
75.24
58.61
39.52
16.36
-10.21
-37.73
-64.58
-90.93
-117.33
-143.64
-169.00
-196.81
-229.51
-265.81
-302.16
-336.75
-370.37
-404.24
-438.01
-469.24
-500.50
-531.92
-559.47
-577.50
-583.12
-576.63
-559.20
-531.25
-451.80
-312.90
-141.98
19.77
146.86
234.29
286.72
309.99
309.52
291.91
259.79
220.89
186.10
165.76
163.33
174.18
189.71
202.56
209.58
206.29
193.11
175.40
159.82
152.52
156.31
168.51
182.61
190.45
182.29
155.02
113.13
65.52
21.10
-14.85
-40.16
-54.91
-57.95
-50.05
-33.42
-12.10
8.38
22.82
27.33
21.62
7.19
-8.43
-17.59
-16.87
-8.72
0.83
7.24
10.53
12.11
14.87
21.59
33.15
48.62
66.72
80.56
87.59
87.65
82.58
75.19
67.65
60.99
55.76
52.72
52.95
60.74
75.78
96.41
120.53
145.00
166.35
181.98
191.18
195.33
198.14
203.14
207.79
211.66
214.09
214.79
214.56
215.25
218.72
225.94
235.31
243.44
247.24
244.40
234.60
219.54
201.78
183.66
166.63
150.72
135.40
120.71
106.73
93.83
82.44
72.67
64.09
55.86
46.96
36.66
25.16
12.99
0.91
-10.42
-21.04
-31.45
-42.41
-54.72
-68.99
-85.22
-102.93
-121.15
-138.68
-154.68
-168.69
-180.62
-190.83
-199.99
-208.72
-217.22
-225.13
-231.76
-237.06
-241.23
-244.85
-249.11
-256.00
-268.11
-287.69
-315.55
-350.50
-390.96
-433.01
-470.94
-498.89
-512.83
-511.43
-495.34
-465.86
-424.83
-377.42
-327.03
-274.09
-217.67
-158.64
-101.41
-52.99
-20.81
-11.52
-33.85
-88.88
-167.53
-253.35
-328.88
-381.14
-403.57
-395.71
-363.26
-321.41
-281.22
-245.61
-211.77
-178.05
-148.32
-129.89
-128.75
-97.77
-12.20
120.43
268.06
402.11
509.34
586.42
629.46
648.56
650.90
635.13
602.19
556.81
505.38
455.78
410.75
370.36
332.01
292.78
246.73
192.26
131.87
70.71
14.21
-33.42
-68.10
-90.65
-103.57
-112.15
-120.09
-129.56
-140.97
-153.35
-166.08
-179.46
-200.82
-236.17
-286.58
-346.09
-405.63
-456.85
-493.89
-515.03
-482.89
-386.12
-246.72
-104.28
12.89
95.98
148.02
177.31
191.98
198.58
195.30
180.99
158.59
134.05
112.83
97.57
90.09
90.21
96.37
101.79
102.26
98.35
93.72
92.01
94.30
101.52
112.51
125.03
133.61
135.00
129.45
119.50
108.79
88.38
57.68
19.95
-19.61
-57.82
-92.24
-118.41
-137.11
-148.91
-154.64
-153.26
-144.29
-127.11
-104.45
-77.47
-46.34
-11.48
26.50
65.26
102.26
133.45
154.85
164.09
161.94
151.55
136.96
122.46
110.89
104.22
102.55
104.92
109.92
116.43
123.21
128.69
131.63
131.08
127.01
119.74
109.76
97.46
83.21
67.15
49.43
30.83
12.67
-3.25
-15.31
-22.66
-25.37
-24.25
-20.55
-15.66
-10.79
-6.98
-5.16
-5.96
-9.42
-14.75
-20.30
-24.18
-25.03
-22.79
-18.85
-15.52
-15.03
-18.52
-25.57
-34.46
-43.10
-49.82
-54.00
-55.97
-56.55
-56.46
-56.10
-55.53
-54.84
-54.39
-54.78
-56.62
-60.17
-65.09
-70.47
-75.12
-77.97
-78.35
-76.08
-71.28
-64.12
-54.80
-43.54
-30.75
-17.12
-3.54
9.09
20.14
29.37
36.86
42.88
47.67
51.34
53.89
55.27
55.47
54.53
52.58
49.76
46.28
42.40
38.30
34.09
29.68
24.83
19.27
12.79
5.37
-2.87
-11.65
-20.67
-29.45
-37.35
-43.60
-47.40
-48.29
-46.25
-41.77
-35.48
-27.87
-18.68
-7.44
5.91
20.63
35.15
47.49
55.96
59.78
59.31
56.22
52.30
48.74
45.62
42.29
37.91
32.00
24.57
16.01
7.45
-0.44
-7.83
-15.47
-24.01
-33.53
-43.75
-54.30
-65.08
-74.18
-80.47
-84.34
-87.47
-91.13
-94.93
-96.67
-93.25
-81.97
-57.67
-18.98
29.94
80.79
125.64
160.35
185.00
202.35
216.09
236.36
270.38
319.18
377.56
438.01
493.93
540.24
573.20
591.15
603.84
620.72
645.43
674.60
702.15
723.67
737.34
742.98
686.60
542.43
326.03
87.17
-126.08
-290.82
-406.00
-480.75
-526.37
-552.89
-559.07
-543.80
-511.00
-469.76
-429.87
-397.59
-375.24
-362.42
-357.23
-350.33
-334.46
-309.18
-279.17
-251.34
-230.76
-219.66
-218.15
-225.17
-235.04
-241.44
-243.06
-240.36
-232.98
-218.42
-193.94
-159.40
-118.56
-76.02
-37.09
-6.35
14.41
26.31
32.27
35.10
36.24
35.94
34.96
34.35
34.68
35.91
37.10
36.90
34.16
28.32
19.61
9.03
-1.89
-11.63
-18.73
-22.38
-22.73
-21.08
-18.94
-17.71
-17.97
-19.20
-20.12
-19.40
-16.42
-11.64
-6.32
-1.78
1.10
2.31
2.42
2.13
1.85
1.58
1.04
0.01
-1.51
-3.34
-5.19
-6.88
-8.34
-9.57
-10.49
-10.90
-10.57
-9.28
-7.02
-4.05
-0.82
2.11
4.20
5.05
4.48
2.51
-0.60
-4.43
-8.44
-12.10
-14.94
-16.67
-17.19
-16.49
-14.92
-12.66
-9.81
-6.49
-2.85
0.78
3.96
6.26
7.39
7.31
6.28
4.71
2.99
1.40
0.02
-1.28
-2.81
-4.92
-7.95
-12.07
-17.19
-22.92
-28.55
-33.16
-35.75
-35.61
-32.45
-26.57
-18.75
-10.07
-1.67
5.59
11.22
15.16
17.58
18.83
19.25
19.15
18.76
18.25
17.79
17.48
17.40
17.50
17.66
17.77
17.77
17.70
17.66
17.78
18.01
18.13
17.81
16.79
15.00
12.61
9.92
7.18
4.63
2.39
0.55
-0.56
-0.45
1.52
5.70
11.89
19.18
26.50
32.81
37.45
40.43
42.28
43.68
44.95
45.71
44.91
41.82
36.25
28.88
21.25
15.11
11.72
11.16
12.24
12.93
12.03
9.34
5.73
2.81
2.41
6.46
17.22
37.61
65.67
98.68
131.63
157.37
168.03
157.29
123.26
70.43
8.67
-50.30
-96.70
-126.21
-140.13
-142.86
-138.88
-130.86
-119.75
-106.26
-91.93
-78.43
-66.88
-56.47
-44.59
-28.51
-7.63
15.18
34.26
43.90
41.66
29.64
13.52
-0.20
-7.31
-7.24
-2.33
4.11
9.77
14.03
16.89
17.96
16.10
10.39
1.39
-8.32
-15.21
-16.67
-12.45
-4.80
3.04
8.46
10.73
10.87
10.34
9.95
9.26
7.26
3.50
-1.16
-4.80
-5.35
-1.97
4.33
11.10
15.49
15.43
10.52
2.12
-7.40
-15.55
-20.65
-22.69
-22.73
-22.57
-23.70
-26.76
-31.38
-36.95
-42.17
-46.42
-49.89
-52.81
-56.03
-60.44
-66.55
-74.48
-84.16
-95.35
-107.66
-119.94
-128.80
-130.34
-121.06
-99.53
-67.57
-30.06
6.66
37.17
59.11
74.89
88.29
102.26
117.08
130.04
137.28
136.32
128.17
110.63
88.09
66.02
48.76
38.07
32.94
31.19
30.89
31.36
32.86
36.67
41.81
45.41
44.15
36.07
22.40
7.52
-2.23
-3.49
6.64
24.94
43.00
52.25
48.34
32.82
10.72
-12.25
-32.17
-47.03
-57.26
-64.09
-68.29
-71.02
-71.58
-70.09
-67.56
-65.21
-63.07
-60.21
-54.96
-45.75
-32.13
-14.25
6.22
27.16
47.26
65.07
79.69
90.62
97.51
95.66
84.19
65.91
45.18
24.94
5.98
-11.86
-28.46
-42.41
-51.44
-52.73
-45.86
-33.73
-21.42
-13.66
-12.30
-15.68
-20.01
-22.27
-21.65
-20.74
-23.47
-32.10
-45.21
-58.22
-67.02
-69.38
-66.73
-62.18
-58.62
-56.85
-55.22
-50.89
-41.86
-28.44
-13.09
0.43
9.00
10.95
6.42
-2.58
-12.09
-16.81
-11.65
6.12
33.52
62.34
82.67
87.74
77.02
56.55
35.31
20.42
14.21
14.42
17.36
21.01
26.56
35.70
49.19
65.36
80.05
88.22
86.18
73.48
53.01
29.75
8.24
-8.09
-17.53
-20.49
-19.05
-16.12
-14.14
-14.20
-15.87
-18.33
-19.65
-17.15
-9.08
4.34
20.86
37.11
49.64
55.48
51.67
37.07
13.26
-16.22
-46.49
-72.16
-88.24
-91.74
-77.90
-50.54
-21.67
-2.85
2.27
-2.17
-9.62
-15.51
-18.19
-18.22
-17.88
-18.49
-18.02
-14.68
-7.67
2.24
13.32
23.29
30.33
33.01
31.53
27.78
23.88
21.19
19.86
19.19
17.80
14.76
9.65
3.35
-2.30
-5.56
-5.57
-2.74
1.66
5.32
6.41
4.22
-0.67
-6.96
-13.65
-20.54
-28.26
-37.47
-49.26
-63.54
-78.65
-91.88
-100.76
-103.88
-101.15
-93.44
-75.80
-47.93
-14.99
15.69
39.54
55.71
65.70
72.57
78.29
83.61
87.55
88.72
86.34
80.60
70.23
54.74
34.29
10.09
-14.43
-33.30
-41.85
-40.07
-31.95
-22.75
-15.85
-12.06
-10.20
-8.62
-7.19
-7.65
-12.36
-22.14
-35.87
-50.35
-61.82
-67.60
-67.08
-61.64
-53.98
-47.45
-41.97
-36.82
-31.18
-25.08
-19.44
-15.49
-13.55
-13.07
-12.43
-9.21
-1.53
11.20
27.86
45.92
60.63
68.71
68.94
61.93
49.60
34.02
17.15
0.99
-11.90
-20.33
-23.09
-20.38
-14.16
-7.52
-3.71
-4.93
-11.56
-22.31
-34.70
-45.87
-53.90
-57.90
-57.75
-53.68
-46.43
-37.13
-27.14
-17.03
-7.02
2.68
11.97
21.15
30.80
41.13
51.95
62.31
71.90
80.23
86.64
90.80
93.45
96.06
99.99
106.12
114.26
124.82
136.92
148.26
155.92
158.32
155.72
149.75
142.63
126.08
97.14
58.92
17.89
-20.84
-53.97
-79.40
-97.76
-109.10
-113.68
-111.40
-104.08
-92.90
-80.79
-69.75
-60.38
-52.41
-44.88
-37.06
-28.31
-19.37
-11.86
-7.80
-8.24
-13.79
-25.32
-43.14
-66.82
-91.92
-110.78
-116.76
-110.29
-98.00
-87.80
-83.60
-85.33
-84.86
-74.84
-52.72
-20.84
14.32
45.84
67.59
73.25
63.89
47.49
31.42
15.79
-4.15
-33.42
-71.04
-111.44
-144.51
-159.38
-150.55
-121.19
-82.09
-43.58
-12.32
10.10
24.01
30.12
31.65
32.96
38.01
47.92
65.26
91.84
127.66
168.86
201.26
211.35
193.82
166.61
135.42
102.67
66.21
29.45
-3.44
-28.93
-44.06
-48.49
-45.27
-41.63
-41.92
-46.92
-53.64
-58.18
-56.63
-45.95
-26.15
-0.79
22.93
40.28
49.43
51.45
48.24
42.33
36.34
31.43
26.86
19.76
8.67
-6.86
-25.66
-44.91
-58.66
-59.07
-40.40
-2.47
47.53
97.58
132.93
141.26
117.83
69.19
11.19
-37.83
-63.72
-60.83
-32.12
11.36
54.33
77.00
68.01
34.36
-5.24
-34.25
-51.03
-59.55
-64.86
-69.99
-72.97
-70.81
-61.55
-47.21
-33.42
-26.49
-29.48
-41.93
-60.17
-78.57
-90.90
-92.47
-82.68
-64.85
-44.27
-25.51
-11.75
-4.00
-0.80
1.12
4.96
11.63
19.42
25.50
27.83
25.52
19.21
10.89
2.91
-3.05
-6.85
-9.34
-11.11
-11.65
-9.65
-3.50
8.00
24.63
44.34
62.13
72.01
71.06
61.70
49.55
39.15
31.79
25.41
16.78
3.81
-13.06
-31.36
-48.74
-64.17
-78.21
-89.70
-95.47
-91.47
-75.12
-47.61
-14.50
15.67
34.92
39.23
30.08
12.76
-6.66
-24.12
-38.96
-51.26
-61.47
-69.39
-74.04
-74.35
-70.31
-63.19
-54.73
-46.23
-37.64
-28.21
-17.22
-4.82
7.96
19.54
28.87
36.01
42.01
48.32
55.62
63.41
70.20
74.30
74.55
70.89
64.33
56.52
49.15
43.12
38.31
33.66
27.67
19.04
7.30
-6.91
-22.08
-36.30
-48.02
-56.37
-61.20
-62.88
-61.94
-58.78
-53.68
-47.03
-39.39
-31.61
-24.55
-18.83
-14.50
-11.13
-8.00
-4.35
0.26
5.92
12.35
19.03
25.35
30.72
34.65
36.92
37.44
36.23
33.43
29.42
25.04
21.49
20.18
22.24
28.15
37.36
48.42
59.52
69.24
76.93
82.61
86.50
88.59
88.71
86.44
81.44
73.70
63.69
52.03
39.08
24.69
8.54
-8.85
-26.57
-43.55
-58.70
-70.94
-79.35
-83.43
-83.47
-80.01
-72.61
-61.24
-46.79
-30.94
-15.41
-1.44
9.95
17.61
21.05
22.26
23.30
25.30
28.41
32.77
39.00
47.63
58.17
70.18
85.44
104.92
127.57
150.74
172.02
190.31
205.54
217.78
212.30
182.60
134.66
82.93
38.77
5.04
-20.71
-38.67
-53.94
-68.65
-80.63
-87.95
-91.16
-92.84
-95.87
-100.98
-107.77
-116.28
-126.00
-134.87
-138.86
-135.27
-123.53
-104.48
-79.22
-49.58
-19.28
7.36
27.22
38.02
39.00
31.21
17.60
2.34
-10.73
-19.59
-23.89
-24.96
-25.38
-27.86
-34.55
-45.81
-59.62
-72.24
-79.70
-78.95
-65.92
-44.14
-20.28
-1.23
8.54
8.42
1.41
-7.60
-13.82
-14.37
-9.22
0.32
12.37
25.10
37.03
46.84
53.16
54.77
51.04
41.92
28.73
13.66
-1.17
-14.25
-24.83
-32.85
-38.60
-42.50
-45.16
-46.84
-47.52
-47.22
-45.85
-43.39
-39.96
-35.92
-31.74
-28.06
-25.51
-23.81
-22.65
-21.65
-20.32
-18.11
-14.47
-9.06
-2.08
5.84
13.73
20.62
25.91
29.41
31.21
31.43
30.24
27.90
24.97
22.26
20.48
19.94
20.40
21.25
21.92
22.14
21.98
21.63
21.05
20.01
18.18
15.54
12.51
9.73
7.77
6.78
6.42
6.11
5.39
4.17
2.79
1.77
1.56
2.33
4.03
6.52
9.61
13.28
17.65
22.74
28.46
34.38
39.86
44.08
46.20
45.53
41.68
34.66
24.95
13.65
2.19
-7.92
-15.67
-20.79
-23.82
-25.77
-27.58
-29.65
-31.70
-33.03
-32.97
-31.41
-28.89
-26.42
-24.98
-25.07
-26.49
-28.44
-29.83
-29.72
-27.70
-23.94
-19.05
-13.72
-8.45
-3.39
1.49
6.21
10.70
15.04
19.50
24.54
30.37
36.51
41.50
43.42
40.86
34.05
25.25
18.04
15.48
18.61
25.93
33.98
39.23
39.87
36.46
31.39
27.29
25.15
24.06
21.75
16.15
6.85
-4.29
-13.78
-18.19
-15.74
-7.45
4.02
15.95
26.57
35.17
41.75
46.27
48.19
46.61
39.95
28.13
12.97
-2.77
-17.02
-29.33
-40.56
-51.95
-64.14
-78.28
-93.52
-107.36
-117.03
-121.39
-121.27
-118.57
-115.28
-112.85
-114.11
-120.12
-129.58
-139.71
-147.90
-152.39
-152.22
-147.36
-125.85
-85.91
-36.57
9.34
44.58
68.51
83.15
90.54
92.06
88.98
80.94
69.08
56.22
45.32
37.71
32.89
29.64
26.95
24.50
20.26
14.13
7.27
1.39
-2.26
-3.23
-1.63
1.96
6.68
10.46
12.08
11.67
10.45
9.72
10.22
12.09
15.02
18.66
22.42
25.56
27.83
29.05
28.85
26.73
22.55
16.74
10.15
3.42
-3.16
-9.52
-15.61
-21.18
-25.69
-28.65
-30.10
-30.81
-32.02
-34.67
-38.78
-43.50
-47.66
-50.65
-52.76
-54.82
-57.34
-59.81
-60.77
-58.45
-51.76
-40.85
-26.90
-11.52
3.92
18.58
32.07
44.17
54.70
63.59
71.01
77.32
82.85
87.65
91.51
94.20
95.71
96.41
96.82
97.19
97.34
96.71
94.67
90.87
85.40
78.58
70.79
62.15
52.71
42.57
31.98
21.28
10.70
0.29
-9.94
-19.79
-28.65
-35.50
-39.19
-38.81
-34.19
-26.08
-15.95
-5.56
3.65
10.96
16.38
20.44
23.70
26.54
29.01
30.98
32.30
32.97
33.05
32.60
31.67
30.27
28.48
26.30
23.52
19.73
14.52
7.84
0.12
-7.87
-15.50
-22.66
-29.75
-37.25
-44.99
-51.82
-55.83
-55.12
-48.54
-36.27
-19.84
-1.61
15.86
30.54
41.35
48.18
51.38
51.63
49.64
45.84
40.48
33.85
26.54
19.30
12.67
6.20
-0.98
-9.54
-19.30
-29.23
-37.83
-43.74
-46.41
-46.40
-45.78
-46.64
-50.08
-55.81
-62.71
-69.55
-75.32
-79.31
-81.19
-81.98
-82.83
-84.51
-86.91
-89.36
-91.02
-90.91
-87.90
-76.06
-53.06
-21.77
11.05
38.81
57.12
63.54
57.55
41.08
18.39
-5.69
-26.30
-40.70
-47.12
-44.85
-34.68
-18.54
0.89
20.58
36.99
47.81
52.93
52.72
49.76
47.10
46.68
48.66
51.82
54.28
54.83
53.26
50.19
46.48
42.70
39.07
35.64
32.16
27.81
21.72
13.53
4.24
-4.96
-12.63
-17.79
-20.31
-20.98
-21.12
-21.97
-24.23
-27.93
-32.63
-37.70
-42.47
-45.99
-47.09
-44.57
-37.74
-26.74
-12.71
2.46
16.51
26.54
30.44
27.70
19.60
9.00
-0.66
-6.40
-6.63
-1.48
7.39
17.67
27.17
34.37
38.56
39.67
38.00
33.94
27.82
19.84
10.16
-0.97
-13.29
-26.30
-39.31
-51.47
-61.99
-70.29
-76.12
-79.38
-79.84
-77.40
-72.17
-64.45
-54.56
-42.87
-29.81
-16.06
-2.58
9.79
19.94
26.59
28.79
26.50
20.74
13.39
6.55
1.98
1.28
4.87
12.03
21.58
32.70
44.94
57.89
70.70
81.94
90.94
97.11
100.18
100.44
98.98
97.03
95.47
94.36
87.64
72.45
50.13
25.08
1.33
-19.07
-35.89
-49.68
-61.15
-70.82
-78.09
-82.79
-85.70
-89.24
-94.45
-101.48
-109.45
-116.66
-120.82
-119.11
-109.79
-92.63
-68.75
-39.82
-7.95
24.63
54.40
77.24
90.23
92.07
83.44
66.92
46.50
26.44
10.33
0.43
-2.26
2.07
12.01
25.22
38.86
50.29
57.68
60.51
59.48
56.23
52.05
47.20
41.14
33.49
24.77
16.46
10.35
5.95
2.36
-1.94
-7.99
-15.29
-21.81
-25.41
-25.12
-21.67
-16.99
-12.70
-9.92
-8.97
-9.80
-12.23
-15.90
-20.17
-24.21
-27.34
-29.07
-29.41
-28.48
-26.22
-22.55
-17.60
-11.93
-6.45
-2.15
0.68
2.37
3.55
4.83
6.46
8.20
9.47
9.86
9.60
9.44
10.20
12.20
15.00
17.15
17.01
13.49
6.85
-1.76
-10.85
-19.39
-27.14
-34.17
-40.49
-45.62
-48.72
-49.08
-46.65
-42.17
-36.75
-31.32
-26.15
-21.00
-15.60
-10.07
-5.07
-1.48
0.20
0.24
-0.71
-1.48
-0.84
1.84
6.09
10.43
13.04
12.62
9.20
4.24
0.46
0.85
7.70
21.98
42.77
67.40
92.06
112.68
125.84
129.66
124.13
111.03
93.34
74.30
56.56
41.54
29.25
18.68
8.54
-1.98
-12.73
-22.64
-30.15
-33.97
-33.65
-29.81
-23.87
-17.53
-12.40
-9.77
-10.71
-15.81
-25.08
-37.67
-51.80
-65.07
-75.23
-81.03
-82.49
-80.42
-75.33
-66.86
-54.17
-36.97
-16.55
4.07
21.23
32.27
36.78
36.57
34.47
32.88
32.80
33.86
35.06
35.56
34.97
33.31
30.65
27.07
22.74
18.01
13.14
8.17
2.89
-3.10
-9.93
-17.55
-25.67
-33.74
-41.08
-46.91
-50.26
-50.23
-46.27
-38.61
-28.24
-16.70
-5.58
3.96
11.33
16.49
19.70
21.18
21.19
19.90
17.51
14.35
10.92
7.77
5.62
5.08
6.55
10.09
15.33
21.59
27.99
33.72
38.11
40.67
40.96
38.48
32.88
24.01
12.23
-1.53
-15.80
-28.81
-38.66
-43.64
-42.62
-35.33
-22.52
-5.95
12.06
29.03
42.97
52.60
57.43
57.71
54.23
48.05
40.29
31.86
23.47
15.50
8.08
1.16
-5.48
-12.13
-19.22
-27.20
-36.32
-46.46
-56.97
-66.71
-74.53
-79.76
-82.53
-83.75
-84.59
-85.79
-87.24
-87.84
-85.95
-80.08
-69.56
-54.83
-37.18
-18.29
0.25
17.12
31.26
41.78
47.97
49.55
46.98
41.42
34.59
28.36
24.07
21.98
21.31
20.55
18.38
14.29
8.75
2.84
-2.49
-6.86
-10.29
-12.77
-13.77
-12.29
-7.55
0.20
9.44
17.77
23.13
24.79
23.75
22.02
21.60
23.56
27.85
33.66
39.83
45.33
49.37
51.30
50.58
47.01
40.65
31.96
21.77
11.03
0.68
-8.57
-16.24
-22.20
-26.49
-29.53
-31.93
-34.39
-37.42
-40.96
-44.16
-45.58
-43.64
-37.26
-26.46
-12.41
2.93
17.39
29.25
37.62
42.30
43.63
42.29
39.02
34.66
29.85
24.96
19.91
14.20
7.30
-1.17
-10.96
-21.52
-32.21
-42.64
-52.92
-63.10
-72.74
-80.76
-86.03
-87.96
-86.72
-82.94
-77.15
-69.40
-59.13
-45.85
-29.74
-11.97
5.70
21.53
34.42
44.09
50.84
55.21
57.71
58.78
58.80
58.08
56.70
54.48
51.53
48.26
45.60
44.22
44.25
45.14
45.81
44.79
40.81
33.18
21.80
7.64
-7.37
-20.93
-31.35
-38.24
-42.63
-46.25
-50.46
-55.30
-59.35
-60.51
-57.45
-50.23
-40.41
-30.29
-21.89
-16.28
-13.63
-13.60
-15.79
-19.80
-24.77
-29.18
-31.14
-29.16
-22.81
-13.36
-2.99
5.86
11.72
14.69
15.87
16.58
17.59
18.72
19.24
18.50
16.64
14.67
13.81
14.89
17.80
21.79
25.72
28.81
30.82
32.10
33.03
33.65
33.33
31.23
27.09
21.73
16.85
14.29
15.00
18.40
22.47
24.46
21.88
13.35
-1.13
-20.25
-41.81
-63.25
-82.32
-97.61
-108.76
-116.27
-121.02
-123.75
-124.62
-123.24
-118.97
-111.48
-100.88
-87.71
-72.62
-56.34
-39.65
-23.38
-8.43
4.36
14.39
21.54
26.06
28.24
28.33
26.57
23.42
20.01
17.96
19.14
25.02
36.10
51.58
69.54
87.43
102.76
113.61
119.17
119.86
117.12
112.84
108.57
105.06
102.17
99.27
95.85
92.03
88.57
86.47
86.36
88.04
90.64
93.02
94.29
94.15
92.87
90.97
88.80
86.38
83.50
80.05
76.34
73.28
72.16
74.10
79.47
87.45
96.26
103.56
107.14
105.38
97.56
83.87
65.35
43.77
21.35
0.13
-18.65
-35.11
-50.87
-68.30
-89.40
-114.72
-142.92
-171.23
-196.41
-215.90
-228.68
-235.27
-237.39
-237.00
-235.40
-232.35
-225.89
-212.64
-189.06
-152.95
-104.71
-47.70
12.47
69.56
118.35
155.57
180.25
193.24
196.25
191.06
179.22
161.84
139.97
115.08
89.05
64.08
42.21
24.74
12.01
3.47
-1.87
-4.93
-6.37
-6.70
-6.65
-7.22
-9.55
-14.55
-22.35
-32.17
-42.52
-51.67
-58.22
-61.46
-61.47
-58.94
-54.65
-49.25
-43.32
-37.48
-32.61
-30.20
-31.85
-38.74
-51.12
-68.00
-87.61
-107.95
-127.51
-145.59
-161.93
-176.15
-187.60
-195.45
-199.25
-199.26
-196.67
-193.02
-189.49
-186.52
-183.91
-181.41
-178.91
-176.42
-173.77
-170.18
-164.28
-154.39
-139.16
-117.86
-90.58
-58.11
-21.79
16.32
53.34
85.84
110.56
125.43
130.28
127.04
119.09
109.89
101.99
96.49
93.35
92.00
91.84
92.72
94.71
97.76
101.45
105.13
108.04
109.68
109.86
108.64
106.13
102.36
97.37
91.20
84.00
76.10
68.17
61.19
56.23
53.95
54.30
56.52
59.37
61.59
62.04
59.66
53.18
41.38
23.70
0.83
-25.10
-51.02
-74.09
-92.88
-107.46
-118.85
-128.11
-135.67
-141.50
-145.44
-147.65
-148.83
-150.02
-152.40
-156.85
-163.72
-172.71
-182.71
-191.81
-197.42
-196.63
-186.98
-167.19
-137.49
-99.81
-57.27
-13.27
29.52
69.89
108.20
145.71
183.33
220.72
256.12
287.22
312.04
329.68
340.39
345.07
344.86
340.72
333.25
322.56
308.01
287.98
259.82
220.67
168.89
105.66
35.79
-32.98
-91.82
-133.39
-153.80
-153.60
-137.05
-110.64
-81.04
-53.62
-31.57
-15.77
-5.39
1.21
5.46
8.12
9.36
9.29
8.31
7.28
7.56
10.54
17.20
27.42
39.86
52.23
61.89
66.30
63.60
53.17
35.89
13.87
-10.83
-36.40
-61.06
-82.31
-97.26
-103.50
-99.91
-87.07
-67.01
-43.67
-21.55
-4.32
6.29
10.07
7.48
-0.40
-11.42
-22.09
-29.76
-33.47
-34.59
-36.08
-42.19
-57.26
-83.53
-119.29
-151.28
-162.92
-144.52
-102.06
-51.50
-7.88
20.45
32.82
34.18
32.50
32.11
33.72
36.03
38.11
40.27
43.73
50.39
60.32
72.34
83.58
91.24
94.27
94.23
94.04
95.81
99.62
103.51
105.06
101.73
92.03
76.03
55.43
33.08
12.26
-3.64
-11.76
-10.29
0.31
17.19
35.95
52.00
61.73
63.17
56.15
42.21
24.33
6.11
-9.13
-19.42
-24.71
-26.66
-27.60
-29.08
-31.05
-32.03
-30.32
-25.35
-18.08
-10.35
-3.63
1.99
7.62
14.70
23.71
33.68
42.51
48.14
49.68
47.73
44.12
41.04
40.25
42.64
48.00
55.12
62.05
66.55
66.91
62.68
55.03
46.54
40.26
38.69
42.83
51.89
63.54
74.48
81.06
79.99
68.99
47.59
17.41
-18.13
-54.91
-89.59
-120.71
-148.96
-176.28
-204.51
-234.01
-263.15
-288.75
-307.23
-316.00
-314.34
-303.54
-286.26
-265.56
-243.93
-222.82
-202.56
-182.93
-163.87
-145.65
-128.44
-111.79
-94.63
-75.85
-55.14
-33.34
-11.64
9.62
31.56
55.89
82.88
109.73
130.45
138.08
128.20
101.72
65.24
28.54
0.69
-13.35
-13.93
-5.56
5.58
14.16
17.06
13.58
4.80
-7.43
-21.25
-35.09
-47.75
-58.12
-65.11
-67.89
-66.55
-62.19
-56.65
-51.82
-48.81
-47.50
-46.54
-43.80
-37.30
-25.80
-9.38
10.22
29.90
45.89
54.75
54.55
45.44
29.69
10.93
-7.01
-21.21
-30.17
-33.87
-33.35
-30.04
-25.37
-20.61
-16.43
-12.63
-8.42
-2.89
4.38
12.94
21.80
30.00
37.09
43.26
48.99
54.77
60.99
68.12
76.95
88.61
103.51
120.39
136.28
147.65
152.29
150.51
145.02
139.35
136.32
135.65
133.56
124.80
105.67
75.95
38.97
-0.08
-36.31
-65.07
-84.49
-96.21
-103.83
-110.17
-115.83
-119.47
-119.20
-113.77
-100.77
-79.71
-53.45
-26.90
-3.94
14.14
28.05
39.17
48.72
61.20
80.71
108.59
143.44
183.35
226.99
272.83
318.52
338.93
317.39
258.31
183.36
112.34
53.89
8.71
-25.32
-50.49
-68.66
-77.91
-77.09
-68.67
-58.25
-50.97
-49.13
-52.20
-57.84
-63.19
-63.43
-55.94
-42.75
-29.73
-22.99
-25.86
-37.84
-55.18
-72.43
-82.87
-82.14
-70.63
-53.38
-36.90
-27.02
-27.68
-40.29
-63.25
-90.89
-115.02
-127.20
-121.43
-96.41
-56.53
-11.02
29.01
54.71
63.03
56.96
43.06
27.92
15.49
6.64
0.14
-5.49
-10.67
-14.60
-16.31
-15.90
-14.74
-14.65
-16.35
-18.63
-19.07
-14.81
-3.92
13.64
35.96
59.87
79.36
89.77
89.93
82.42
71.49
60.45
50.41
40.81
30.57
19.20
7.79
-1.77
-7.93
-10.37
-9.91
-7.93
-5.49
-3.02
-0.50
2.45
5.89
9.71
12.68
13.89
13.05
10.46
6.62
2.00
-2.69
-6.40
-7.88
-6.11
-0.62
8.00
18.23
27.85
34.87
38.42
38.75
36.83
33.63
29.70
24.41
17.55
9.03
-0.93
-11.74
-22.56
-32.64
-41.52
-49.00
-55.06
-59.56
-62.29
-62.99
-61.50
-58.07
-53.47
-48.93
-45.81
-45.30
-48.00
-54.05
-62.86
-73.17
-83.09
-90.37
-92.91
-89.43
-79.97
-65.89
-49.62
-33.67
-19.80
-8.68
-0.05
6.67
11.89
15.64
17.77
18.27
17.64
16.72
16.37
17.06
18.60
20.23
21.09
20.66
18.95
16.50
14.02
11.99
10.60
9.73
9.18
8.72
8.19
7.49
6.67
6.05
6.36
8.73
14.29
23.65
36.54
51.80
67.72
82.65
95.37
105.30
112.23
116.02
116.45
113.31
106.57
96.62
84.37
71.07
57.96
46.02
35.63
26.61
18.30
9.91
0.85
-8.97
-19.04
-28.34
-35.76
-40.51
-42.54
-42.70
-42.50
-43.50
-46.60
-51.55
-56.84
-60.20
-59.23
-52.30
-39.06
-20.51
1.32
23.92
44.93
62.58
75.90
84.63
89.01
89.55
86.89
81.64
74.45
65.91
56.60
47.10
37.95
29.68
22.77
17.50
13.71
10.95
8.57
5.94
2.70
-1.25
-5.71
-10.42
-15.25
-20.34
-25.96
-32.30
-39.50
-47.54
-56.24
-65.22
-73.67
-80.35
-84.02
-83.37
-77.57
-66.69
-51.83
-34.97
-18.35
-3.92
7.08
13.71
15.90
14.18
9.29
1.87
-7.54
-18.06
-28.44
-37.24
-44.36
-49.93
-54.13
-57.42
-60.55
-64.31
-68.83
-73.42
-76.87
-79.76
-82.46
-84.96
-87.24
-89.80
-93.61
-99.23
-106.34
-113.73
-121.83
-129.88
-135.89
-137.62
-134.01
-125.78
-114.82
-103.45
-80.53
-44.21
-1.65
36.54
64.01
80.07
86.77
86.89
83.16
78.13
71.81
64.71
58.08
51.97
47.33
44.28
42.74
42.81
44.84
47.49
49.90
51.90
54.37
56.31
55.93
52.04
44.88
36.27
28.04
22.57
22.00
27.23
37.16
49.03
59.59
66.14
67.27
62.51
52.91
40.61
28.14
17.58
10.12
5.91
4.33
4.34
4.68
4.45
3.43
2.15
1.77
3.85
9.68
19.65
32.48
45.75
56.65
62.92
63.69
59.71
53.04
45.90
40.39
37.99
39.29
43.40
47.85
49.14
43.95
30.76
10.24
-14.77
-40.81
-65.11
-86.22
-103.44
-115.72
-122.43
-121.59
-113.28
-99.68
-83.96
-68.28
-52.36
-34.03
-11.37
14.80
40.54
60.37
70.34
70.06
62.56
52.01
41.10
30.09
17.66
3.66
-10.35
-21.25
-26.21
-24.53
-18.12
-10.45
-4.50
-1.61
-1.18
-1.75
-1.95
-1.21
0.22
1.74
2.68
2.74
2.09
1.25
0.71
0.81
1.56
2.68
3.72
4.28
4.20
3.63
2.94
2.54
2.68
3.39
4.45
5.46
6.03
5.97
5.37
4.55
3.99
4.06
4.94
6.43
8.14
9.49
9.98
9.43
7.96
5.98
3.88
1.99
0.28
-1.52
-3.97
-7.81
-13.75
-22.23
-32.89
-44.22
-53.56
-57.80
-54.67
-43.91
-27.69
-10.04
4.76
13.89
16.82
15.28
12.11
10.18
11.20
15.40
21.51
27.10
29.37
26.06
16.62
2.69
-12.19
-24.08
-30.01
-29.01
-22.20
-12.09
-1.47
7.40
13.28
16.28
17.67
20.02
26.12
37.57
53.44
70.17
82.92
87.67
83.14
70.84
54.55
38.13
23.88
12.00
1.42
-8.97
-19.54
-29.60
-38.41
-45.06
-49.08
-50.66
-50.70
-50.58
-52.04
-56.90
-63.48
-71.74
-80.99
-89.72
-96.03
-98.31
-95.70
-88.23
-76.48
-61.16
-43.34
-23.64
-2.82
17.86
36.50
50.93
59.45
61.50
57.94
50.45
41.32
32.38
24.42
17.02
9.00
-0.83
-13.11
-27.83
-44.71
-63.13
-82.30
-101.38
-119.58
-136.44
-152.07
-167.12
-182.32
-198.02
-213.66
-227.97
-239.73
-248.50
-254.94
-260.38
-265.98
-271.77
-276.38
-277.05
-270.55
-253.93
-225.43
-184.76
-133.19
-73.34
-8.24
59.25
127.06
194.20
260.58
326.69
393.09
459.74
525.41
587.24
640.54
679.28
697.39
690.59
658.12
603.41
533.45
457.01
382.66
317.36
265.86
230.55
211.27
205.01
205.91
206.11
197.65
174.78
135.90
84.06
25.65
-31.95
-82.72
-123.39
-153.49
-174.61
-189.48
-201.32
-213.26
-227.70
-245.69
-266.51
-287.93
-307.23
-322.39
-333.14
-340.82
-347.47
-354.48
-361.46
-366.22
-365.59
-356.70
-338.01
-309.83
-274.32
-235.30
-197.87
-167.72
-150.12
-148.51
-163.40
-191.85
-227.97
-264.34
-293.79
-310.91
-313.01
-300.25
-275.20
-241.96
-205.04
-168.30
-134.14
-103.21
-74.75
-47.47
-20.49
6.16
31.50
54.35
73.95
90.55
105.25
119.67
135.32
153.47
175.21
201.03
230.06
259.10
282.49
293.75
288.37
266.61
234.51
202.38
181.04
177.76
193.85
224.95
263.43
301.33
332.27
351.52
355.22
339.92
303.55
247.53
178.53
108.48
52.00
22.09
25.23
58.57
110.44
164.24
204.06
219.67
209.02
177.41
134.33
89.80
51.47
23.71
7.89
3.38
8.01
18.21
28.98
34.47
29.44
11.20
-18.73
-54.77
-88.98
-114.04
-126.17
-126.63
-120.98
-116.48
-118.98
-130.48
-148.80
-168.51
-183.26
-187.83
-179.55
-158.46
-126.84
-88.33
-47.23
-8.18
24.37
46.91
57.52
56.76
47.50
34.24
21.68
13.55
11.75
16.43
26.29
39.20
52.78
64.54
72.07
73.23
66.64
51.99
30.47
4.83
-20.90
-41.92
-53.83
-53.86
-42.49
-24.02
-5.88
3.81
-0.49
-19.23
-47.09
-75.16
-94.36
-99.13
-89.43
-70.37
-49.67
-34.62
-29.48
-34.49
-46.34
-59.44
-67.67
-65.85
-50.86
-22.36
17.20
63.05
108.80
147.14
170.72
173.55
152.61
109.50
51.12
-11.20
-64.31
-96.58
-100.97
-76.78
-29.50
30.45
90.10
136.49
159.86
156.45
130.09
91.43
54.51
31.32
26.97
38.11
54.88
66.13
64.71
50.30
28.71
8.37
-3.57
-3.64
7.46
26.05
47.10
65.59
77.26
79.16
70.10
51.10
25.27
-2.90
-28.77
-49.25
-63.72
-74.29
-84.82
-99.47
-120.89
-149.01
-180.57
-209.75
-229.46
-232.77
-214.94
-175.01
-116.70
-48.93
14.90
59.64
72.68
48.15
-9.83
-87.84
-166.87
-227.81
-257.09
-250.14
-211.47
-151.67
-83.80
-19.69
30.93
60.73
66.26
48.81
14.89
-24.32
-55.56
-68.04
-56.64
-25.21
14.47
50.28
74.02
82.90
78.70
64.90
43.89
18.09
-12.29
-49.38
-90.40
-129.11
-159.21
-176.37
-179.12
-168.77
-145.14
-110.69
-73.21
-35.86
1.48
38.75
75.75
112.38
148.88
189.83
236.38
280.61
317.08
342.07
351.17
341.86
315.15
249.89
149.51
60.70
-10.11
-73.49
-131.20
-180.56
-215.46
-229.25
-218.36
-180.61
-122.13
-59.37
-3.62
40.02
69.33
84.46
86.56
76.91
60.04
38.88
11.77
-18.15
-44.77
-63.21
-70.64
-66.93
-54.72
-36.57
-17.00
-2.85
4.06
6.66
9.60
17.49
32.80
54.76
80.79
106.44
126.35
138.43
143.55
143.38
139.15
130.83
117.43
98.36
73.63
43.31
7.95
-32.11
-76.63
-123.98
-169.89
-207.32
-228.15
-226.13
-199.29
-150.90
-88.34
-20.71
43.39
97.06
135.30
154.81
153.81
132.30
92.26
37.65
-25.62
-90.09
-147.17
-187.95
-204.64
-192.86
-153.24
-92.13
-20.34
49.36
105.36
139.52
148.47
133.67
100.52
57.09
12.48
-24.87
-48.82
-56.66
-49.54
-31.95
-10.40
8.58
20.48
24.34
23.18
22.83
29.72
48.10
77.86
114.41
150.10
176.62
187.47
179.66
153.81
113.12
62.25
6.48
-48.00
-94.24
-125.74
-138.82
-134.62
-119.49
-102.56
-91.59
-89.61
-93.07
-94.13
-85.77
-66.10
-39.00
-11.29
12.11
30.83
47.06
64.15
82.87
98.63
102.14
84.10
40.49
-23.89
-96.28
-162.78
-209.15
-224.47
-205.08
-155.69
-86.53
-10.20
61.61
119.09
150.73
151.48
124.68
78.91
23.52
-33.34
-86.83
-135.36
-180.91
-232.86
-295.20
-362.80
-424.88
-471.02
-493.94
-491.89
-467.66
-394.27
-277.85
-153.96
-56.65
5.50
40.04
63.43
83.64
104.45
128.46
149.87
166.17
178.61
188.43
194.12
194.08
188.53
181.82
179.74
182.36
189.77
202.74
221.05
241.87
261.43
275.89
282.89
280.84
265.97
237.74
199.80
157.80
116.42
78.32
43.55
11.02
-20.66
-53.19
-85.44
-113.55
-132.91
-139.96
-132.70
-110.75
-75.10
-28.58
23.09
72.79
113.51
139.89
150.07
146.17
133.34
117.79
105.23
99.67
103.24
116.05
135.56
158.12
179.73
196.34
204.17
200.58
184.49
156.41
118.17
71.07
18.01
-36.58
-88.13
-133.62
-171.41
-200.70
-221.29
-233.62
-240.91
-244.71
-243.86
-235.94
-219.71
-196.30
-169.21
-144.14
-127.65
-127.97
-147.55
-181.03
-217.42
-245.12
-255.36
-244.26
-213.64
-150.38
-61.44
29.31
99.36
142.29
162.38
164.93
153.26
131.04
101.82
68.63
37.36
13.99
1.95
-0.09
3.60
13.18
28.57
49.81
72.86
95.43
110.85
113.41
102.76
85.27
66.79
51.80
42.41
37.29
34.95
34.39
35.41
37.03
37.26
34.56
29.28
24.03
21.62
24.43
33.13
46.94
63.39
78.64
88.43
89.16
79.00
58.33
30.30
0.00
-26.82
-45.98
-56.05
-58.36
-55.85
-52.06
-50.23
-52.91
-61.25
-74.65
-90.59
-105.57
-116.54
-122.15
-123.74
-124.75
-128.82
-137.14
-147.41
-154.33
-152.03
-137.64
-113.65
-87.97
-70.73
-69.71
-86.11
-115.33
-149.64
-181.29
-204.93
-217.80
-218.72
-206.59
-180.61
-140.38
-90.92
-42.77
-7.84
5.90
-2.37
-26.93
-58.14
-86.51
-102.18
-100.43
-81.00
-45.43
4.65
67.08
137.66
210.79
280.70
346.10
403.81
447.75
471.71
472.83
453.57
420.86
384.15
327.85
254.37
179.61
117.83
72.03
38.47
14.03
-2.99
-13.77
-19.97
-19.63
-13.77
-6.86
-4.22
-10.05
-24.70
-47.45
-75.68
-105.73
-130.76
-146.61
-153.01
-147.73
-133.80
-114.70
-93.88
-74.16
-57.77
-44.17
-33.14
-24.89
-19.09
-15.21
-11.99
-9.01
-6.88
-6.83
-8.77
-12.46
-17.43
-22.43
-26.71
-29.78
-32.47
-36.31
-42.74
-52.15
-64.38
-78.15
-90.97
-99.83
-101.28
-92.99
-74.69
-49.03
-21.31
1.25
12.49
9.59
-6.02
-28.84
-51.68
-67.91
-73.36
-62.72
-35.00
7.72
61.82
123.19
187.41
248.87
300.06
332.18
337.72
313.42
263.07
197.38
130.19
73.05
31.05
1.66
-23.03
-52.11
-92.10
-144.16
-203.90
-263.25
-313.32
-346.60
-358.49
-347.70
-315.66
-265.73
-202.40
-131.38
-60.16
2.25
47.25
70.06
72.90
65.91
64.14
81.70
125.16
189.78
260.82
318.99
347.56
338.30
293.54
224.66
148.24
81.57
38.45
25.95
42.48
78.10
117.68
146.20
154.11
140.83
114.32
86.89
69.25
65.79
73.52
84.84
91.76
89.33
76.65
55.42
27.57
-6.03
-45.08
-88.13
-131.46
-169.34
-195.75
-207.20
-204.51
-192.74
-179.11
-169.94
-168.01
-171.77
-176.70
-177.84
-172.23
-160.16
-144.97
-131.66
-125.08
-128.32
-141.61
-161.83
-182.85
-196.82
-195.87
-174.33
-130.46
-67.54
6.53
81.00
145.07
191.02
216.27
223.93
220.97
215.26
212.65
215.01
220.03
222.94
218.69
203.33
174.77
133.23
81.64
25.96
-25.35
-63.50
-82.67
-82.91
-70.87
-57.24
-51.98
-59.61
-77.29
-96.87
-109.13
-108.15
-93.14
-67.58
-36.91
-6.69
18.14
33.08
34.09
18.89
-11.16
-50.05
-87.83
-113.96
-122.13
-113.61
-97.24
-85.84
-90.17
-113.84
-151.74
-192.31
-222.59
-233.31
-221.44
-189.22
-141.52
-83.31
-19.14
45.63
104.11
148.73
173.73
177.98
165.99
146.34
128.44
119.01
120.06
129.22
141.13
149.24
147.45
131.22
98.58
51.41
-4.19
-58.55
-100.90
-122.92
-121.61
-99.93
-64.95
-24.38
16.44
55.29
91.22
121.71
140.88
140.99
117.03
71.13
14.51
-35.32
-61.35
-54.36
-16.84
37.99
92.39
131.35
147.96
144.17
127.42
105.49
83.05
61.58
41.69
25.78
18.11
22.17
37.05
55.86
67.75
63.00
38.40
-0.79
-43.23
-77.16
-95.95
-100.30
-96.30
-91.12
-88.92
-89.69
-91.13
-91.58
-91.89
-95.32
-104.82
-120.42
-138.01
-150.28
-149.22
-128.94
-87.58
-28.15
41.70
111.16
168.28
202.58
207.46
182.31
132.81
69.77
6.48
-44.62
-74.76
-80.81
-65.69
-37.52
-7.16
14.91
21.88
12.69
-8.02
-32.18
-51.81
-62.10
-62.83
-57.76
-52.52
-51.91
-58.15
-70.20
-84.13
-94.36
-94.95
-81.12
-51.12
-7.58
41.96
86.17
112.36
110.52
77.06
16.93
-57.05
-127.67
-178.51
-198.68
-185.20
-142.30
-78.54
-3.69
73.12
143.72
200.33
235.51
243.59
223.36
179.80
123.41
66.51
18.43
-17.43
-42.79
-60.61
-71.22
-71.08
-55.92
-25.73
11.61
41.64
49.24
26.31
-23.38
-84.96
-138.86
-168.98
-168.42
-140.30
-94.51
-42.98
3.73
37.90
54.84
53.21
36.00
11.18
-9.45
-14.09
4.30
44.10
94.71
140.23
165.38
161.25
128.13
74.94
16.08
-32.95
-59.79
-58.20
-29.67
16.50
65.58
101.78
113.55
97.87
61.65
19.24
-13.10
-23.51
-8.87
24.44
63.47
93.55
103.30
87.78
49.10
-5.24
-64.92
-119.57
-160.60
-181.70
-179.28
-152.70
-104.99
-43.02
23.19
82.48
125.27
145.78
142.80
119.43
82.20
39.30
-1.13
-32.70
-52.04
-59.09
-56.74
-49.26
-40.94
-35.03
-33.16
-35.06
-38.26
-38.19
-28.93
-5.52
33.30
82.94
133.39
172.28
189.31
179.90
146.12
95.06
36.33
-19.82
-63.88
-88.26
-89.15
-68.32
-33.56
3.33
30.71
41.20
34.09
14.56
-9.00
-28.48
-38.67
-38.06
-28.60
-15.10
-4.59
-4.93
-22.81
-60.66
-114.40
-173.28
-222.42
-247.34
-238.27
-193.31
-119.25
-30.09
56.49
123.73
160.05
162.28
136.34
95.71
57.14
35.30
37.66
61.94
97.00
127.28
138.38
121.93
78.44
16.94
-48.19
-101.83
-133.12
-139.06
-125.65
-105.26
-91.94
-95.53
-117.46
-150.23
-180.39
-194.63
-185.01
-151.57
-101.17
-43.90
11.10
57.95
94.09
119.04
132.93
136.17
129.62
115.07
94.85
71.14
44.91
16.15
-15.09
-47.82
-79.68
-107.80
-130.32
-147.37
-160.49
-170.85
-177.47
-176.15
-161.15
-128.21
-77.38
-14.63
49.66
103.81
138.71
150.14
139.12
110.47
70.96
28.09
-10.39
-36.23
-41.56
-20.86
25.84
91.13
160.61
216.72
244.52
236.47
194.29
126.77
45.55
-38.74
-118.13
-186.86
-240.16
-273.94
-285.66
-275.48
-246.48
-203.26
-149.75
-88.12
-19.86
51.64
119.28
172.02
198.21
190.65
150.93
90.75
29.06
-14.01
-24.00
2.91
58.60
126.39
187.12
225.67
235.16
217.56
180.90
135.19
88.82
46.92
11.16
-19.08
-45.72
-70.55
-94.09
-114.45
-126.95
-125.78
-107.09
-72.42
-30.01
7.77
30.45
35.41
30.02
27.96
41.58
74.36
118.22
157.40
176.59
168.37
136.00
90.26
43.10
2.46
-28.72
-49.74
-58.68
-51.76
-26.05
16.43
66.40
108.99
129.14
117.87
76.12
13.70
-54.70
-115.67
-160.77
-187.16
-195.61
-187.98
-165.97
-131.20
-86.43
-36.48
12.05
51.77
75.95
79.92
62.18
24.86
-25.84
-80.00
-125.60
-151.52
-150.75
-123.07
-75.07
-18.00
35.74
75.51
93.98
87.31
55.49
2.70
-61.94
-125.29
-172.59
-191.72
-176.87
-129.95
-59.26
23.59
106.83
180.59
237.34
272.18
283.27
272.01
242.84
201.76
154.22
103.43
50.10
-5.67
-62.07
-114.11
-153.87
-172.80
-164.85
-129.30
-71.99
-4.44
59.17
106.41
130.79
133.65
123.11
110.37
104.88
110.62
125.14
141.20
150.52
146.96
128.31
96.24
54.39
6.54
-44.21
-95.45
-144.79
-189.54
-227.01
-255.65
-276.21
-291.86
-307.07
-325.30
-346.63
-367.16
-380.11
-378.57
-358.34
-319.21
-264.42
-198.52
-125.82
-49.94
25.06
93.39
147.74
180.66
187.30
167.20
124.77
67.85
5.69
-52.91
-100.71
-132.60
-145.75
-139.73
-115.95
-77.14
-26.50
32.11
93.48
150.13
192.86
212.77
205.26
172.60
124.44
74.46
35.47
14.87
12.65
22.97
37.72
50.76
60.08
67.40
75.69
85.88
95.33
98.53
90.08
68.31
37.58
7.27
-11.66
-11.50
8.49
41.55
76.48
102.59
114.10
111.42
98.90
80.90
58.68
29.99
-7.88
-54.38
-102.96
-142.05
-159.01
-145.72
-102.66
-39.27
29.43
88.42
127.02
140.97
131.68
103.95
64.20
19.55
-22.32
-53.17
-64.90
-51.19
-9.47
57.42
140.71
227.06
301.58
351.67
370.56
358.85
323.69
275.92
225.86
179.81
139.14
101.50
63.67
23.80
-17.93
-60.34
-102.73
-145.47
-189.23
-233.45
-275.49
-311.09
-335.90
-347.52
-346.32
-334.94
-316.88
-294.98
-270.74
-244.49
-216.21
-186.12
-155.01
-123.96
-94.26
-67.59
-46.13
-32.34
-28.39
-35.33
-51.89
-74.67
-98.23
-116.39
-123.41
-115.43
-91.82
-55.87
-14.38
24.20
52.60
67.85
72.38
72.83
76.40
86.69
101.45
113.90
116.73
106.48
85.43
59.93
36.13
16.24
-2.55
-25.16
-54.05
-85.74
-111.12
-119.02
-101.92
-60.51
-3.81
53.43
96.31
114.39
104.27
69.24
17.28
-41.57
-97.54
-142.26
-169.41
-175.00
-157.66
-118.51
-60.78
10.73
89.72
168.21
236.82
285.53
306.03
294.84
255.80
200.40
144.79
103.94
85.90
88.77
102.18
113.20
112.89
100.17
80.81
62.27
47.89
34.31
13.97
-19.12
-63.77
-109.77
-141.51
-144.77
-113.66
-53.66
20.03
88.10
133.62
147.10
128.24
83.92
24.66
-39.36
-100.35
-153.59
-196.78
-229.29
-251.59
-265.37
-273.42
-279.08
-285.30
-293.44
-302.65
-310.20
-312.48
-306.11
-289.08
-261.34
-224.62
-181.93
-136.28
-89.53
-41.95
7.12
57.07
104.40
142.77
165.55
169.38
156.93
136.89
121.09
120.38
140.47
180.58
233.99
290.51
339.24
370.92
378.99
360.26
315.00
247.36
165.30
79.89
3.89
-50.56
-74.24
-63.30
-21.04
42.03
110.36
167.55
201.28
206.37
185.16
145.17
96.09
47.11
5.79
-21.79
-31.42
-21.57
5.16
41.50
76.18
97.22
95.99
70.63
26.69
-24.98
-72.25
-105.43
-119.63
-114.84
-94.44
-63.57
-27.27
10.40
46.62
79.60
108.61
133.85
156.35
177.48
198.09
217.39
232.87
240.79
237.56
221.16
191.46
150.56
101.84
49.15
-3.92
-53.93
-97.55
-131.07
-150.46
-152.51
-136.43
-105.72
-68.41
-35.72
-18.65
-24.15
-52.00
-94.65
-139.89
-175.17
-191.70
-186.22
-160.53
-119.73
-70.46
-20.21
23.24
52.27
61.17
48.01
15.65
-29.06
-78.17
-125.48
-168.14
-205.86
-238.60
-264.15
-277.81
-274.03
-248.67
-201.01
-134.21
-54.98
27.42
102.34
159.26
190.02
191.29
166.24
124.61
80.17
46.56
33.23
42.59
69.99
105.82
139.13
160.96
166.69
156.22
132.71
100.33
62.68
22.35
-18.23
-55.51
-84.65
-100.60
-100.47
-85.61
-62.18
-39.54
-26.95
-29.95
-48.17
-75.44
-102.14
-118.90
-119.88
-104.66
-78.21
-49.10
-26.69
-18.15
-26.29
-48.61
-78.21
-106.58
-127.01
-137.63
-141.91
-146.37
-156.13
-171.43
-186.47
-191.93
-179.46
-145.63
-93.33
-30.17
34.91
94.53
143.86
180.18
201.45
206.05
193.86
168.14
136.76
111.17
103.02
119.08
157.61
207.52
251.96
275.04
268.41
234.65
185.70
136.88
100.10
79.94
73.65
74.78
77.23
77.76
75.51
70.10
60.35
44.44
21.94
-4.74
-30.28
-48.59
-55.77
-52.51
-44.00
-37.88
-41.02
-56.90
-84.62
-119.86
-156.89
-190.83
-218.59
-238.57
-249.49
-249.52
-236.53
-209.69
-171.23
-127.36
-87.15
-59.39
-48.93
-53.97
-66.50
-75.15
-70.10
-47.35
-10.55
30.67
64.92
83.84
85.14
72.12
51.09
27.58
4.75
-16.17
-33.61
-44.40
-44.44
-31.76
-9.37
13.83
26.10
18.00
-12.62
-59.01
-107.72
-143.82
-156.48
-142.50
-106.18
-56.60
-3.59
45.46
86.89
119.79
144.24
159.69
164.47
156.48
134.22
97.87
49.85
-5.47
-62.34
-114.41
-155.47
-180.31
-185.33
-169.28
-133.99
-84.70
-29.46
22.08
60.88
80.63
79.63
61.44
34.28
8.92
-4.16
1.99
28.18
68.35
111.21
144.31
159.32
155.95
142.12
129.98
129.33
142.04
160.61
171.63
162.86
129.94
79.34
26.00
-13.36
-28.22
-19.31
1.64
17.69
15.13
-9.59
-47.68
-82.10
-95.68
-78.98
-34.54
25.11
83.33
126.43
147.49
146.55
127.48
94.85
52.36
3.43
-47.32
-93.55
-128.20
-145.88
-144.76
-127.18
-98.65
-65.80
-34.82
-10.40
4.18
6.81
-3.14
-23.99
-51.28
-78.44
-98.60
-107.13
-102.60
-86.28
-60.39
-26.26
15.25
62.32
110.00
150.08
173.11
172.57
147.98
105.59
55.33
6.11
-37.83
-77.36
-115.31
-152.63
-186.16
-209.94
-218.82
-211.64
-192.40
-167.78
-143.66
-122.79
-104.57
-87.15
-69.23
-50.49
-30.57
-8.30
18.44
50.87
87.84
125.12
156.47
176.06
179.99
167.09
138.63
98.18
51.32
5.10
-33.40
-59.60
-72.94
-76.91
-76.25
-73.77
-68.30
-55.59
-31.47
4.50
47.31
87.78
116.59
128.71
126.03
116.28
108.80
109.28
116.50
123.13
120.87
106.31
84.39
66.47
63.79
80.66
110.79
140.01
152.94
140.24
101.82
44.96
-20.21
-84.92
-142.97
-189.63
-219.79
-228.50
-212.88
-174.95
-122.08
-65.24
-15.26
20.62
40.37
46.36
43.04
34.72
24.62
14.98
7.44
2.75
0.20
-2.74
-9.50
-22.53
-41.60
-63.69
-84.64
-101.88
-116.05
-130.23
-147.22
-166.49
-182.67
-187.25
-172.59
-136.28
-83.11
-24.25
26.65
57.73
62.57
41.25
-0.51
-53.76
-108.83
-157.22
-192.46
-210.16
-207.55
-183.23
-137.62
-74.24
-0.97
69.84
123.55
147.97
138.28
100.23
49.36
5.46
-15.01
-5.19
30.15
77.99
123.19
154.41
166.72
160.94
140.85
111.23
77.24
44.72
20.04
8.65
13.04
31.62
59.46
90.53
120.26
146.16
166.66
179.12
179.07
161.91
126.21
76.65
23.86
-18.59
-39.71
-35.75
-11.47
22.21
53.60
74.89
84.32
84.78
80.25
72.30
58.98
36.18
0.68
-47.05
-101.64
-153.89
-193.62
-213.01
-209.26
-185.66
-150.32
-113.72
-84.98
-68.68
-63.12
-61.05
-52.77
-30.32
8.71
60.00
113.72
158.28
183.86
185.02
161.21
115.97
55.89
-10.60
-73.70
-123.24
-150.20
-149.00
-119.28
-66.54
-0.64
66.62
124.23
164.06
181.45
174.87
145.49
96.37
32.72
-38.20
-107.57
-165.99
-204.92
-218.31
-204.04
-164.38
-105.83
-37.92
28.32
81.93
113.76
117.80
92.72
42.92
-21.35
-85.73
-134.83
-156.36
-144.23
-100.57
-35.22
36.52
97.99
135.53
142.09
118.92
74.59
21.45
-28.62
-68.08
-94.75
-110.34
-117.13
-115.71
-104.30
-80.79
-45.22
-1.21
44.71
85.56
116.49
135.99
145.37
146.72
140.65
125.49
98.21
56.97
3.83
-54.19
-106.08
-140.61
-150.59
-135.90
-103.02
-61.65
-20.08
17.95
53.14
87.38
120.06
145.98
156.76
144.30
105.27
43.30
-31.10
-103.82
-161.08
-193.22
-196.70
-173.89
-131.16
-76.37
-16.64
42.78
98.37
147.48
187.30
214.84
227.28
222.79
200.82
162.24
109.72
48.05
-15.37
-71.21
-110.05
-124.95
-113.39
-77.97
-25.41
35.31
94.71
143.89
175.15
183.01
165.68
126.29
73.02
17.35
-29.30
-59.36
-71.05
-68.46
-58.71
-48.76
-42.66
-40.87
-41.36
-41.89
-41.92
-42.74
-46.32
-52.90
-59.43
-59.78
-47.17
-17.86
26.21
76.85
122.32
151.56
157.99
140.80
103.66
52.12
-8.39
-72.89
-135.72
-189.46
-225.68
-237.03
-219.74
-175.26
-109.58
-31.72
48.36
120.99
177.72
211.70
218.57
197.48
151.44
87.43
15.30
-53.67
-108.52
-140.08
-142.43
-114.47
-60.57
9.42
82.21
143.94
183.77
196.34
182.37
147.18
97.86
40.44
-21.42
-85.38
-148.47
-205.18
-247.60
-267.87
-261.70
-230.26
-179.46
-117.07
-49.91
17.28
80.74
135.61
175.01
191.46
180.04
141.45
82.76
15.62
-47.47
-96.31
-124.62
-129.79
-112.09
-74.26
-21.99
35.57
86.55
118.62
122.81
96.84
46.69
-14.71
-71.84
-111.89
-128.86
-124.46
-105.66
-80.33
-53.26
-24.60
8.48
48.31
93.55
137.90
171.93
186.35
175.76
140.62
87.39
26.69
-29.49
-70.46
-89.25
-83.60
-56.31
-14.46
32.17
73.39
101.18
111.88
107.17
93.03
77.23
65.75
60.10
56.47
47.64
26.52
-9.91
-58.48
-110.49
-154.36
-179.34
-178.33
-149.41
-96.32
-27.74
43.82
104.40
141.38
146.87
119.81
66.47
-1.24
-68.84
-123.02
-154.66
-160.73
-144.67
-114.86
-82.44
-58.23
-50.04
-60.76
-88.17
-125.68
-164.32
-195.14
-211.04
-208.25
-186.75
-149.79
-102.48
-49.84
4.43
58.16
109.44
154.73
188.08
202.58
193.51
161.59
114.31
64.11
24.48
5.16
9.01
31.49
62.81
91.50
107.99
106.82
86.70
49.43
-1.71
-62.55
-128.28
-192.70
-248.44
-288.11
-306.18
-300.93
-274.78
-233.03
-181.36
-123.79
-62.69
-0.59
57.53
103.65
128.29
124.37
90.81
34.38
-31.61
-91.31
-131.18
-144.05
-130.88
-99.53
-61.36
-26.82
-1.75
13.97
24.99
36.78
51.79
67.48
77.69
76.76
63.55
43.30
25.46
19.21
29.09
53.28
85.73
120.65
156.27
195.28
241.69
296.05
352.51
399.71
425.32
421.69
389.22
335.51
271.23
205.07
141.08
79.49
19.74
-36.47
-84.60
-119.06
-136.31
-136.95
-125.92
-110.73
-98.99
-96.18
-104.19
-120.60
-139.44
-152.98
-154.61
-142.17
-119.89
-97.69
-87.34
-97.06
-127.09
-168.89
-208.29
-231.11
-228.24
-197.90
-144.71
-76.87
-3.24
68.06
130.03
176.53
202.15
202.94
177.30
127.26
59.03
-17.06
-87.76
-139.49
-161.54
-148.99
-104.00
-34.76
47.07
129.26
200.96
253.55
281.26
282.33
260.96
227.77
197.62
184.45
195.35
227.16
267.87
302.21
318.10
311.18
284.72
246.12
202.46
157.56
111.76
63.65
12.50
-39.69
-87.76
-124.59
-143.52
-141.36
-120.41
-88.51
-56.71
-35.32
-30.62
-43.61
-71.36
-109.39
-153.34
-198.91
-240.45
-270.36
-280.64
-266.24
-228.74
-177.57
-127.47
-93.20
-84.12
-100.91
-136.19
-178.20
-215.44
-240.00
-248.72
-242.10
-222.31
-191.68
-151.91
-104.03
-48.88
12.27
77.27
142.25
201.44
248.01
275.54
280.24
262.43
226.98
182.11
136.99
99.20
73.04
58.96
54.30
54.68
55.23
51.60
40.55
20.30
-9.22
-46.13
-86.74
-126.13
-158.88
-180.37
-187.69
-179.99
-158.16
-124.35
-81.63
-34.20
12.22
50.83
74.92
79.29
61.67
23.32
-31.01
-93.69
-155.22
-205.70
-237.07
-245.24
-231.42
-201.81
-165.49
-131.44
-105.91
-91.29
-86.53
-88.59
-93.83
-98.81
-100.47
-96.08
-83.20
-60.37
-27.32
15.00
64.21
116.15
165.00
204.19
228.54
236.38
230.32
216.39
201.20
188.69
178.24
165.50
145.06
114.42
75.75
34.06
-5.28
-38.96
-66.61
-89.57
-108.64
-123.24
-130.27
-125.74
-109.24
-84.48
-57.73
-35.63
-22.96
-21.76
-33.18
-55.69
-84.63
-116.67
-147.88
-172.25
-183.05
-175.81
-151.30
-119.49
-93.06
-81.36
-92.38
-127.17
-177.55
-229.61
-269.29
-287.48
-285.29
-266.66
-232.62
-187.73
-136.40
-80.72
-22.12
37.59
116.22
208.48
278.75
324.19
351.10
361.25
357.75
345.78
331.25
317.93
301.75
277.13
242.74
196.89
143.32
92.75
57.27
43.16
46.84
53.80
49.64
28.95
-8.00
-54.66
-100.75
-137.65
-161.33
-171.77
-171.62
-160.45
-133.19
-86.98
-23.45
50.03
120.63
173.26
195.67
182.10
136.53
71.56
1.93
-59.59
-104.83
-130.83
-138.61
-131.23
-112.74
-87.74
-61.48
-40.50
-30.92
-35.82
-53.47
-77.29
-97.66
-105.25
-93.97
-62.49
-13.71
46.94
113.19
178.66
236.91
281.26
305.59
305.72
281.00
234.59
172.33
100.57
24.82
-50.53
-121.14
-181.68
-225.91
-247.81
-243.37
-211.64
-155.09
-79.46
6.69
92.35
164.85
211.81
224.24
199.86
145.09
74.22
5.65
-43.40
-61.48
-45.47
-0.42
62.54
129.39
186.46
223.42
235.04
221.65
188.19
141.70
88.55
32.35
-26.34
-88.17
-152.05
-213.17
-263.10
-292.85
-296.63
-274.45
-232.14
-178.83
-123.43
-72.06
-27.31
10.54
41.56
64.97
78.99
81.50
71.04
47.54
12.90
-28.83
-71.56
-108.20
-132.34
-139.82
-129.62
-103.71
-65.96
-21.18
25.15
66.98
98.08
113.27
110.21
90.48
59.35
24.03
-8.65
-33.61
-47.73
-49.30
-38.03
-15.96
11.36
35.23
46.41
39.51
16.69
-11.71
-30.86
-28.11
0.77
48.87
100.58
138.15
149.28
132.07
95.50
55.24
27.15
21.30
38.88
72.78
111.32
143.11
160.99
163.76
154.89
139.37
120.62
98.73
70.98
34.00
-13.46
-68.66
-124.66
-172.11
-202.57
-212.07
-203.12
-183.88
-164.46
-151.95
-146.49
-140.98
-125.01
-91.50
-42.02
11.78
53.37
69.42
57.16
26.15
-6.90
-26.76
-27.32
-13.39
3.41
12.50
10.15
0.54
-8.03
-9.38
-3.69
2.91
2.78
-7.90
-26.09
-43.09
-48.85
-36.84
-7.08
33.94
76.05
109.29
127.16
128.54
117.51
101.55
88.67
84.24
89.55
101.82
116.17
128.31
136.12
139.74
140.01
136.73
127.70
109.78
80.72
40.53
-8.51
-62.92
-119.37
-174.93
-226.29
-268.87
-297.07
-305.72
-292.07
-257.27
-206.38
-146.94
-86.99
-32.98
10.72
41.70
58.53
59.96
44.61
11.39
-39.48
-105.03
-178.55
-249.90
-307.39
-341.23
-346.65
-325.31
-284.34
-233.00
-178.95
-125.77
-73.20
-19.18
37.03
93.06
143.77
183.69
209.79
222.84
226.57
225.31
221.90
217.38
212.40
209.41
212.72
226.88
253.39
288.12
321.55
342.18
340.94
314.62
266.46
202.69
130.77
57.63
-10.56
-67.74
-108.39
-129.15
-130.72
-117.37
-97.63
-78.62
-64.07
-53.72
-45.12
-36.39
-28.50
-25.37
-30.99
-51.02
-87.05
-136.89
-194.69
-251.90
-299.12
-328.44
-335.44
-318.60
-283.92
-238.32
-188.45
-138.36
-88.46
-36.42
19.80
67.86
114.05
147.62
159.52
145.25
107.41
55.50
1.89
-43.30
-75.64
-94.89
-106.76
-114.52
-117.87
-113.70
-98.17
-70.26
-32.88
9.18
52.89
95.13
134.53
168.27
190.26
194.32
176.22
137.37
86.63
37.97
4.26
-6.91
4.42
31.93
70.54
117.67
172.86
236.08
303.19
366.08
413.56
436.17
428.91
396.11
346.40
288.09
227.98
169.46
117.04
75.20
48.84
19.95
-18.29
-62.45
-104.95
-129.84
-140.55
-138.02
-130.08
-118.57
-101.81
-83.11
-66.23
-60.46
-69.90
-96.00
-134.86
-181.49
-229.90
-274.47
-307.27
-320.49
-309.86
-275.43
-223.99
-163.76
-102.73
-44.58
10.42
64.42
117.35
163.90
195.62
203.71
185.12
142.69
84.00
17.11
-51.16
-115.77
-172.68
-216.62
-242.11
-244.58
-223.49
-183.40
-132.75
-80.04
-30.14
16.55
62.83
110.96
159.86
204.05
235.48
246.52
232.73
194.44
136.52
67.46
-2.25
-61.82
-101.78
-115.70
-101.64
-62.86
-7.30
54.22
110.39
151.83
172.80
171.90
152.04
119.40
81.35
44.04
10.31
-20.89
-53.06
-89.24
-129.20
-168.35
-198.72
-212.15
-203.73
-174.31
-130.40
-81.81
-37.68
-3.23
21.36
39.33
53.77
64.53
67.37
56.63
29.63
-9.57
-49.78
-76.57
-78.44
-52.38
-5.26
49.07
96.00
125.82
136.05
130.28
114.04
91.31
63.06
28.68
-11.35
-53.62
-91.80
-118.91
-130.08
-124.46
-105.10
-77.24
-45.75
-13.74
17.45
46.94
72.49
89.67
92.50
75.88
38.37
-15.49
-75.24
-127.07
-158.41
-162.80
-142.30
-106.64
-68.85
-39.45
-22.48
-14.37
-7.02
7.05
30.31
58.56
83.01
94.53
88.00
63.89
27.45
-14.34
-55.85
-94.57
-130.28
-163.17
-191.69
-211.68
-218.36
-207.88
-179.70
-137.21
-86.88
-36.13
8.64
44.15
71.74
95.13
120.08
150.55
185.52
217.63
235.31
227.84
191.59
135.01
73.99
29.34
16.88
40.52
90.77
149.23
196.46
219.47
216.81
191.06
149.55
97.90
38.67
-26.75
-94.69
-157.04
-202.89
-220.13
-207.52
-169.45
-116.64
-60.94
-10.01
35.49
80.29
113.89
155.60
197.71
230.85
245.62
236.71
204.45
153.63
90.84
22.30
-43.92
-104.45
-152.44
-180.57
-183.07
-158.04
-108.89
-43.95
25.23
88.54
133.97
155.11
150.48
123.30
80.02
27.78
-28.11
-85.16
-141.42
-196.50
-246.01
-282.87
-299.95
-293.45
-264.93
-220.43
-167.26
-110.17
-51.91
6.89
64.20
114.54
149.75
162.25
148.80
112.36
61.13
4.43
-50.04
-97.92
-137.29
-166.57
-182.77
-181.86
-160.73
-119.57
-63.16
-0.05
59.76
107.57
137.80
148.72
141.87
121.11
91.60
58.77
27.32
0.36
-20.95
-36.96
-48.39
-55.18
-55.93
-48.47
-31.20
-4.68
27.97
61.94
92.79
118.07
137.72
152.77
163.35
167.28
160.63
139.92
104.68
58.82
9.78
-34.29
-67.66
-88.97
-100.90
-108.18
-114.99
-123.17
-131.86
-138.30
-138.99
-130.49
-109.91
-75.29
-26.40
34.17
100.33
162.82
211.00
235.38
230.27
195.45
136.38
63.10
-11.78
-75.52
-117.61
-131.87
-117.88
-81.05
-31.15
20.44
64.08
94.34
110.64
115.98
114.56
109.79
103.16
94.26
81.33
61.97
34.10
-2.96
-47.23
-93.41
-133.33
-157.76
-158.95
-132.83
-80.10
-6.05
80.42
168.19
245.59
302.24
331.06
330.16
303.45
259.71
209.79
163.15
125.28
96.54
73.35
50.57
24.21
-6.29
-37.20
-60.79
-68.23
-53.12
-15.09
38.66
94.90
138.78
158.98
151.22
118.98
70.23
13.40
-45.99
-105.81
-165.66
-223.86
-276.20
-316.97
-340.97
-347.06
-338.83
-322.70
-304.49
-286.71
-268.06
-245.37
-217.70
-185.76
-154.45
-128.87
-110.79
-97.03
-80.75
-55.19
-17.48
27.76
75.31
116.38
144.32
156.48
154.09
140.46
118.90
91.58
56.38
16.56
-28.68
-79.67
-135.45
-192.69
-245.76
-287.42
-311.47
-318.69
-306.26
-279.94
-246.81
-211.90
-175.82
-135.44
-86.82
-6.41
67.51
130.24
170.66
181.14
160.52
114.52
53.56
-11.02
-69.70
-119.26
-150.69
-161.36
-150.14
-118.16
-68.56
-6.36
62.18
130.32
189.57
239.24
275.66
295.13
292.83
265.65
214.23
143.78
62.83
-18.78
-86.72
-131.78
-149.55
-142.15
-115.07
-75.10
-30.10
10.21
36.96
46.85
39.15
15.08
-25.19
-79.63
-143.11
-207.63
-265.31
-307.99
-328.43
-325.26
-293.22
-242.97
-196.93
-173.11
-164.81
-161.04
-154.76
-142.05
-122.09
-96.09
-67.52
-37.53
-4.49
33.87
76.48
121.29
166.45
210.63
253.10
292.39
328.23
361.01
389.87
410.15
416.41
404.98
375.20
329.95
274.14
214.68
158.69
111.08
72.55
41.61
16.81
-1.88
-12.46
-11.95
2.62
31.98
72.64
116.22
152.06
170.88
167.69
143.37
103.82
58.12
15.90
-14.84
-28.88
-23.28
3.44
51.27
117.91
197.41
279.73
351.88
401.13
418.91
403.72
361.76
304.55
244.59
191.19
148.03
113.35
82.32
49.83
12.45
-31.12
-80.46
-133.93
-188.57
-239.82
-281.92
-309.43
-319.28
-312.65
-294.77
-272.88
-252.70
-235.44
-217.14
-190.87
-150.79
-95.98
-32.14
30.03
78.81
105.92
109.51
94.56
70.49
47.39
32.20
26.46
26.48
25.32
15.91
-6.28
-41.40
-85.22
-130.38
-168.55
-192.80
-199.17
-187.32
-160.11
-122.57
-80.74
-40.59
-7.49
13.98
19.99
7.86
-23.30
-71.49
-130.82
-191.88
-243.38
-275.32
-282.14
-264.86
-230.33
-188.32
-147.53
-112.84
-85.30
-64.00
-48.90
-41.97
-46.47
-64.66
-95.79
-135.65
-178.07
-217.15
-249.00
-272.13
-286.71
-293.36
-292.40
-283.82
-267.66
-244.42
-215.21
-181.63
-145.63
-109.31
-74.66
-43.11
-15.22
9.69
33.66
59.59
90.49
128.59
174.47
226.71
281.74
334.64
380.53
416.24
441.58
459.29
473.69
488.22
503.21
515.14
517.80
505.01
473.38
424.06
362.65
297.70
238.18
191.02
159.36
141.58
131.72
121.09
101.28
67.88
23.21
-23.34
-58.31
-69.74
-52.96
-13.19
35.83
77.55
98.95
94.55
66.46
21.30
-33.40
-90.99
-145.40
-190.60
-221.35
-235.59
-236.55
-232.00
-230.76
-237.62
-250.32
-260.41
-257.50
-234.06
-188.00
-122.48
-43.92
39.68
119.31
185.02
227.38
240.07
222.84
182.19
128.79
72.69
18.73
-34.65
-92.45
-157.78
-227.59
-292.05
-338.27
-355.99
-342.11
-301.45
-243.91
-180.41
-120.05
-69.21
-32.17
-11.56
-7.10
-14.16
-23.64
-24.81
-10.15
20.41
58.98
93.60
114.70
120.32
116.74
114.16
120.22
135.19
151.99
160.49
153.53
130.91
99.38
68.77
46.78
35.42
30.95
26.78
17.25
0.15
-22.92
-48.02
-70.67
-87.35
-95.79
-95.14
-86.05
-70.66
-52.15
-33.79
-17.51
-2.94
12.61
33.12
62.47
103.18
155.69
217.89
285.12
350.42
405.48
442.44
455.95
444.63
411.29
362.03
304.79
247.93
198.97
163.49
143.80
137.96
139.58
139.70
129.79
105.06
66.30
19.01
-29.49
-73.45
-110.54
-141.81
-169.90
-197.50
-226.35
-256.93
-288.17
-316.55
-335.92
-338.62
-318.40
-274.25
-212.96
-148.58
-98.15
-75.35
-84.95
-120.69
-167.44
-206.73
-223.11
-209.13
-167.34
-108.90
-49.96
-6.37
11.14
0.08
-33.50
-77.57
-118.84
-147.17
-158.17
-153.21
-136.92
-114.37
-89.00
-62.50
-36.07
-11.72
7.05
16.01
11.87
-5.84
-33.53
-64.21
-89.35
-101.35
-95.75
-72.13
-33.23
16.81
74.08
135.47
197.86
257.29
308.67
346.81
368.11
371.81
359.97
336.34
304.55
266.93
224.50
177.67
127.44
75.98
26.70
-16.61
-51.06
-75.84
-92.95
-106.88
-123.27
-147.01
-180.30
-222.15
-269.08
-316.51
-359.78
-394.68
-417.25
-423.65
-410.60
-376.25
-321.47
-250.73
-172.21
-96.85
-35.89
2.36
15.40
7.68
-10.72
-27.91
-34.49
-26.94
-8.09
15.04
34.94
46.88
50.29
48.14
45.14
46.08
54.97
74.86
107.62
153.15
208.48
267.08
319.82
356.99
371.16
359.39
323.89
270.98
209.07
146.38
89.33
41.71
4.57
-23.33
-44.69
-62.78
-80.46
-99.57
-120.91
-144.41
-169.50
-195.17
-219.81
-241.17
-256.80
-264.89
-265.02
-258.12
-245.71
-228.86
-207.34
-179.83
-144.70
-101.31
-51.01
2.53
53.49
94.82
119.62
122.85
102.96
62.98
10.28
-45.12
-93.34
-127.51
-145.44
-149.45
-144.38
-134.88
-123.29
-109.10
-90.03
-63.92
-30.40
8.75
50.44
92.07
132.76
173.41
215.17
257.40
296.27
325.21
337.43
328.96
300.74
258.22
208.74
158.09
108.21
57.37
2.63
-57.24
-119.79
-179.34
-229.15
-264.01
-281.82
-283.44
-271.54
-248.97
-217.81
-179.15
-133.45
-80.93
-22.09
41.73
107.51
170.05
222.38
257.34
269.81
258.91
228.35
185.04
136.26
86.89
38.09
-11.98
-65.70
-123.29
-181.29
-233.01
-270.71
-288.42
-284.02
-259.59
-220.08
-171.09
-116.76
-58.85
2.60
67.81
135.63
202.74
263.82
312.85
344.83
356.98
349.57
325.46
289.12
245.25
197.37
147.26
94.99
39.84
-18.34
-77.78
-134.37
-182.13
-214.61
-226.66
-215.85
-183.25
-133.06
-71.66
-6.35
55.48
106.91
141.76
154.98
143.41
106.94
49.61
-19.94
-89.40
-145.32
-176.66
-178.22
-152.41
-108.05
-56.67
-7.78
34.37
70.93
105.89
142.43
180.47
216.70
246.60
266.77
275.96
274.54
263.05
241.50
209.62
167.95
118.84
66.13
13.90
-35.35
-81.86
-128.60
-179.73
-238.21
-303.29
-369.53
-427.54
-467.04
-480.67
-466.85
-430.38
-380.17
-325.48
-272.47
-222.77
-174.14
-122.90
-66.23
-3.92
60.99
122.54
172.97
204.66
212.49
196.27
161.60
118.64
78.89
51.38
40.11
43.81
57.91
77.53
99.67
123.68
149.98
178.25
206.38
230.78
247.82
255.64
255.38
250.85
246.67
245.92
248.27
249.77
244.57
227.48
196.43
152.96
100.99
44.78
-12.60
-69.19
-123.02
-170.95
-208.69
-232.20
-239.75
-233.26
-217.81
-199.48
-182.82
-169.25
-157.35
-144.35
-128.08
-108.24
-86.48
-65.82
-49.81
-41.75
-43.95
-56.81
-77.98
-102.06
-121.37
-127.92
-115.96
-84.22
-36.43
20.04
76.74
126.69
165.81
192.79
208.21
213.56
210.83
202.49
191.36
180.07
170.22
161.78
153.22
142.47
128.18
110.44
90.58
70.02
48.98
25.85
-2.41
-38.74
-84.12
-136.53
-190.83
-240.02
-277.17
-297.10
-297.66
-280.03
-248.27
-208.12
-165.37
-124.28
-86.56
-51.55
-17.27
17.79
53.17
85.99
111.83
126.42
127.29
114.45
89.97
56.94
18.73
-21.07
-58.32
-88.17
-105.71
-107.35
-92.26
-63.22
-26.11
11.74
43.73
65.57
75.78
75.16
65.75
50.10
31.37
13.43
0.86
-2.07
7.14
27.53
54.36
80.26
97.69
101.59
90.83
67.91
37.18
2.68
-33.07
-69.08
-104.43
-136.74
-161.75
-174.29
-170.36
-149.17
-113.99
-71.37
-28.92
7.25
34.37
53.19
66.55
76.85
84.08
85.24
75.76
52.25
15.01
-30.87
-76.74
-113.28
-133.75
-136.06
-122.94
-100.18
-74.07
-49.31
-28.10
-10.49
4.69
18.55
31.58
43.57
53.77
61.33
65.26
64.48
58.03
45.49
27.95
8.51
-8.13
-17.07
-15.32
-3.66
13.11
27.51
31.96
21.58
-4.01
-40.41
-79.85
-113.46
-133.91
-137.33
-124.27
-99.30
-69.16
-40.29
-16.44
2.07
17.77
33.75
51.77
70.93
87.81
98.03
98.20
87.29
66.60
38.86
6.69
-27.24
-60.17
-88.93
-109.88
-119.37
-114.80
-95.88
-65.40
-29.53
4.79
31.48
46.35
47.84
37.40
19.34
-0.17
-14.67
-20.49
-16.43
-4.81
8.22
14.50
7.15
-16.20
-52.07
-92.25
-128.19
-151.74
-158.08
-147.28
-123.55
-92.59
-59.07
-25.67
14.93
59.37
98.48
124.62
135.96
135.13
126.69
115.47
105.21
97.67
91.10
83.83
75.01
64.50
52.79
40.92
30.33
22.22
16.95
12.82
8.59
3.64
-2.25
-8.96
-16.07
-22.71
-27.87
-30.66
-31.38
-30.04
-26.78
-22.06
-16.39
-10.42
-4.44
1.71
8.47
15.83
23.52
30.70
35.78
37.47
34.78
27.87
18.33
8.72
1.47
-1.80
-1.21
1.46
4.41
5.96
5.85
5.56
7.78
15.51
31.45
57.98
91.77
130.60
170.89
207.18
232.66
241.18
229.90
201.25
162.77
124.25
94.38
76.35
67.43
61.41
52.73
39.70
25.01
13.24
7.21
6.26
5.87
0.73
-11.73
-29.45
-46.43
-56.09
-54.82
-43.98
-28.70
-15.49
-8.79
-9.14
-13.53
-17.64
-18.32
-15.21
-10.51
-7.32
-8.04
-13.30
-22.08
-32.49
-42.81
-52.05
-60.04
-67.09
-73.63
-80.22
-87.31
-95.20
-103.89
-113.16
-122.70
-132.22
-141.18
-148.29
-151.39
-148.00
-136.59
-117.72
-93.97
-68.37
-42.45
-15.40
14.82
48.68
82.91
110.71
124.52
120.09
99.09
68.67
38.12
14.75
1.19
-4.60
-7.16
-10.62
-16.73
-24.53
-31.33
-34.63
-33.62
-30.02
-27.38
-29.46
-38.24
-52.81
-69.66
-84.28
-92.93
-93.63
-85.95
-70.15
-46.63
-16.49
17.63
51.00
77.62
92.20
92.34
79.65
59.11
37.07
18.83
7.02
1.26
-1.03
-3.12
-7.66
-15.86
-27.27
-40.36
-53.22
-64.31
-73.02
-79.67
-85.13
-90.54
-97.13
-106.25
-119.20
-136.78
-158.34
-181.05
-199.98
-209.61
-206.19
-189.75
-164.54
-137.36
-114.56
-99.32
-90.63
-84.55
-76.90
-65.82
-52.74
-41.19
-34.25
-32.18
-31.72
-27.27
-13.59
11.65
47.09
88.77
132.49
175.95
219.39
264.29
311.12
357.26
396.75
422.05
426.87
408.35
367.77
309.74
240.98
169.73
105.12
56.55
32.39
37.54
71.05
124.98
185.96
238.93
272.39
281.07
266.46
234.96
194.89
153.64
116.04
84.35
59.20
41.61
31.95
29.15
30.63
32.90
32.77
28.09
18.39
5.06
-7.86
-16.90
-21.31
-23.28
-26.50
-34.17
-47.54
-65.05
-82.46
-92.57
-89.87
-73.51
-47.42
-17.67
10.34
33.22
49.72
46.97
19.47
-25.92
-74.23
-112.93
-136.28
-143.86
-138.56
-125.38
-110.13
-96.28
-86.52
-83.94
-91.20
-109.16
-136.14
-168.77
-203.77
-235.22
-257.51
-266.51
-261.07
-242.25
-212.63
-175.29
-133.56
-90.47
-45.64
-2.34
36.19
68.09
92.94
109.52
115.93
111.08
96.22
75.04
52.08
33.48
19.15
7.58
-3.33
-14.87
-26.74
-37.28
-44.39
-46.96
-44.58
-38.40
-30.26
-23.06
-19.67
-21.85
-29.65
-41.26
-54.02
-64.70
-71.13
-72.40
-69.24
-62.78
-53.33
-39.86
-20.41
6.61
41.66
83.72
131.36
183.32
238.75
296.40
352.99
402.48
437.04
449.83
437.86
403.73
354.52
298.82
243.48
191.68
143.23
96.49
50.36
5.15
-37.91
-77.83
-114.60
-148.91
-181.24
-210.99
-236.26
-254.43
-263.16
-261.19
-248.45
-225.69
-193.89
-154.01
-107.30
-55.89
-3.28
45.91
86.81
115.70
130.86
132.80
123.39
104.88
79.25
48.33
14.45
-19.10
-48.46
-70.66
-84.90
-93.22
-99.58
-107.74
-119.10
-131.79
-141.51
-143.65
-135.46
-117.24
-91.92
-63.58
-35.79
-10.91
9.78
25.34
34.81
37.62
34.50
28.14
22.68
22.29
29.09
41.96
56.61
67.23
68.86
59.23
39.56
13.70
-13.47
-37.98
-57.79
-72.99
-85.15
-96.07
-106.90
-117.67
-127.40
-134.84
-139.23
-140.63
-139.83
-138.05
-136.60
-136.48
-138.07
-140.53
-141.17
-135.58
-118.78
-87.38
-41.79
13.02
68.71
116.49
150.02
167.00
168.53
157.18
135.35
104.83
67.61
27.22
-10.91
-40.36
-55.54
-53.51
-35.02
-4.24
32.44
68.13
96.81
114.45
119.48
112.84
97.46
77.69
58.43
44.32
38.95
43.80
57.40
75.29
90.89
97.40
90.17
68.20
34.25
-6.36
-47.51
-84.01
-111.97
-128.80
-132.94
-123.65
-101.72
-70.08
-33.76
1.05
28.44
44.32
46.94
36.94
17.05
-8.30
-33.30
-51.46
-57.18
-47.21
-21.96
14.47
55.54
94.39
125.38
144.90
151.17
143.26
120.56
82.87
31.41
-29.77
-93.04
-147.86
-182.89
-189.63
-165.77
-116.98
-55.87
1.95
42.98
60.37
55.59
36.94
15.50
0.73
-2.57
5.28
20.52
38.50
55.78
71.08
84.86
98.04
110.58
121.06
127.04
126.23
117.64
102.16
82.42
61.68
42.46
25.62
10.09
-6.42
-26.14
-50.13
-77.94
-107.98
-138.57
-169.05
-199.58
-230.26
-259.62
-283.80
-297.14
-294.70
-275.06
-242.02
-203.75
-169.15
-143.39
-124.95
-106.29
-78.06
-34.63
22.01
82.33
133.18
163.36
167.74
148.04
110.43
61.94
7.99
-47.78
-101.80
-148.96
-182.63
-196.80
-188.70
-160.48
-118.63
-71.15
-24.36
18.84
58.50
95.68
130.23
160.24
183.33
198.56
207.72
214.76
224.02
237.89
255.65
273.65
286.78
290.12
280.42
256.63
219.88
172.84
118.93
61.20
1.32
-60.57
-125.12
-192.21
-259.56
-322.28
-373.95
-408.55
-422.44
-415.41
-390.37
-351.95
-305.06
-253.60
-200.02
-145.65
-90.87
-35.13
23.00
85.59
153.99
227.17
300.43
365.78
414.03
438.01
435.51
409.96
369.20
322.28
276.52
235.84
200.64
168.73
136.44
99.91
56.39
5.91
-47.68
-96.88
-132.30
-145.73
-132.97
-95.11
-38.08
29.15
96.83
156.14
200.27
224.99
229.10
214.39
184.95
145.86
101.60
54.71
5.67
-45.92
-99.27
-151.17
-195.88
-227.13
-240.97
-238.17
-224.51
-208.68
-198.51
-197.21
-201.66
-203.66
-193.82
-166.40
-122.45
-69.83
-20.19
15.83
32.56
30.70
15.85
-4.74
-25.45
-44.03
-60.98
-77.43
-93.34
-106.79
-114.81
-115.07
-106.87
-90.89
-67.82
-37.22
2.39
51.76
108.85
167.39
217.75
249.88
256.78
236.72
193.27
133.19
64.04
-7.09
-73.48
-128.26
-164.88
-179.15
-171.68
-149.10
-122.62
-104.25
-102.47
-119.27
-150.08
-185.95
-217.17
-236.07
-238.47
-223.66
-193.26
-150.16
-97.69
-39.51
20.27
76.59
123.85
156.82
172.10
169.26
150.97
121.96
87.25
50.75
14.81
-19.03
-49.04
-72.70
-87.32
-91.29
-85.13
-71.85
-56.13
-43.16
-37.33
-41.30
-55.21
-76.57
-100.68
-121.44
-133.07
-131.68
-116.42
-89.55
-55.28
-17.86
20.16
58.57
98.49
140.37
182.27
219.36
245.22
254.35
244.38
216.80
175.78
126.24
72.12
16.38
-37.77
-85.58
-120.86
-138.28
-136.10
-118.07
-92.57
-69.35
-55.17
-51.09
-52.64
-52.37
-43.57
-22.88
8.98
48.27
89.75
127.98
158.02
175.76
178.42
165.22
137.87
100.54
59.02
19.53
-12.44
-33.08
-40.58
-35.28
-19.85
1.01
21.17
34.37
36.16
25.32
4.48
-20.43
-42.05
-54.01
-52.65
-37.66
-11.20
23.70
64.21
107.63
150.16
185.98
207.51
207.80
183.72
138.41
81.32
25.31
-17.96
-42.24
-48.39
-42.65
-32.55
-23.21
-15.70
-8.51
-1.06
3.90
0.42
-17.35
-50.65
-93.08
-131.59
-151.63
-143.82
-108.59
-55.86
-0.15
46.16
77.46
95.14
103.97
107.50
105.38
94.17
70.65
35.07
-7.95
-51.33
-88.63
-116.44
-134.32
-142.99
-142.28
-130.49
-105.69
-67.85
-20.02
32.01
81.63
123.83
156.64
180.87
198.22
209.33
212.97
206.88
189.85
163.44
132.23
102.08
77.42
59.05
43.57
25.12
-1.82
-39.74
-87.06
-139.03
-189.74
-234.29
-269.59
-293.93
-306.05
-304.51
-287.99
-256.25
-210.93
-155.39
-93.57
-28.63
37.41
102.82
164.68
217.98
256.25
273.64
267.28
238.39
191.76
133.93
71.42
9.76
-46.62
-94.15
-130.28
-154.05
-166.65
-171.15
-171.13
-168.93
-164.34
-154.64
-136.00
-105.34
-62.07
-8.82
49.17
105.19
152.61
186.00
202.15
200.58
183.79
156.73
125.67
96.22
71.41
50.82
31.36
9.43
-16.60
-45.16
-72.35
-94.29
-109.52
-119.89
-129.26
-140.88
-155.29
-169.71
-179.30
-179.24
-166.59
-141.11
-105.16
-63.22
-21.23
14.22
36.91
42.61
30.53
3.90
-30.69
-65.21
-92.72
-109.27
-114.49
-110.71
-101.32
-89.27
-76.20
-62.60
-48.47
-33.84
-19.04
-4.22
11.19
28.76
50.56
77.93
110.18
144.09
174.79
198.07
212.60
220.68
227.06
235.86
247.55
257.85
259.20
244.17
209.11
155.88
91.29
24.49
-36.26
-85.80
-122.49
-147.20
-161.48
-166.42
-162.29
-149.19
-127.68
-99.09
-65.14
-27.37
12.96
54.33
93.98
127.46
149.33
155.20
143.74
117.59
82.34
44.27
8.21
-23.40
-50.00
-71.82
-89.03
-101.69
-109.98
-114.34
-114.94
-110.96
-100.24
-79.56
-45.62
3.47
66.86
140.17
215.44
282.16
329.55
349.34
338.40
300.04
243.12
179.34
119.58
70.68
34.01
6.15
-19.04
-47.91
-84.95
-131.47
-185.26
-240.98
-291.39
-329.39
-349.95
-351.60
-336.43
-308.93
-273.98
-235.05
-193.22
-147.41
-95.53
-36.39
28.59
94.51
153.36
195.99
214.99
207.47
176.57
130.72
81.09
38.34
10.01
-0.57
6.04
26.54
55.92
88.22
117.19
137.28
144.91
139.71
125.00
106.83
92.17
86.23
90.33
101.26
112.53
117.22
111.17
95.10
74.36
56.45
47.19
47.95
54.88
60.79
58.35
42.89
13.33
-28.58
-79.92
-137.55
-198.07
-256.77
-307.34
-342.59
-356.46
-346.16
-313.16
-262.73
-202.30
-139.37
-80.10
-28.92
11.19
38.15
50.14
45.62
23.72
-14.57
-65.10
-119.96
-168.34
-198.87
-203.10
-178.10
-127.42
-59.49
15.33
87.86
151.87
204.11
243.35
269.33
282.38
283.73
275.91
262.49
247.19
232.64
219.43
206.09
190.07
169.17
142.74
111.94
78.89
45.45
12.03
-22.75
-61.84
-108.46
-164.37
-228.12
-294.09
-353.03
-394.43
-409.97
-396.60
-357.82
-302.22
-239.87
-178.28
-120.12
-63.82
-6.59
52.24
109.37
158.30
191.92
205.34
197.20
169.24
124.95
68.84
6.71
-53.61
-102.54
-130.86
-133.07
-110.26
-70.55
-26.29
10.73
33.82
43.38
45.49
48.38
58.39
77.62
103.98
133.00
160.04
181.92
197.13
205.12
205.38
196.62
177.09
145.45
101.79
48.01
-12.28
-74.69
-134.97
-189.53
-235.58
-270.98
-294.06
-303.80
-300.27
-285.04
-261.20
-232.90
-204.10
-177.52
-153.92
-132.22
-109.97
-84.27
-52.75
-14.37
29.85
76.59
120.62
155.89
177.23
182.06
171.32
149.32
122.22
96.05
75.00
60.51
51.56
45.86
41.03
35.71
30.17
26.22
26.65
34.27
50.83
76.16
108.01
142.22
173.62
197.28
209.66
209.22
196.57
173.85
143.92
109.43
72.32
33.66
-5.91
-45.57
-83.91
-118.59
-146.87
-166.13
-174.73
-172.64
-161.70
-145.13
-126.41
-108.26
-92.08
-77.89
-64.70
-50.79
-34.07
-12.50
15.05
47.75
81.98
111.56
129.01
127.85
105.01
62.20
5.85
-54.70
-109.97
-152.99
-180.59
-193.23
-193.49
-184.12
-166.74
-141.47
-107.57
-64.43
-12.34
47.27
111.69
176.86
237.35
286.84
319.28
330.56
319.99
290.59
247.88
197.85
144.96
91.22
36.62
-19.57
-77.48
-136.05
-192.83
-244.51
-287.39
-317.81
-332.79
-330.59
-311.26
-276.71
-230.55
-177.19
-120.57
-63.23
-6.30
49.70
103.26
151.11
188.40
210.28
213.84
199.36
170.13
131.23
88.15
45.85
8.67
-19.73
-36.80
-42.10
-38.09
-29.91
-23.81
-24.58
-33.48
-47.37
-59.80
-63.17
-51.51
-22.93
19.11
65.97
106.00
128.10
125.86
100.67
61.68
22.73
-3.26
-9.73
0.83
18.37
30.07
25.78
1.62
-39.76
-91.36
-144.97
-193.20
-230.25
-251.75
-254.54
-237.38
-201.74
-152.08
-94.65
-35.72
20.08
69.90
111.48
141.57
155.28
147.49
115.32
60.85
-7.97
-78.95
-138.64
-176.04
-184.78
-163.73
-116.55
-51.06
21.26
86.48
130.88
145.25
128.53
89.35
43.46
8.26
-3.33
13.46
55.44
114.54
181.36
247.16
304.10
344.74
362.59
353.82
319.28
264.90
199.76
132.65
68.75
8.52
-50.47
-110.17
-169.00
-221.10
-258.15
-272.94
-262.60
-229.84
-181.63
-125.94
-68.46
-10.89
47.86
108.64
169.24
223.31
262.15
278.28
268.70
235.93
186.28
126.91
63.65
0.92
-56.75
-103.40
-132.28
-138.66
-123.05
-92.36
-57.85
-30.54
-16.52
-14.74
-18.43
-19.05
-10.46
8.67
35.23
63.82
89.19
107.89
118.75
122.38
120.38
114.32
105.03
92.19
74.28
49.09
14.60
-29.85
-82.80
-140.50
-197.50
-247.71
-285.60
-307.42
-311.79
-299.60
-273.53
-237.22
-194.71
-149.99
-106.54
-66.97
-32.66
-4.01
18.86
34.86
41.17
33.76
9.34
-32.05
-85.30
-140.62
-186.60
-214.25
-220.32
-207.83
-183.72
-155.13
-126.44
-98.29
-68.81
-35.63
2.49
45.52
92.81
143.48
196.03
247.02
290.27
317.56
321.12
296.99
247.69
182.15
112.80
50.86
1.99
-35.35
-68.29
-105.20
-151.17
-205.15
-260.24
-306.51
-335.08
-341.19
-325.39
-292.68
-250.26
-205.15
-162.90
-126.91
-98.35
-76.36
-58.41
-40.24
-16.62
17.29
63.96
121.34
181.98
234.32
266.25
269.86
245.19
201.01
151.88
112.47
91.98
91.05
102.95
117.99
128.80
133.83
137.54
147.67
170.95
209.46
259.02
310.37
352.47
376.84
380.38
365.88
339.79
308.64
275.93
241.41
202.69
158.07
108.39
56.71
6.20
-42.16
-90.07
-140.09
-192.76
-244.53
-288.16
-315.33
-319.92
-300.18
-258.83
-201.57
-135.44
-67.79
-5.83
43.97
76.89
91.11
88.20
72.58
49.88
25.47
3.51
-13.05
-22.18
-22.88
-15.52
-2.38
12.52
24.81
32.03
35.05
38.10
46.71
64.92
93.23
128.07
163.12
191.47
207.88
209.99
198.46
176.11
146.60
113.15
77.80
40.99
1.58
-42.47
-92.95
-149.65
-208.87
-263.29
-303.51
-321.05
-311.53
-276.60
-223.73
-163.68
-106.77
-59.60
-23.96
2.32
22.73
39.70
53.31
61.80
62.93
55.23
38.51
13.62
-18.19
-55.39
-95.93
-136.46
-172.28
-198.22
-210.40
-207.89
-193.08
-170.56
-144.92
-118.61
-91.20
-60.07
-21.96
25.50
82.75
147.93
216.84
283.18
339.39
378.13
394.30
386.76
358.83
316.95
268.01
216.87
165.10
111.85
56.20
-0.57
-54.09
-98.18
-127.49
-140.19
-138.88
-129.44
-118.11
-108.84
-102.04
-95.55
-86.95
-75.52
-62.81
-51.62
-44.13
-40.62
-39.70
-39.51
-39.07
-38.41
-37.77
-36.24
-31.10
-18.60
4.28
37.79
78.67
120.92
157.81
183.98
196.87
196.59
184.82
163.75
135.42
101.95
65.86
29.78
-4.19
-35.47
-65.38
-96.72
-132.62
-175.37
-225.61
-282.02
-341.26
-398.05
-445.78
-477.48
-487.71
-474.20
-438.79
-386.89
-325.69
-262.07
-201.04
-145.43
-96.30
-53.74
-17.28
13.93
40.97
64.70
85.05
100.53
108.50
106.40
93.37
71.29
44.74
19.54
0.84
-8.70
-9.41
-4.06
3.38
9.15
10.95
8.41
3.06
-2.06
-3.31
2.74
18.84
46.82
87.35
139.73
200.98
265.07
322.99
364.30
379.68
364.07
318.61
250.56
171.36
93.55
27.86
-18.47
-42.32
-44.41
-28.68
-1.57
28.89
54.53
68.80
68.38
54.04
30.00
2.28
-23.73
-45.17
-62.23
-76.69
-89.75
-100.06
-103.47
-94.99
-71.55
-34.20
11.59
57.72
96.61
123.67
138.43
143.95
144.93
145.86
149.71
157.46
168.35
180.57
191.96
200.44
204.45
202.90
195.21
181.11
160.60
134.03
102.13
66.15
27.38
-13.41
-56.62
-103.40
-154.30
-207.16
-255.79
-290.72
-302.51
-286.19
-244.35
-187.11
-128.32
-80.10
-48.54
-32.82
-27.98
-29.43
-35.89
-49.41
-72.58
-105.07
-142.09
-175.91
-199.37
-209.19
-206.97
-197.45
-184.77
-169.71
-149.13
-118.18
-74.06
-18.70
40.97
95.65
137.25
161.67
169.18
163.22
148.55
130.16
113.40
103.82
106.23
122.66
150.45
181.79
205.85
212.60
196.78
160.08
110.31
58.27
13.63
-18.07
-36.27
-44.12
-45.96
-45.10
-42.49
-37.12
-27.27
-12.06
7.64
29.22
49.01
63.28
68.92
63.90
47.36
19.79
-16.84
-59.16
-102.74
-142.60
-173.79
-191.90
-193.60
-177.51
-145.00
-100.62
-51.67
-6.66
26.85
44.26
44.95
31.79
9.69
-16.23
-41.95
-65.08
-84.90
-102.08
-118.57
-137.36
-161.85
-194.51
-235.15
-279.75
-320.82
-349.77
-360.64
-353.32
-334.15
-313.24
-299.73
-297.38
-303.09
-308.98
-306.84
-292.27
-265.93
-231.77
-193.81
-153.58
-109.90
-61.03
-7.22
48.04
99.00
140.61
171.77
196.69
223.68
261.08
312.35
372.96
430.65
469.59
476.48
445.85
382.36
299.17
213.27
140.37
91.33
70.98
78.78
109.89
156.26
207.47
252.22
280.10
283.81
260.48
211.77
142.89
62.07
-20.86
-95.14
-150.35
-178.28
-175.10
-142.58
-87.98
-21.86
45.32
105.53
154.50
190.95
215.07
227.00
226.36
212.74
186.42
149.51
104.92
56.22
7.21
-38.28
-76.92
-106.29
-125.47
-135.78
-137.82
-132.48
-118.73
-93.60
-54.05
-0.02
63.25
125.24
172.14
196.19
194.67
172.31
138.27
101.32
66.05
32.06
-3.95
-47.34
-96.17
-149.11
-203.63
-257.10
-306.80
-349.34
-380.10
-394.24
-391.21
-367.07
-325.30
-271.79
-212.39
-150.81
-88.24
-24.86
55.51
122.40
173.80
203.56
208.70
191.07
156.57
112.52
64.96
17.23
-32.46
-78.61
-117.88
-144.78
-153.46
-140.56
-107.31
-59.77
-6.87
39.97
78.76
108.17
130.64
149.64
166.95
180.80
186.23
177.45
148.56
102.95
44.70
-20.18
-85.83
-147.56
-201.48
-243.47
-268.93
-275.52
-258.93
-221.13
-167.52
-105.09
-39.94
24.53
87.40
155.38
214.84
264.46
298.92
313.63
307.12
281.94
243.67
198.39
150.08
98.31
43.51
-14.42
-71.45
-118.80
-145.77
-144.57
-114.87
-65.14
-10.74
34.84
62.22
70.40
65.50
56.23
48.73
43.72
36.86
21.26
-7.03
-48.88
-100.96
-156.94
-209.30
-251.08
-276.93
-283.71
-270.98
-240.01
-194.43
-139.08
-79.12
-19.03
38.21
91.35
140.38
185.24
225.03
256.87
276.76
281.06
268.26
239.84
199.70
152.17
99.98
43.89
-15.71
-76.13
-130.55
-168.62
-179.75
-157.73
-104.37
-30.23
48.69
116.36
162.40
184.94
189.56
184.93
177.79
169.72
157.33
135.37
100.37
52.94
-2.89
-62.04
-120.61
-176.50
-227.84
-271.29
-301.60
-313.64
-305.35
-279.50
-243.15
-204.30
-167.82
-133.07
-94.98
-47.82
9.96
73.29
131.46
172.39
187.50
174.92
139.28
89.06
33.11
-21.81
-71.30
-112.34
-142.40
-159.39
-162.69
-153.96
-136.94
-116.16
-95.20
-75.75
-58.37
-43.92
-34.42
-32.63
-40.15
-55.35
-72.73
-84.56
-83.91
-67.65
-37.72
0.14
39.11
73.82
101.36
120.32
129.29
126.12
108.91
78.27
39.36
1.80
-22.83
-25.18
-2.07
41.63
94.25
141.36
170.42
174.52
153.59
113.24
62.13
9.16
-38.28
-75.09
-98.48
-107.77
-104.38
-91.90
-75.67
-61.68
-54.74
-56.57
-64.69
-72.89
-73.38
-59.79
-29.87
13.38
62.92
110.17
148.09
172.75
183.42
181.32
168.61
148.11
123.43
98.99
78.90
65.55
58.52
55.17
52.43
48.80
44.92
42.25
41.00
38.74
31.33
15.11
-10.63
-43.30
-78.43
-112.09
-142.21
-167.93
-187.77
-198.34
-194.88
-173.72
-134.86
-83.11
-26.67
25.78
68.08
97.85
115.90
124.39
125.07
118.36
103.73
80.68
49.85
13.72
-23.74
-57.98
-85.24
-103.78
-114.21
-118.97
-121.05
-122.88
-125.78
-130.33
-136.62
-144.19
-151.47
-155.03
-149.84
-130.70
-94.82
-44.07
14.29
69.54
111.17
132.66
133.91
120.73
102.33
87.87
83.55
91.30
109.01
131.92
154.12
169.86
174.10
162.89
134.09
88.26
29.67
-33.62
-91.10
-132.35
-150.69
-145.84
-124.37
-97.08
-74.79
-64.25
-66.66
-78.43
-93.78
-106.99
-113.38
-109.11
-91.33
-59.07
-14.84
34.45
78.72
107.94
115.93
102.80
74.65
40.89
10.64
-10.07
-19.46
-19.54
-14.74
-10.26
-10.48
-17.82
-32.36
-52.04
-73.72
-94.63
-113.42
-130.46
-147.29
-165.30
-184.80
-204.44
-221.46
-232.56
-235.00
-227.32
-210.03
-185.31
-156.10
-125.09
-93.68
-61.44
-26.48
13.11
57.56
104.11
147.20
180.35
198.79
201.40
191.10
173.24
153.27
134.72
118.73
104.93
92.88
82.99
76.40
74.41
78.10
88.50
106.69
133.26
166.82
202.52
231.77
244.28
231.70
191.38
128.57
55.46
-12.65
-62.67
-87.72
-88.55
-71.64
-45.14
-14.70
18.92
58.85
108.70
168.36
231.61
287.14
322.44
328.91
304.85
255.83
192.13
125.17
64.76
18.08
-9.83
-15.75
1.34
38.91
89.93
143.70
188.32
214.14
216.38
195.61
156.21
103.89
43.76
-19.91
-82.47
-137.62
-177.26
-193.02
-179.48
-137.59
-76.18
-10.52
42.55
71.06
73.02
57.66
41.08
38.47
56.57
90.54
126.69
149.79
150.51
128.87
92.21
49.34
5.26
-40.04
-88.40
-138.82
-185.02
-217.31
-227.54
-213.86
-181.89
-141.44
-101.32
-65.41
-32.50
0.46
34.22
65.00
85.58
88.90
71.67
35.92
-12.14
-64.97
-116.24
-161.94
-199.84
-228.17
-244.96
-248.09
-236.19
-209.50
-169.97
-120.51
-63.75
-1.25
66.00
135.97
204.07
262.82
303.72
320.45
311.66
281.67
238.40
189.71
140.34
91.41
42.40
-5.90
-49.63
-82.83
-99.96
-98.46
-79.48
-46.93
-5.84
38.63
81.34
117.45
143.28
157.79
163.39
165.04
167.53
172.53
177.35
176.62
165.77
143.95
114.91
84.63
57.96
36.12
16.48
-5.64
-34.42
-71.58
-115.34
-160.17
-197.74
-218.77
-215.92
-186.87
-136.00
-73.74
-13.06
34.92
64.45
75.70
72.78
60.40
41.45
16.71
-13.92
-49.75
-88.78
-128.32
-166.09
-200.84
-232.20
-260.15
-284.34
-303.93
-317.57
-323.72
-320.89
-307.91
-284.30
-250.54
-207.82
-157.46
-100.46
-37.69
28.95
95.33
154.76
199.29
222.38
221.45
198.81
160.24
112.37
60.47
7.78
-43.37
-90.08
-128.13
-152.82
-160.67
-150.81
-125.16
-87.63
-43.01
3.61
46.92
81.61
102.96
107.95
96.10
69.53
31.74
-13.73
-64.29
-118.00
-172.33
-223.15
-264.84
-291.82
-300.74
-292.00
-269.63
-239.52
-206.81
-174.32
-142.16
-108.96
-73.39
-35.07
5.79
49.42
96.90
149.39
205.95
261.98
309.32
338.69
343.50
322.66
281.36
228.68
173.93
123.29
78.31
36.60
-6.00
-52.84
-104.50
-157.74
-206.11
-241.75
-257.87
-251.27
-223.27
-178.69
-123.07
-60.51
6.71
76.35
143.64
200.25
236.05
243.19
219.63
170.23
104.36
32.50
-37.31
-100.04
-152.28
-190.64
-211.39
-211.72
-191.66
-155.01
-107.81
-56.26
-4.17
47.80
100.76
155.09
208.17
254.18
285.42
296.61
286.11
256.96
215.39
167.99
119.20
70.57
22.05
-27.02
-72.66
-110.13
-134.25
-141.85
-133.34
-112.78
-86.47
-60.61
-41.70
-28.30
-19.04
-11.30
-3.04
5.79
12.72
13.50
3.65
-23.44
-64.00
-115.95
-174.94
-234.96
-289.31
-331.55
-356.62
-361.81
-352.12
-325.16
-286.06
-240.07
-191.08
-140.85
-89.24
-35.36
49.52
122.75
186.30
234.20
261.11
264.69
246.73
212.59
168.93
121.03
66.54
10.78
-46.93
-104.88
-157.94
-198.84
-221.10
-221.86
-202.92
-173.18
-134.62
-92.19
-48.22
-2.70
45.53
97.77
154.72
215.87
276.36
333.74
380.50
408.62
412.34
390.40
346.55
287.88
221.87
153.28
87.22
26.31
-26.85
-69.66
-100.63
-120.21
-130.47
-133.24
-128.66
-113.36
-83.97
-39.94
13.90
67.26
107.30
123.09
109.45
68.65
9.42
-55.92
-114.76
-157.02
-177.01
-173.62
-149.42
-109.27
-58.76
-3.28
52.33
103.83
147.53
180.63
201.69
210.99
210.22
201.79
187.77
169.31
146.55
118.93
85.44
44.78
-4.21
-61.80
-126.22
-192.83
-254.29
-302.24
-329.87
-334.33
-317.42
-284.75
-243.22
-198.49
-153.45
-108.36
-61.67
-11.51
43.27
102.05
161.90
217.56
262.24
289.53
295.59
280.71
249.19
207.62
162.29
117.15
73.04
28.47
-18.73
-69.69
-123.27
-175.75
-221.39
-253.95
-268.49
-262.99
-238.99
-200.55
-152.06
-96.38
-34.53
32.58
101.79
166.19
216.34
243.48
243.34
217.61
172.59
115.95
53.90
-9.37
-70.26
-124.08
-164.65
-186.05
-185.43
-164.56
-128.97
-84.96
-36.75
14.18
66.97
118.65
162.57
189.88
193.16
170.04
124.09
62.82
-5.81
-75.87
-143.42
-204.82
-254.81
-286.62
-294.27
-275.58
-233.91
-176.94
-113.29
-49.13
13.31
74.19
133.30
187.57
231.29
258.69
266.92
257.86
237.05
210.68
182.52
152.32
116.29
69.53
9.09
-63.91
-143.40
-219.44
-280.84
-318.47
-328.10
-311.47
-275.45
-229.12
-180.56
-134.39
-91.43
-49.75
-6.65
39.91
90.21
142.33
192.28
234.06
261.16
268.24
253.08
217.86
168.56
113.37
60.28
15.83
-16.47
-34.41
-36.55
-21.91
9.30
54.51
107.97
161.26
206.08
235.02
245.72
240.63
225.22
204.81
182.00
155.89
123.38
82.72
31.95
-27.08
-90.10
-151.40
-204.70
-244.11
-265.06
-265.43
-244.88
-208.90
-163.31
-113.56
-62.95
-11.93
41.06
97.74
148.35
199.25
242.44
270.62
278.34
264.29
231.86
187.90
140.28
94.88
55.20
17.93
-21.11
-65.11
-113.55
-161.13
-198.96
-217.85
-211.86
-179.20
-125.22
-57.05
18.04
93.95
165.39
226.82
272.00
295.06
293.70
268.91
226.97
176.62
125.67
78.23
34.33
-8.15
-50.65
-91.19
-125.66
-149.45
-161.22
-164.72
-167.70
-177.83
-197.96
-223.40
-243.15
-244.94
-220.29
-168.07
-94.47
-10.13
73.57
147.25
204.42
241.43
257.00
252.15
230.11
195.57
153.74
109.07
64.51
21.46
-19.48
-57.69
-91.83
-119.73
-138.74
-146.62
-142.71
-128.83
-109.40
-90.55
-78.55
-78.27
-92.44
-121.71
-165.08
-219.96
-281.78
-343.15
-394.64
-426.65
-432.39
-410.46
-365.74
-307.62
-246.49
-190.17
-141.24
-97.41
-53.59
-5.02
49.80
107.68
161.31
201.52
220.20
213.76
183.46
134.88
75.82
13.90
-44.62
-94.77
-132.10
-153.05
-153.07
-130.48
-86.87
-27.40
40.32
108.09
169.11
219.19
255.19
279.13
291.63
292.90
282.70
260.77
227.52
184.47
133.86
75.41
13.29
-52.16
-120.12
-187.63
-248.84
-296.05
-322.37
-324.47
-307.34
-273.35
-230.48
-185.26
-140.76
-96.41
-49.58
2.20
78.72
149.34
213.41
264.83
298.63
312.78
308.90
291.44
265.61
234.80
196.39
152.85
103.56
51.66
4.70
-27.41
-36.74
-21.22
13.79
54.95
92.85
117.90
125.86
117.78
97.71
69.78
36.41
-2.14
-48.20
-100.27
-157.02
-214.89
-268.76
-313.13
-343.71
-358.52
-358.05
-345.11
-321.56
-289.72
-251.10
-206.78
-157.93
-105.96
-52.01
3.41
59.81
116.51
170.30
215.61
245.80
255.72
244.18
214.50
172.87
125.19
74.49
20.75
-36.70
-95.90
-150.57
-191.41
-209.87
-202.14
-170.75
-123.01
-67.40
-10.42
44.14
93.90
135.43
163.30
171.30
155.21
115.33
57.10
-10.52
-77.83
-136.65
-181.40
-208.95
-218.04
-209.02
-184.05
-146.91
-102.63
-56.13
-11.00
31.10
70.46
108.77
148.41
191.60
239.34
290.36
340.42
383.00
410.88
418.82
405.66
374.68
331.86
282.96
231.37
178.00
123.39
70.19
24.25
-6.98
-17.86
-7.73
18.17
50.74
80.55
101.18
110.20
108.38
97.26
77.38
47.97
7.77
-43.48
-104.03
-169.98
-235.77
-295.12
-341.98
-371.84
-382.60
-375.10
-352.88
-320.74
-283.26
-243.43
-202.32
-159.89
-115.85
-70.14
-22.62
27.29
80.25
135.62
190.03
237.07
268.83
278.91
265.23
231.05
183.22
129.17
74.05
20.17
-31.51
-79.37
-119.87
-148.28
-160.64
-155.59
-134.84
-102.30
-62.40
-19.29
23.01
60.17
86.99
98.06
88.98
57.96
6.55
-59.98
-133.47
-204.24
-262.77
-301.66
-317.06
-309.38
-282.62
-243.47
-198.56
-152.72
-108.31
-65.62
-24.10
16.85
57.69
99.56
142.49
186.13
228.01
263.22
285.35
288.73
270.94
233.79
183.17
123.83
59.72
-7.03
-74.32
-137.81
-190.11
-222.78
-230.00
-210.65
-172.44
-125.97
-81.39
-44.29
-14.08
14.69
48.43
82.73
122.94
160.03
183.83
185.75
161.78
113.50
47.26
-27.80
-101.82
-164.37
-208.83
-230.03
-226.03
-198.90
-154.70
-101.75
-48.33
-0.58
39.74
72.53
101.04
129.86
162.80
200.91
241.38
277.77
301.74
306.52
287.85
246.57
187.78
118.61
46.57
-20.73
-75.28
-109.31
-116.68
-96.07
-51.61
8.58
73.25
131.04
173.70
197.90
204.03
194.71
172.31
138.69
97.37
50.07
-3.95
-65.53
-132.48
-198.66
-254.67
-291.06
-301.36
-280.98
-233.49
-170.40
-105.22
-46.85
2.02
44.15
83.76
124.87
174.86
236.35
304.89
371.79
428.62
468.66
488.79
488.90
444.15
355.55
251.99
166.13
109.97
80.06
61.76
48.05
36.10
24.10
15.99
11.92
6.89
-5.23
-26.93
-56.89
-90.75
-124.78
-156.55
-181.45
-198.48
-211.09
-224.26
-240.72
-260.93
-283.68
-308.50
-335.37
-361.39
-383.54
-399.29
-406.04
-401.12
-383.72
-355.98
-323.22
-291.42
-263.14
-237.99
-213.55
-186.78
-155.60
-120.39
-83.99
-51.00
-25.80
-10.72
-6.29
-11.58
-24.45
-41.64
-58.68
-69.89
-69.27
-51.97
-16.51
33.56
89.78
141.28
178.65
197.66
200.55
194.26
186.83
183.98
187.54
195.90
205.72
213.29
214.87
206.33
183.40
143.11
86.08
18.15
-50.08
-106.32
-140.93
-150.58
-139.55
-117.80
-96.62
-84.15
-82.45
-87.52
-91.95
-88.53
-73.46
-47.46
-15.02
17.48
43.66
58.40
58.51
43.10
14.10
-23.56
-62.31
-93.35
-108.78
-103.89
-78.61
-37.50
11.67
60.59
102.81
135.48
159.31
177.24
192.47
206.98
221.15
234.28
245.52
254.24
259.79
260.73
254.45
237.57
207.21
162.42
105.17
40.28
-25.65
-85.89
-135.02
-169.90
-189.58
-194.73
-186.89
-168.06
-140.56
-107.04
-70.11
-31.96
5.71
41.25
72.16
94.47
103.24
94.42
67.38
26.70
-18.30
-56.42
-78.75
-81.94
-69.13
-48.06
-27.44
-13.50
-7.94
-8.16
-9.22
-6.35
3.11
19.20
40.20
63.99
89.04
114.30
138.16
157.65
168.45
166.07
147.67
113.26
65.58
8.40
-54.85
-121.49
-188.47
-250.67
-300.21
-327.99
-327.20
-297.05
-244.77
-183.84
-129.35
-92.29
-75.55
-73.40
-74.64
-67.69
-45.45
-7.76
39.17
85.48
121.18
138.87
135.28
111.25
70.64
19.29
-36.10
-88.76
-132.49
-162.30
-174.76
-168.47
-144.31
-105.01
-54.58
2.58
62.48
122.07
179.16
232.10
278.98
317.16
343.32
354.19
347.54
323.14
283.14
231.59
172.99
110.85
46.88
-18.26
-83.02
-143.17
-191.71
-221.19
-227.61
-213.55
-188.22
-163.68
-149.24
-146.86
-150.20
-147.89
-129.30
-89.71
-32.54
32.16
91.65
134.81
154.86
150.01
122.37
76.73
19.40
-42.13
-99.39
-143.50
-166.42
-162.85
-132.24
-79.81
-15.57
48.37
101.43
137.52
155.78
159.25
152.26
137.90
117.12
89.39
54.22
12.48
-33.50
-80.96
-128.20
-174.84
-220.90
-264.94
-302.86
-328.37
-335.29
-320.37
-285.26
-235.99
-180.73
-126.68
-77.81
-34.55
5.20
44.50
86.23
132.33
183.16
236.78
288.41
330.95
356.99
361.53
344.16
309.26
263.74
213.70
162.14
109.23
54.78
1.10
-46.23
-80.39
-96.81
-95.64
-81.37
-59.81
-34.79
-7.00
24.27
58.22
90.36
113.41
120.61
109.11
81.08
41.86
-3.40
-51.93
-102.97
-155.34
-205.27
-246.40
-272.27
-279.63
-270.28
-249.99
-225.28
-199.98
-173.83
-143.21
-103.65
-52.43
9.83
78.58
146.04
202.50
238.55
247.89
229.73
189.82
138.89
89.15
50.08
25.91
15.61
15.29
21.02
30.54
43.12
58.46
75.65
93.22
109.81
124.69
137.43
147.24
152.39
150.49
139.73
119.88
92.56
60.28
24.83
-14.00
-58.36
-110.77
-171.65
-237.34
-299.90
-348.87
-374.73
-372.13
-341.62
-289.08
-223.45
-153.86
-87.52
-29.16
18.66
55.12
81.00
98.79
112.22
124.85
138.02
149.57
154.36
146.79
123.82
86.95
41.96
-3.48
-42.79
-72.44
-91.92
-102.41
-105.00
-99.84
-86.42
-64.41
-34.40
1.99
42.40
84.11
124.19
159.72
188.20
208.33
220.53
226.62
228.54
226.92
220.28
205.63
180.01
142.13
93.00
35.63
-25.69
-85.96
-139.53
-180.29
-202.51
-202.68
-181.28
-143.24
-96.46
-49.11
-6.91
27.73
54.81
74.79
87.26
91.17
86.20
74.34
59.90
48.01
42.23
42.67
45.87
46.52
40.13
25.17
3.73
-19.57
-39.57
-52.52
-57.32
-55.30
-49.33
-42.37
-36.61
-32.97
-31.12
-29.95
-28.13
-24.73
-19.75
-14.36
-10.79
-11.83
-19.89
-36.00
-59.18
-86.24
-112.51
-133.09
-144.29
-144.72
-135.65
-120.40
-103.19
-87.70
-75.99
-68.30
-63.31
-59.07
-53.83
-46.59
-37.48
-27.73
-19.56
-15.87
-19.84
-34.25
-60.69
-98.58
-144.56
-192.42
-234.03
-261.45
-269.26
-256.53
-227.05
-187.72
-145.75
-105.88
-69.08
-33.23
4.94
47.72
95.65
147.72
202.14
256.76
308.70
353.77
386.68
402.20
396.91
370.42
325.31
266.01
197.51
124.90
53.61
-10.23
-60.30
-91.59
-102.40
-95.48
-77.53
-57.05
-41.75
-36.15
-40.62
-51.57
-62.75
-66.97
-58.11
-32.89
7.75
58.51
110.78
154.99
183.11
190.66
177.44
146.98
105.06
58.09
11.72
-29.63
-62.71
-85.05
-94.57
-89.78
-70.35
-37.95
3.25
47.15
86.90
116.71
133.18
135.94
126.84
108.80
84.42
55.30
22.17
-14.40
-53.06
-91.10
-124.60
-149.35
-162.23
-162.57
-152.53
-136.52
-119.66
-106.08
-98.01
-95.81
-98.82
-106.14
-116.63
-128.18
-136.86
-137.26
-124.25
-95.69
-54.68
-9.46
29.01
51.23
52.61
34.88
4.58
-30.22
-63.22
-91.37
-114.21
-131.75
-142.54
-143.31
-130.17
-100.78
-55.87
0.39
61.75
121.77
175.61
220.78
256.57
282.94
299.62
305.92
301.47
287.12
265.25
239.17
211.74
184.12
155.22
122.34
82.46
33.59
-24.45
-89.78
-158.68
-225.79
-284.71
-328.84
-353.00
-354.73
-335.00
-297.57
-247.48
-189.36
-126.67
-62.33
0.02
54.89
95.34
114.92
110.22
83.17
41.35
-3.76
-40.27
-59.60
-59.20
-42.85
-18.64
4.56
20.62
28.20
30.35
32.43
39.14
52.57
71.71
93.51
114.35
131.28
142.40
146.82
144.58
136.75
125.51
113.79
104.13
97.19
90.95
81.18
63.42
35.49
-1.04
-41.21
-78.66
-108.27
-127.63
-137.01
-138.16
-133.02
-123.00
-109.16
-92.25
-72.47
-48.86
-19.32
18.38
64.43
115.22
163.14
198.44
212.36
200.09
162.18
104.18
35.10
-34.29
-93.13
-132.05
-144.95
-130.69
-93.70
-42.91
11.13
59.41
96.89
122.87
139.67
150.61
158.39
164.24
168.00
168.37
163.32
150.65
128.90
98.51
62.39
25.26
-8.23
-35.82
-59.02
-82.55
-111.77
-149.32
-192.79
-234.48
-263.71
-270.58
-249.83
-203.14
-139.00
-70.40
-10.90
29.28
45.73
40.27
19.32
-8.73
-35.97
-56.43
-66.65
-65.77
-55.38
-39.36
-23.15
-12.17
-10.02
-17.12
-30.74
-46.65
-61.36
-73.64
-84.56
-96.08
-109.32
-123.45
-135.82
-142.79
-140.88
-127.33
-100.69
-60.98
-9.91
48.87
110.08
167.79
216.62
252.88
275.17
283.99
280.89
267.44
244.65
212.80
172.01
123.07
68.22
11.73
-40.38
-81.52
-106.32
-112.53
-102.20
-81.42
-58.27
-40.21
-31.53
-32.31
-39.10
-46.83
-51.09
-49.67
-42.94
-33.32
-24.33
-19.47
-21.38
-31.16
-48.08
-69.66
-92.44
-113.04
-129.02
-139.37
-144.18
-144.03
-139.22
-129.45
-113.85
-91.24
-60.62
-21.94
23.25
71.69
118.99
161.07
195.61
222.55
243.27
258.68
267.78
267.46
253.92
224.88
181.15
126.91
68.44
12.15
-36.99
-76.30
-105.36
-125.22
-137.45
-143.34
-143.40
-137.71
-126.56
-111.30
-94.30
-78.13
-64.37
-52.92
-42.71
-33.37
-26.93
-28.20
-43.15
-75.98
-126.68
-189.92
-256.29
-315.04
-357.14
-377.46
-375.45
-354.06
-318.12
-272.46
-220.72
-165.17
-107.12
-47.43
13.06
73.39
132.10
186.85
234.18
270.22
292.45
301.61
302.33
301.80
306.28
317.55
331.32
338.93
331.35
303.31
255.45
193.31
124.26
54.09
-14.40
-80.46
-143.14
-199.38
-243.77
-269.97
-273.45
-253.63
-214.65
-164.06
-110.37
-60.42
-18.23
14.16
35.02
41.43
29.75
-2.10
-51.93
-111.99
-170.50
-215.24
-237.78
-235.99
-213.80
-178.49
-137.26
-94.70
-52.41
-10.07
33.01
76.86
120.59
162.62
200.77
232.42
254.92
266.73
268.83
265.28
262.21
265.10
275.70
290.45
301.67
300.74
281.97
244.88
193.60
134.54
73.62
14.88
-39.36
-87.06
-125.53
-151.54
-162.39
-157.08
-137.02
-105.80
-68.34
-29.71
5.93
36.06
59.97
77.99
90.34
95.92
92.30
76.99
49.60
13.45
-24.46
-55.58
-73.03
-74.31
-61.84
-41.36
-19.04
1.00
17.48
31.04
42.72
52.88
61.20
67.40
72.00
76.26
81.50
88.24
95.79
102.33
105.67
104.19
97.23
85.11
68.59
48.07
23.07
-7.85
-46.38
-93.15
-146.32
-200.98
-249.88
-285.59
-303.08
-301.45
-283.90
-255.81
-222.08
-185.31
-145.98
-104.15
-61.41
-21.77
9.68
29.08
35.83
32.94
25.32
17.34
11.07
6.18
1.04
-5.51
-13.24
-20.82
-26.82
-30.59
-32.67
-34.49
-37.58
-42.90
-50.39
-58.65
-64.98
-65.94
-58.46
-41.10
-15.00
16.15
47.43
74.33
94.06
105.61
108.74
102.67
85.83
56.97
17.10
-28.96
-73.04
-106.12
-121.87
-119.51
-104.35
-85.67
-73.13
-73.27
-87.95
-114.75
-148.88
-185.28
-219.65
-248.61
-269.28
-279.09
-276.24
-260.27
-232.27
-194.48
-149.54
-100.26
-50.18
-4.22
31.08
48.94
44.77
18.57
-24.25
-74.23
-120.99
-156.55
-177.15
-183.18
-177.48
-163.48
-143.94
-120.83
-95.73
-70.03
-44.66
-19.75
5.27
30.99
57.12
81.96
102.80
117.14
124.17
125.68
125.77
129.62
141.64
163.94
195.46
232.17
268.19
297.35
314.87
318.51
308.87
288.89
262.54
233.54
204.35
175.80
147.53
118.58
88.20
56.54
25.19
-2.64
-22.50
-29.93
-21.87
1.93
38.48
82.14
126.03
163.61
189.96
202.39
200.75
187.41
166.92
145.25
128.45
121.04
124.53
136.87
152.99
166.52
171.84
166.01
149.58
126.21
101.21
79.56
64.21
55.33
50.72
47.39
43.08
37.29
31.11
26.05
22.70
19.92
15.13
5.42
-11.15
-34.68
-63.41
-94.16
-122.99
-145.69
-158.37
-158.06
-143.60
-116.66
-81.98
-46.74
-18.74
-4.03
-5.07
-20.12
-44.32
-71.80
-98.19
-121.76
-143.39
-164.90
-187.33
-209.68
-229.26
-242.89
-248.54
-246.33
-238.43
-228.12
-218.56
-211.75
-208.06
-206.46
-204.99
-201.51
-194.31
-182.41
-165.76
-145.01
-121.22
-95.43
-68.55
-41.17
-13.55
14.50
43.96
76.92
116.52
165.93
226.74
296.70
368.66
431.75
474.46
488.62
472.05
429.03
368.23
299.63
231.09
167.01
108.88
57.02
12.04
-24.95
-53.02
-72.36
-83.73
-88.65
-88.36
-82.94
-70.93
-49.62
-16.28
30.85
91.71
165.19
246.65
327.26
395.57
441.16
458.02
446.29
411.98
364.60
316.44
275.62
243.12
214.60
185.11
152.08
115.24
75.33
32.96
-6.88
-40.29
-66.42
-86.18
-99.55
-105.48
-104.25
-98.45
-91.95
-81.61
-63.80
-37.76
-5.32
32.08
73.98
119.24
165.38
171.17
116.63
17.32
-89.92
-178.72
-242.31
-284.51
-311.59
-328.38
-337.84
-335.82
-320.17
-294.90
-268.24
-246.84
-232.73
-224.69
-220.11
-216.56
-208.06
-191.70
-169.82
-148.13
-130.84
-118.19
-108.45
-98.94
-87.26
-68.93
-41.71
-7.85
26.20
50.93
60.27
51.34
25.97
-9.63
-45.08
-70.85
-81.88
-78.45
-64.14
-43.21
-19.55
4.35
24.96
37.87
38.04
21.73
-11.15
-55.70
-102.67
-141.56
-162.67
-161.26
-138.92
-102.67
-61.88
-25.06
2.88
21.32
33.27
45.01
61.90
85.37
111.91
134.29
144.23
135.68
107.62
59.06
-1.14
-58.66
-99.62
-115.93
-107.23
-80.24
-44.75
-9.68
14.49
23.56
22.99
21.37
22.34
23.11
16.94
-1.50
-33.15
-72.64
-112.07
-141.28
-152.11
-141.98
-113.42
-73.23
-28.62
13.85
49.55
67.82
60.80
29.71
-13.79
-52.23
-71.98
-66.56
-39.18
3.07
51.66
100.92
148.85
188.52
216.47
231.35
235.98
234.14
229.38
224.11
221.04
221.87
225.54
229.09
215.70
177.85
120.14
56.28
-0.58
-42.24
-66.27
-75.25
-74.27
-69.51
-64.02
-60.09
-56.99
-53.77
-48.68
-40.05
-27.53
-11.90
5.06
23.30
42.80
63.01
81.93
96.04
101.71
96.10
78.61
51.19
18.77
-13.90
-44.15
-72.38
-100.61
-130.28
-160.99
-189.94
-213.00
-225.80
-225.87
-213.51
-191.59
-164.32
-135.84
-109.64
-88.23
-73.20
-65.04
-63.32
-66.58
-72.58
-78.65
-82.19
-81.12
-73.92
-59.44
-36.80
-5.64
33.02
75.86
117.15
149.70
166.64
163.50
139.56
98.07
45.28
-11.10
-63.39
-105.07
-131.64
-141.13
-134.23
-113.92
-84.68
-51.14
-16.99
15.71
46.45
75.63
104.05
132.35
160.71
188.53
214.08
234.36
245.51
243.86
227.32
196.35
153.94
104.50
52.31
0.43
-49.26
-95.24
-135.52
-167.53
-188.77
-197.79
-194.50
-179.59
-153.62
-116.60
-68.42
-10.17
54.85
121.19
182.62
234.19
273.63
301.40
319.30
328.72
329.56
320.49
300.26
269.06
229.19
184.46
138.85
95.10
54.09
15.09
-23.15
-61.54
-100.09
-138.35
-176.11
-213.95
-252.95
-293.37
-333.21
-367.52
-389.20
-391.23
-369.34
-323.64
-258.32
-179.79
-94.51
-8.02
74.75
148.35
206.53
243.25
254.93
242.22
210.29
167.01
120.03
74.19
30.58
-12.19
-55.47
-98.33
-136.86
-165.45
-179.43
-177.48
-162.29
-139.01
-112.52
-84.87
-54.83
-19.72
21.70
66.91
109.78
142.88
160.78
162.24
150.09
129.03
102.78
72.39
36.43
-6.97
-57.62
-111.81
-163.01
-204.21
-231.00
-243.66
-247.09
-248.44
-253.83
-265.76
-282.42
-299.07
-310.37
-312.43
-303.73
-284.60
-256.04
-218.56
-171.91
-115.79
-51.21
18.14
85.43
141.55
177.23
185.75
165.08
118.84
55.48
-13.69
-77.15
-125.29
-152.01
-155.51
-138.55
-108.03
-73.44
-44.47
-27.94
-25.46
-33.06
-43.10
-47.58
-41.50
-24.63
-1.08
22.56
39.35
43.57
31.60
2.53
-41.04
-92.72
-143.02
-181.41
-199.51
-193.60
-165.32
-120.18
-65.28
-7.18
48.67
97.66
135.81
160.30
170.66
169.41
161.69
153.57
150.18
154.49
167.14
187.11
212.13
238.76
262.13
276.40
276.13
258.38
224.21
178.47
128.14
79.90
38.60
7.24
-12.01
-16.72
-4.51
25.37
70.14
122.86
173.85
213.75
236.55
240.98
229.73
207.22
177.37
142.47
103.43
60.60
14.62
-33.26
-81.59
-129.21
-175.56
-220.78
-265.12
-308.37
-349.12
-384.53
-410.77
-424.17
-422.49
-405.81
-376.47
-337.94
-293.55
-245.40
-194.29
-140.63
-85.32
-30.12
22.72
71.48
115.84
157.12
197.92
241.50
290.92
348.12
412.83
481.65
547.90
602.92
638.56
650.05
637.75
606.87
565.24
520.24
476.58
435.85
397.62
361.21
326.65
294.60
265.44
238.53
212.20
184.55
154.30
121.24
86.20
50.80
16.97
-13.43
-38.93
-59.08
-74.76
-88.11
-101.93
-118.58
-139.18
-163.41
-190.29
-219.11
-249.87
-282.78
-316.90
-349.20
-374.74
-388.56
-388.12
-375.13
-355.33
-336.35
-324.64
-323.04
-330.14
-341.24
-350.31
-351.56
-340.31
-313.24
-268.83
-208.20
-136.02
-60.61
7.36
57.45
82.47
80.63
56.10
17.68
-23.78
-58.06
-77.88
-80.07
-65.45
-38.17
-4.37
28.88
54.62
66.84
61.53
37.77
-1.55
-49.66
-97.17
-134.19
-152.80
-148.84
-122.22
-76.09
-15.46
53.71
125.05
192.01
248.49
289.98
314.70
324.00
321.61
312.09
299.04
284.18
267.34
247.39
223.16
194.00
159.77
120.55
76.58
28.52
-21.84
-71.37
-115.81
-150.84
-173.39
-182.56
-179.79
-168.11
-150.83
-130.33
-107.68
-82.82
-55.54
-26.45
2.48
28.31
47.95
59.37
62.36
58.49
50.26
40.01
28.78
16.30
1.41
-16.82
-38.41
-62.44
-87.59
-112.81
-137.67
-162.11
-185.94
-208.43
-228.19
-243.30
-251.52
-250.59
-238.82
-215.96
-183.95
-146.92
-109.95
-76.97
-48.61
-21.74
9.18
49.11
99.57
157.29
215.26
265.37
301.30
320.25
322.79
311.56
289.58
259.24
222.16
179.66
133.20
84.71
36.42
-9.39
-50.59
-85.46
-112.69
-131.45
-141.45
-142.95
-136.85
-124.65
-108.41
-90.59
-73.82
-60.58
-52.68
-50.76
-53.86
-59.33
-63.39
-62.30
-53.78
-38.18
-18.65
0.12
13.85
20.71
22.08
21.89
24.56
32.92
47.13
65.11
83.95
101.32
116.07
127.57
134.75
135.53
127.39
108.70
80.05
44.69
7.50
-26.67
-54.54
-74.87
-88.11
-95.47
-98.44
-98.84
-99.11
-102.21
-110.89
-126.57
-148.30
-172.49
-193.53
-205.31
-202.66
-182.46
-144.04
-89.26
-22.29
50.78
122.78
186.72
237.20
271.37
289.15
292.57
284.42
267.34
243.27
213.62
179.61
142.23
101.93
58.36
10.90
-39.87
-90.78
-135.98
-168.86
-185.19
-185.68
-176.11
-164.98
-159.63
-163.34
-174.93
-190.58
-206.30
-219.16
-227.17
-228.31
-220.62
-203.49
-179.38
-154.25
-135.79
-130.07
-138.55
-157.28
-178.60
-194.25
-198.33
-188.41
-165.34
-132.38
-94.59
-58.52
-31.47
-20.08
-28.40
-55.68
-95.64
-138.17
-172.28
-189.10
-183.99
-156.99
-112.24
-56.96
0.41
51.84
90.87
113.60
119.28
110.17
90.54
65.26
38.03
12.06
-9.45
-23.51
-27.97
-21.84
-5.73
18.25
46.76
74.07
95.89
110.43
117.38
116.31
106.82
89.62
67.06
42.92
17.76
-5.38
-20.46
-22.06
-9.40
13.40
39.73
63.14
79.36
80.52
64.92
37.72
5.27
-30.44
-70.91
-116.96
-166.56
-215.29
-266.94
-321.80
-374.29
-417.27
-447.08
-463.23
-465.81
-455.85
-383.00
-242.04
-76.12
62.49
152.15
198.55
216.24
218.63
214.34
207.79
192.22
165.01
131.79
101.27
78.36
63.28
54.98
51.93
52.76
49.82
39.95
27.06
18.31
19.32
27.28
40.22
56.30
73.99
87.90
95.38
98.19
100.16
103.53
108.58
115.49
123.90
133.52
142.53
150.92
160.61
172.99
186.28
195.81
197.28
188.97
173.45
155.99
142.83
138.18
142.33
152.05
163.13
173.28
182.40
191.63
201.88
213.34
226.18
241.42
260.98
286.66
318.96
356.07
394.64
430.43
459.08
476.52
478.93
463.45
429.37
378.96
317.01
249.38
181.29
116.91
60.04
14.74
-14.99
-27.17
-24.03
-12.69
-3.22
-4.73
-21.87
-53.21
-92.93
-134.15
-172.15
-205.86
-237.27
-269.88
-306.89
-349.72
-397.04
-444.42
-484.68
-509.59
-512.35
-489.75
-443.23
-378.30
-302.94
-225.79
-154.74
-96.23
-54.82
-32.66
-28.74
-38.67
-55.58
-71.98
-82.37
-84.84
-81.27
-75.75
-72.31
-72.21
-72.70
-68.17
-52.98
-25.34
10.18
43.07
60.39
51.93
14.51
-46.70
-120.19
-192.22
-250.96
-289.07
-303.99
-296.49
-269.04
-224.92
-168.15
-103.87
-38.14
22.85
74.32
114.19
143.56
166.40
187.75
212.11
242.22
278.92
321.47
368.02
415.59
459.83
495.50
517.63
523.33
512.98
489.90
458.62
422.44
382.40
337.69
287.85
234.90
184.25
143.44
119.28
114.67
126.74
147.32
165.57
171.92
161.20
134.32
96.89
56.12
17.33
-18.23
-53.16
-91.94
-138.04
-191.98
-251.04
-310.35
-364.25
-407.43
-435.81
-447.06
-441.66
-423.39
-399.06
-376.79
-363.23
-360.83
-366.85
-374.50
-375.80
-364.80
-339.38
-301.12
-253.73
-201.37
-147.44
-94.17
-42.65
6.95
54.93
101.25
144.98
184.06
215.83
237.70
247.80
245.22
230.20
204.51
172.32
140.75
119.02
115.93
136.42
178.93
235.25
293.17
340.66
369.49
376.56
363.29
333.61
292.56
245.29
196.29
148.78
104.33
63.28
25.71
-7.61
-35.22
-56.00
-70.06
-78.60
-82.56
-81.29
-72.83
-56.24
-34.54
-15.82
-11.27
-30.17
-74.69
-137.48
-203.76
-256.67
-283.23
-278.02
-243.59
-188.33
-123.82
-62.10
-13.61
14.26
18.48
0.61
-34.16
-78.97
-127.51
-175.70
-222.14
-267.25
-311.83
-355.59
-396.65
-432.00
-458.64
-474.65
-479.67
-474.53
-460.60
-439.09
-410.99
-377.57
-340.89
-303.58
-268.19
-236.08
-206.65
-177.55
-145.59
-107.99
-63.46
-12.88
40.48
91.45
134.50
166.07
186.40
199.57
211.20
224.98
240.14
251.90
254.78
246.73
231.25
215.92
208.10
210.68
220.70
231.69
237.86
237.00
230.51
221.04
210.24
198.37
185.77
174.95
170.65
178.19
200.65
236.60
279.92
322.22
355.93
377.18
386.32
386.11
378.90
364.74
341.88
309.07
268.31
225.26
187.17
158.91
139.54
122.37
98.12
60.18
8.19
-51.95
-111.05
-160.42
-194.20
-209.47
-205.59
-184.21
-149.71
-109.07
-70.33
-38.94
-14.91
7.19
34.52
71.30
115.01
156.79
185.73
194.57
183.41
159.43
132.58
110.33
94.69
82.27
67.90
48.38
24.62
1.21
-16.90
-27.63
-33.45
-40.52
-55.57
-82.13
-117.91
-154.88
-182.46
-192.23
-181.73
-155.70
-123.78
-95.70
-76.23
-63.19
-49.63
-28.85
0.34
31.81
54.86
59.99
44.17
12.64
-24.11
-55.86
-77.55
-90.76
-101.12
-113.87
-130.24
-146.84
-158.04
-159.55
-150.95
-135.92
-120.30
-109.73
-107.66
-114.63
-128.55
-145.23
-159.28
-165.51
-160.79
-145.82
-125.24
-105.78
-93.44
-90.89
-96.81
-107.61
-120.04
-133.35
-149.34
-170.67
-198.60
-231.51
-265.17
-295.40
-320.10
-340.84
-361.87
-387.33
-417.95
-449.35
-473.00
-479.54
-463.51
-425.85
-373.58
-316.45
-262.55
-215.62
-175.23
-139.23
-105.87
-76.10
-51.44
-32.36
-17.11
-1.98
17.12
42.71
74.70
111.75
149.58
185.96
220.69
255.59
293.45
336.74
386.72
442.99
505.37
567.56
623.57
666.28
688.91
686.93
659.63
610.15
544.22
471.11
391.83
308.74
223.16
137.20
55.20
-16.58
-71.53
-105.09
-112.07
-99.55
-72.44
-35.87
6.55
53.69
105.85
162.82
194.99
228.32
248.90
248.35
222.35
172.76
107.04
34.89
-36.12
-103.40
-164.96
-228.71
-294.62
-356.50
-403.25
-423.61
-411.81
-370.83
-311.30
-243.67
-182.49
-132.67
-92.64
-57.21
-21.15
18.38
61.60
106.85
153.88
197.84
235.48
262.97
276.45
273.05
251.65
213.35
161.12
100.15
34.41
-30.30
-87.53
-130.75
-154.38
-155.42
-134.55
-96.28
-47.60
2.72
47.23
81.13
103.45
117.18
127.74
140.49
157.90
177.87
194.49
200.74
191.90
167.71
132.40
92.12
51.92
13.84
-22.96
-60.30
-98.99
-137.83
-173.90
-203.84
-225.15
-236.77
-238.58
-231.11
-215.07
-190.84
-158.41
-117.92
-70.70
-20.10
28.76
70.43
100.92
119.04
126.33
125.43
118.17
104.48
82.90
51.92
11.67
-35.32
-84.55
-131.26
-171.91
-205.12
-231.44
-252.20
-268.24
-279.15
-283.37
-279.03
-265.28
-243.27
-215.76
-185.94
-155.96
-126.14
-95.54
-62.87
-27.29
11.50
53.58
98.73
145.73
191.31
229.99
255.15
260.92
244.22
205.92
150.91
86.88
22.36
-35.11
-80.56
-112.27
-131.49
-141.62
-146.75
-150.06
-152.83
-153.88
-150.02
-137.08
-111.29
-71.00
-18.63
38.57
89.98
125.09
137.86
129.44
107.54
82.71
63.70
54.67
54.92
60.74
67.84
72.77
73.32
68.40
58.25
44.77
31.05
20.24
14.07
11.83
10.68
7.11
-1.54
-16.18
-36.06
-59.27
-83.06
-103.95
-118.27
-122.80
-115.50
-95.97
-65.34
-25.94
18.85
65.17
108.51
144.22
168.72
180.62
180.79
171.17
153.54
128.85
97.74
60.98
20.19
-21.54
-60.14
-91.58
-112.96
-123.53
-124.78
-118.88
-108.55
-96.20
-82.87
-67.93
-50.29
-29.77
-8.20
10.88
25.68
34.36
34.74
25.25
6.55
-18.07
-43.67
-65.03
-77.72
-74.96
-54.86
-23.49
7.29
26.29
27.66
12.25
-13.34
-39.05
-48.23
-31.10
9.87
62.87
115.89
162.55
202.24
237.71
272.96
320.65
387.99
471.35
558.89
638.69
702.47
744.96
762.92
700.24
538.68
315.58
97.30
-72.72
-187.82
-260.88
-307.28
-338.05
-360.57
-369.00
-360.70
-342.54
-327.24
-323.49
-331.64
-342.38
-346.16
-336.47
-305.42
-254.04
-193.76
-140.16
-103.09
-83.15
-74.64
-71.14
-68.21
-59.60
-42.44
-17.93
10.69
41.41
73.69
106.73
137.97
164.34
185.74
202.76
215.17
221.63
220.64
210.63
190.26
158.97
118.42
73.85
32.25
-0.18
-20.24
-28.34
-27.87
-23.37
-18.12
-12.70
-5.15
6.65
22.42
38.03
46.22
39.78
15.92
-20.77
-58.46
-82.55
-82.12
-55.86
-13.34
28.88
54.99
57.34
39.43
13.21
-7.62
-14.53
-7.83
4.71
12.60
8.09
-10.81
-40.78
-76.61
-114.87
-155.76
-201.92
-254.88
-311.55
-363.13
-397.68
-404.89
-380.62
-328.61
-258.25
-179.99
-101.64
-27.27
40.88
100.18
146.37
175.04
184.75
179.21
167.11
158.94
162.33
178.90
203.38
226.05
237.82
233.90
215.11
186.25
152.90
118.72
85.07
52.28
21.35
-5.45
-25.44
-37.48
-42.85
-44.65
-45.41
-45.65
-43.97
-38.86
-30.81
-23.39
-22.25
-32.51
-56.79
-94.69
-142.96
-196.64
-249.77
-295.94
-329.40
-346.23
-346.39
-334.92
-320.42
-311.65
-313.47
-323.90
-334.77
-335.51
-318.20
-280.91
-227.76
-166.10
-102.32
-38.96
25.17
92.33
162.67
232.61
295.71
345.74
379.58
398.42
406.76
410.50
414.49
421.19
430.30
439.29
444.45
442.05
429.36
405.62
372.35
332.62
289.73
246.01
202.38
159.17
117.25
78.87
46.49
21.43
2.52
-13.77
-31.83
-54.95
-84.53
-120.40
-161.72
-207.51
-255.83
-302.78
-341.87
-365.12
-365.33
-338.50
-285.28
-210.98
-124.28
-35.68
44.16
106.09
143.98
156.21
146.20
121.27
90.31
61.28
39.67
28.24
27.66
36.85
52.69
69.55
80.02
76.33
52.99
9.05
-51.04
-118.25
-181.45
-230.65
-259.72
-268.24
-261.96
-250.01
-242.99
-248.83
-270.03
-303.28
-341.15
-374.97
-397.45
-404.04
-391.64
-359.32
-308.29
-242.27
-167.66
-92.40
-23.28
36.64
88.18
137.77
191.27
252.09
319.63
389.50
455.15
509.64
546.93
560.49
552.07
523.55
480.00
428.49
375.98
327.13
283.07
241.84
195.21
146.95
96.57
45.30
-5.06
-53.49
-100.31
-146.61
-194.01
-252.08
-312.17
-375.21
-441.03
-507.53
-570.04
-621.37
-653.50
-660.10
-649.36
-611.32
-553.16
-483.49
-409.66
-336.09
-263.80
-191.61
-51.73
63.54
166.43
252.99
320.19
368.13
400.46
422.57
438.53
448.73
439.34
418.63
384.24
338.44
287.46
238.54
196.51
162.05
132.34
95.52
58.81
21.47
-15.90
-52.95
-90.34
-129.37
-170.76
-213.26
-257.88
-292.53
-311.22
-309.87
-287.54
-246.57
-191.40
-126.70
-56.12
15.79
90.92
167.95
244.34
315.72
376.38
420.57
444.53
448.14
434.37
410.82
384.06
358.25
334.00
309.14
280.55
246.20
206.00
161.58
115.56
70.81
30.45
-2.38
-25.14
-36.98
-39.96
-39.38
-42.74
-57.11
-86.53
-129.69
-179.41
-224.02
-250.63
-249.23
-216.10
-155.46
-78.45
0.04
65.90
109.67
128.33
124.88
106.06
79.41
51.21
25.39
3.37
-15.08
-31.23
-47.00
-64.36
-84.82
-108.01
-130.84
-147.95
-153.80
-145.79
-126.37
-103.27
-86.53
-84.34
-99.68
-129.54
-167.20
-205.82
-241.58
-274.37
-306.19
-338.15
-368.45
-392.00
-402.21
-393.77
-364.88
-317.75
-257.95
-192.10
-125.72
-62.31
-3.08
52.35
105.12
156.59
207.41
256.55
300.39
333.20
348.39
341.25
311.22
262.65
202.98
139.47
76.37
14.13
-49.04
-113.63
-176.02
-228.52
-262.56
-273.28
-262.67
-239.15
-213.85
-196.27
-191.42
-199.80
-219.52
-248.10
-282.69
-318.92
-349.82
-366.85
-362.89
-335.36
-287.60
-227.28
-162.85
-100.41
-42.79
9.56
56.81
99.08
137.26
173.80
212.31
255.64
302.89
348.12
381.68
394.27
381.73
347.48
301.07
253.44
212.21
179.53
153.56
131.30
110.99
91.73
71.34
45.00
7.02
-45.28
-108.21
-171.53
-222.41
-251.29
-256.31
-244.09
-226.05
-212.63
-208.57
-211.63
-214.76
-210.11
-192.78
-162.40
-122.71
-78.90
-34.88
8.03
50.85
95.45
142.67
191.24
238.10
279.83
314.54
342.06
363.15
378.03
385.18
380.97
361.11
322.68
265.96
194.88
116.10
37.21
-34.71
-93.52
-134.15
-153.15
-149.86
-127.85
-94.95
-61.08
-34.92
-20.69
-17.26
-20.17
-24.92
-30.10
-37.81
-51.54
-73.22
-101.24
-130.87
-156.35
-173.58
-180.86
-178.71
-168.26
-149.84
-122.72
-85.71
-38.60
16.71
75.60
131.36
177.29
208.70
225.01
230.20
231.58
237.14
252.32
277.64
308.82
338.69
359.94
367.98
361.46
341.56
310.20
268.35
216.06
153.87
84.81
15.30
-45.61
-89.43
-111.51
-113.29
-101.85
-86.99
-78.01
-80.76
-96.98
-124.98
-160.97
-200.04
-236.23
-263.50
-276.68
-273.06
-253.91
-224.56
-192.87
-166.60
-150.95
-147.17
-152.89
-163.62
-174.89
-184.03
-190.20
-193.68
-194.19
-189.83
-177.23
-153.11
-116.39
-69.56
-18.29
30.51
71.13
100.95
120.08
129.94
131.70
125.90
113.18
95.93
79.18
69.63
73.36
92.83
124.90
161.22
190.76
203.85
195.69
168.21
129.16
89.13
58.02
41.94
41.86
53.86
70.77
83.97
85.18
67.80
28.01
-33.67
-111.39
-193.94
-267.17
-318.10
-339.00
-329.88
-298.11
-255.44
-213.79
-181.62
-162.16
-153.72
-151.16
-148.27
-139.85
-122.79
-96.49
-62.31
-22.44
21.06
67.15
115.49
165.43
215.18
261.53
300.43
328.38
343.24
344.76
334.72
316.55
294.52
271.97
250.43
228.93
204.84
175.63
140.78
103.02
67.76
41.34
28.39
29.78
42.21
59.48
74.82
82.92
81.05
68.96
48.46
22.98
-3.25
-25.92
-42.04
-50.71
-53.71
-55.09
-60.02
-73.27
-97.54
-132.90
-177.01
-225.70
-273.27
-313.60
-340.28
-347.80
-333.39
-298.01
-245.94
-183.28
-115.92
-48.83
13.61
67.03
107.26
130.75
135.97
124.71
102.21
76.02
53.11
37.21
28.19
23.70
20.45
16.05
9.66
1.32
-8.61
-20.96
-37.02
-56.66
-75.36
-86.85
-86.16
-72.56
-50.31
-25.29
-3.42
12.57
24.98
42.66
72.51
114.18
160.09
198.98
224.96
236.52
235.86
227.54
220.93
221.34
227.04
232.02
229.26
219.81
206.17
189.93
172.40
161.32
162.14
174.24
192.93
211.57
232.09
256.59
284.89
270.03
189.28
60.38
-75.43
-168.63
-230.18
-269.64
-290.16
-297.52
-291.64
-265.74
-217.38
-152.90
