1697967294.00
64.000000
-0.00
-0.00
-0.00
-0.00
-0.00
-0.00
-0.00
-0.00
-0.00
-0.00
0.00
0.01
0.01
-0.00
-0.03
-0.05
-0.05
0.00
0.13
0.36
0.66
1.01
1.37
1.72
2.06
2.40
2.79
3.24
3.80
4.42
5.06
5.66
6.20
6.68
7.15
7.68
8.31
9.14
10.09
11.04
11.88
12.56
13.14
13.76
14.65
15.96
17.91
20.32
22.90
25.38
27.58
29.57
31.68
34.32
37.81
42.54
48.15
54.10
59.83
64.97
69.58
74.14
79.34
85.71
93.76
103.00
112.62
121.73
129.77
136.75
143.30
150.75
157.77
166.64
177.95
191.79
206.97
220.57
228.25
225.36
208.53
176.87
132.76
80.05
23.07
-34.94
-92.44
-149.16
-205.23
-260.37
-313.74
-363.87
-409.84
-450.91
-486.51
-515.73
-537.21
-549.19
-549.93
-538.37
-514.27
-478.82
-434.12
-382.77
-327.39
-270.21
-212.99
-157.01
-103.32
-52.81
-6.44
34.94
70.72
100.64
124.83
143.77
158.10
168.47
175.50
179.62
181.18
180.51
177.92
173.76
168.32
161.87
154.64
146.82
138.63
130.34
122.19
114.36
106.90
99.65
92.40
84.90
77.10
69.18
61.51
54.53
48.51
43.43
38.88
34.32
29.25
23.53
17.45
11.66
6.81
3.30
1.00
-0.65
-2.39
-4.84
-8.22
-12.45
-17.25
-22.06
-26.03
-27.95
-26.55
-20.94
-11.25
1.13
13.87
24.58
31.81
35.42
36.54
36.54
36.28
35.78
34.34
31.28
26.51
20.91
16.09
13.77
14.84
18.78
23.71
27.11
27.14
23.55
17.85
12.49
9.59
9.86
12.33
15.11
16.51
15.85
13.56
10.63
7.79
5.12
2.13
-1.70
-6.44
-11.63
-16.29
-19.50
-20.81
-20.49
-19.37
-18.42
-18.21
-18.69
-19.25
-19.19
-18.10
-15.97
-13.03
-9.40
-4.97
0.41
6.60
13.02
18.74
22.88
24.94
25.06
23.81
21.86
19.74
17.67
15.61
13.35
10.49
6.69
1.86
-3.62
-8.89
-12.98
-15.35
-16.32
-16.89
-17.95
-19.58
-20.65
-19.36
-14.34
-5.64
5.05
15.10
22.24
25.56
25.58
23.53
20.53
16.92
12.50
7.09
0.95
-4.95
-9.28
-10.94
-9.66
-6.07
-1.42
2.82
5.52
6.26
5.37
3.74
2.34
1.83
2.28
3.15
3.66
3.26
1.91
0.15
-1.22
-1.62
-0.91
0.54
2.20
3.67
4.80
5.61
5.89
4.98
1.89
-4.07
-12.51
-21.71
-29.07
-32.26
-30.38
-24.45
-16.82
-9.99
-5.37
-2.80
-1.08
1.05
3.90
6.73
8.24
7.46
4.25
-0.80
-6.88
-13.45
-20.37
-27.54
-34.35
-39.46
-41.09
-37.96
-30.17
-19.47
-8.80
-1.07
2.10
0.80
-3.18
-6.91
-7.78
-4.70
1.47
8.58
14.31
17.29
17.45
15.80
13.65
11.80
10.23
8.27
5.14
0.36
-6.04
-13.65
-21.82
-29.94
-37.57
-44.36
-49.92
-53.70
-54.94
-53.07
-47.94
-40.02
-30.21
-19.72
-9.65
-0.66
7.13
14.08
20.32
25.58
29.26
31.10
31.38
31.12
31.94
35.38
42.42
52.64
64.52
76.38
87.20
96.46
103.71
108.14
108.51
103.93
93.90
78.97
60.84
41.98
24.37
8.72
-5.24
-19.84
-34.44
-46.59
-54.00
-57.13
-57.00
-54.39
-50.25
-45.23
-39.58
-32.89
-25.19
-17.14
-9.88
-4.38
-1.33
-0.88
-2.50
-5.20
-7.78
-9.81
-11.55
-13.55
-15.98
-18.60
-20.96
-22.67
-23.75
-24.62
-26.20
-29.35
-34.25
-40.07
-45.38
-48.81
-49.62
-47.93
-44.52
-40.45
-36.63
-33.36
-30.44
-27.45
-24.26
-21.13
-18.68
-17.64
-18.48
-21.15
-24.91
-28.51
-30.52
-29.84
-25.96
-19.07
-9.90
0.65
11.75
22.77
33.12
42.10
48.91
52.71
53.04
50.05
44.56
37.76
30.82
24.48
19.07
14.75
11.81
10.85
12.56
17.22
24.29
32.36
39.65
44.68
46.88
46.71
45.19
43.27
41.39
39.26
36.30
32.02
26.38
19.81
13.00
6.68
1.41
-2.43
-4.61
-4.97
-3.52
-0.50
3.54
7.80
11.43
13.71
14.38
13.79
12.77
12.41
13.64
16.89
22.04
28.47
35.43
42.29
48.61
54.10
58.43
61.13
61.74
60.02
56.22
51.09
45.63
40.78
37.05
34.44
32.64
31.25
30.07
29.06
28.21
27.31
25.91
23.41
19.29
13.32
5.55
-3.69
-14.03
-24.89
-35.48
-44.67
-51.25
-54.41
-54.15
-51.54
-48.30
-46.03
-45.47
-46.24
-47.13
-47.04
-45.66
-43.86
-43.41
-46.28
-53.79
-66.14
-82.28
-100.17
-117.25
-131.06
-139.71
-142.17
-138.34
-129.00
-115.44
-99.27
-82.01
-64.81
-48.32
-32.61
-17.29
-1.70
14.96
33.40
54.28
78.13
105.34
136.12
170.34
207.20
244.95
280.76
311.08
332.44
342.52
341.06
329.99
312.67
292.50
271.67
250.57
228.35
204.02
177.47
149.75
122.56
97.20
73.82
51.33
27.87
1.82
-27.40
-58.84
-89.97
-117.42
-137.95
-149.49
-151.92
-146.99
-137.63
-126.73
-116.25
-106.92
-98.85
-92.32
-88.37
-88.52
-93.80
-103.74
-116.09
-127.53
-135.03
-137.17
-134.61
-129.53
-124.32
-120.46
-117.97
-115.66
-112.05
-106.19
-98.07
-88.49
-78.58
-69.26
-60.96
-53.75
-47.56
-42.40
-38.49
-36.12
-35.53
-36.94
-40.74
-47.62
-58.51
-73.99
-93.44
-114.46
-132.94
-144.16
-144.50
-132.88
-111.31
-84.06
-56.04
-31.10
-11.17
3.57
13.70
19.77
21.77
19.63
13.73
5.42
-3.15
-9.69
-12.66
-11.85
-8.34
-3.87
-0.04
2.41
3.74
4.85
6.57
9.10
11.80
13.58
13.50
11.26
7.40
2.95
-1.06
-4.05
-6.03
-7.46
-8.88
-10.67
-12.86
-15.23
-17.52
-19.54
-21.43
-23.41
-25.65
-27.91
-29.45
-29.09
-25.68
-18.62
-8.27
4.06
16.43
26.93
34.25
37.90
38.16
35.77
31.58
26.34
20.67
15.01
9.82
5.52
2.46
0.81
0.50
1.21
2.63
4.62
7.38
11.20
16.14
21.59
26.12
27.87
25.25
17.65
5.77
-8.69
-23.61
-37.09
-47.86
-55.24
-59.17
-60.05
-58.55
-55.36
-50.86
-44.94
-37.19
-27.32
-15.79
-4.07
5.80
12.04
14.12
13.16
11.41
11.15
13.57
18.33
23.95
28.74
31.69
32.87
33.15
33.57
34.67
36.37
38.22
39.87
41.46
43.49
46.42
50.21
53.98
56.31
55.81
51.86
44.95
36.60
28.58
22.15
17.44
13.52
8.96
2.55
-6.13
-16.62
-27.91
-38.73
-47.91
-54.54
-58.09
-58.43
-55.91
-51.22
-45.34
-39.33
-34.23
-30.99
-30.44
-33.17
-39.46
-49.17
-61.79
-76.46
-91.89
-106.20
-116.99
-121.81
-119.09
-108.94
-93.39
-75.51
-58.06
-42.26
-27.57
-12.65
3.20
19.06
32.67
41.65
45.04
43.91
40.89
38.79
39.22
42.03
45.71
48.40
48.90
47.06
43.71
40.13
37.53
36.82
38.49
42.68
49.06
56.82
64.64
70.94
74.21
73.43
68.28
59.38
48.04
36.08
25.32
17.22
12.56
11.33
12.83
16.00
19.86
23.63
26.93
29.65
31.86
33.73
35.38
36.83
37.87
38.00
36.70
33.62
29.01
23.78
19.20
16.37
15.64
16.39
17.32
17.04
14.76
10.67
5.83
1.88
0.47
2.86
9.69
20.77
35.06
50.78
65.58
77.13
83.78
85.06
81.83
75.89
69.22
63.22
58.38
54.51
51.28
48.70
47.26
47.67
50.39
55.26
61.44
67.63
72.33
73.89
70.56
60.60
42.75
16.96
-15.29
-51.05
-86.86
-119.90
-148.84
-173.99
-196.48
-217.06
-235.24
-249.26
-256.93
-256.91
-249.33
-235.57
-217.28
-195.35
-169.62
-139.42
-104.77
-67.32
-30.42
1.92
26.51
42.21
50.12
52.86
53.30
53.54
54.52
56.40
59.12
62.95
68.56
76.74
87.75
100.94
114.53
126.10
133.41
135.32
132.25
125.97
118.65
111.66
104.84
96.57
84.76
68.09
46.86
23.05
-0.41
-20.82
-36.68
-47.83
-55.12
-59.57
-61.94
-62.76
-62.76
-63.37
-66.58
-74.32
-87.22
-103.75
-120.29
-132.31
-136.19
-130.67
-117.15
-98.77
-78.84
-59.63
-42.24
-27.10
-14.70
-5.66
-0.20
2.54
4.56
8.19
14.86
24.25
34.48
43.08
48.32
49.86
48.56
45.80
42.65
39.72
37.33
35.82
35.62
36.93
39.38
41.89
43.01
41.56
37.16
30.48
23.09
16.99
14.03
15.45
21.52
31.51
43.84
56.51
67.70
76.24
81.81
84.93
86.48
87.35
88.09
88.78
89.06
88.22
85.33
79.36
69.46
55.28
37.44
17.69
-1.26
-16.53
-26.08
-29.50
-28.18
-24.52
-20.91
-18.72
-18.04
-18.16
-18.35
-18.46
-18.90
-20.08
-21.94
-23.77
-24.68
-24.10
-22.28
-20.00
-18.11
-16.90
-15.89
-14.10
-10.46
-4.37
4.18
14.48
25.35
35.42
43.45
48.63
50.77
50.32
48.10
44.93
41.28
37.21
32.55
27.27
21.74
16.76
13.29
11.99
12.85
15.14
17.74
19.51
19.71
18.04
14.65
9.90
4.22
-1.89
-7.87
-13.23
-17.62
-21.04
-23.68
-25.65
-26.75
-26.31
-23.47
-17.60
-8.65
2.72
15.35
27.87
38.90
47.12
51.40
51.09
46.40
38.69
30.22
23.39
19.71
19.10
19.95
19.93
17.12
10.75
1.44
-9.24
-19.47
-27.68
-32.87
-34.67
-33.20
-28.95
-22.65
-14.99
-6.57
2.10
10.44
17.76
23.38
26.94
28.66
29.37
30.04
31.26
32.79
33.52
31.97
26.94
17.99
5.64
-8.93
-24.13
-38.37
-50.25
-58.71
-63.11
-63.27
-59.41
-52.25
-42.98
-33.27
-25.11
-20.40
-20.35
-24.88
-32.46
-40.48
-46.12
-47.43
-43.97
-36.81
-28.02
-19.90
-14.43
-13.13
-16.96
-26.36
-41.01
-59.48
-79.17
-96.68
-108.85
-113.77
-111.32
-102.93
-90.69
-76.31
-60.80
-44.74
-28.90
-14.74
-4.05
1.82
2.91
0.88
-1.51
-1.45
2.80
11.48
23.64
37.76
52.29
65.73
76.51
82.90
83.23
76.24
61.79
41.18
17.21
-6.30
-25.45
-37.30
-40.87
-37.34
-29.52
-20.71
-13.56
-9.41
-8.39
-10.21
-14.78
-22.43
-33.24
-46.25
-59.02
-68.25
-71.05
-66.27
-54.90
-39.40
-22.42
-5.63
10.64
26.66
42.30
56.28
66.47
70.79
68.55
61.14
51.73
44.22
41.78
45.86
55.88
69.50
83.41
94.12
98.56
94.68
81.92
61.54
36.64
11.38
-10.12
-25.18
-33.19
-35.51
-34.40
-31.84
-28.81
-25.32
-21.08
-16.08
-10.80
-5.86
-1.50
2.53
6.76
11.34
15.70
18.70
19.28
17.14
13.06
8.57
5.32
4.29
5.55
8.41
11.91
15.35
18.52
21.65
25.21
29.57
34.78
40.41
45.51
48.70
48.52
43.93
34.97
23.09
10.92
1.56
-2.51
-0.18
7.84
19.29
30.95
39.41
42.04
37.80
27.67
14.46
1.87
-6.79
-9.78
-7.50
-2.09
3.53
6.88
6.68
2.89
-3.69
-12.13
-21.69
-31.92
-42.35
-52.35
-61.09
-67.80
-72.13
-74.34
-75.35
-76.25
-77.76
-79.75
-81.07
-80.09
-75.35
-66.29
-53.57
-38.80
-23.96
-10.67
0.29
9.03
16.09
21.92
26.13
27.54
24.65
16.52
3.58
-12.33
-28.44
-41.98
-51.06
-54.98
-54.17
-49.78
-43.22
-35.83
-28.60
-22.07
-16.38
-11.47
-7.33
-4.21
-2.46
-2.28
-3.37
-4.85
-5.70
-5.19
-3.26
-0.45
2.63
5.66
8.72
11.98
15.28
18.00
19.29
18.61
16.17
12.93
10.22
9.08
9.67
11.22
12.32
11.65
8.65
3.77
-1.73
-6.39
-9.25
-10.11
-9.41
-7.81
-5.67
-3.04
0.21
3.99
7.77
10.77
12.41
12.72
12.38
12.42
13.78
16.88
21.59
27.34
33.32
38.55
41.93
42.52
39.93
35.09
30.47
29.76
36.81
54.23
82.22
118.20
157.44
194.29
223.54
241.61
247.19
241.35
227.22
209.05
191.12
176.66
166.98
161.18
156.65
150.15
139.11
122.71
102.24
80.71
61.70
48.02
40.77
39.02
40.13
40.59
36.77
25.68
5.61
-23.31
-58.69
-96.23
-130.71
-157.78
-175.49
-184.93
-189.55
-193.42
-199.39
-208.08
-217.90
-226.19
-230.42
-229.03
-221.70
-209.08
-192.54
-173.98
-155.72
-140.21
-129.50
-124.67
-125.41
-129.99
-135.70
-139.67
-139.64
-134.62
-125.05
-112.44
-98.81
-85.93
-74.90
-65.97
-58.84
-52.99
-48.07
-43.92
-40.54
-37.80
-35.41
-33.01
-30.36
-27.46
-24.49
-21.62
-18.80
-15.72
-12.06
-7.79
-3.23
1.00
4.42
7.07
9.52
12.72
17.46
23.90
31.48
39.04
45.35
49.59
51.50
51.40
49.84
47.31
44.04
40.11
35.58
30.74
26.08
22.17
19.48
18.20
18.17
18.92
19.77
20.12
19.53
17.92
15.54
12.92
10.70
9.45
9.51
11.04
13.92
17.88
22.61
27.85
33.57
40.05
47.80
57.31
68.72
81.54
94.73
106.94
116.92
123.72
126.74
125.66
120.42
111.44
99.76
87.04
75.12
65.37
58.22
53.13
49.16
45.67
42.71
40.90
40.86
42.64
45.56
48.47
50.28
50.31
48.31
44.22
37.94
29.24
18.02
4.50
-10.82
-27.27
-44.35
-61.93
-80.10
-98.73
-116.94
-132.93
-144.32
-148.92
-145.63
-134.99
-119.10
-100.82
-83.01
-67.68
-55.81
-47.54
-42.50
-40.12
-39.69
-40.42
-41.45
-42.11
-42.08
-41.46
-40.55
-39.52
-38.19
-36.11
-32.85
-28.35
-23.16
-18.28
-14.69
-13.00
-13.24
-14.90
-17.39
-20.26
-23.43
-27.04
-31.20
-35.88
-40.78
-45.51
-49.62
-52.62
-53.98
-53.01
-49.05
-41.62
-30.69
-16.71
-0.57
16.69
33.98
50.33
64.84
76.75
85.61
91.35
94.39
95.37
94.80
92.67
88.52
81.66
71.84
59.67
46.62
34.53
24.79
17.75
12.61
7.89
2.24
-4.94
-13.22
-21.46
-28.43
-33.34
-36.09
-37.17
-37.20
-36.57
-35.28
-32.99
-29.35
-24.22
-17.86
-10.83
-3.78
2.77
8.64
13.91
18.67
22.84
25.94
27.31
26.37
23.08
18.13
12.84
8.68
6.77
7.37
9.88
13.19
16.15
18.12
19.07
19.47
19.97
21.01
22.70
24.84
27.03
28.72
29.15
27.31
22.22
13.42
1.66
-10.98
-21.46
-26.85
-25.50
-17.76
-5.76
7.56
19.62
29.04
35.64
39.89
42.20
42.50
40.38
35.52
28.06
18.76
8.68
-1.03
-9.50
-16.22
-21.03
-23.99
-25.33
-25.37
-24.48
-23.07
-21.58
-20.57
-20.60
-22.10
-25.21
-29.67
-34.81
-39.89
-44.33
-47.99
-51.14
-54.09
-56.82
-58.72
-58.71
-55.75
-49.30
-39.69
-28.05
-15.87
-4.55
4.98
12.25
17.21
19.92
20.43
18.84
15.38
10.59
5.36
0.77
-2.19
-2.94
-1.61
1.10
4.15
6.63
8.14
8.79
9.01
9.13
8.99
8.06
5.72
1.66
-3.79
-9.80
-15.43
-20.06
-23.73
-27.01
-30.67
-35.37
-41.31
-48.23
-55.46
-62.03
-66.87
-68.89
-67.19
-61.27
-51.28
-38.05
-23.12
-8.36
4.33
13.49
18.37
18.97
16.01
10.65
4.25
-1.82
-6.42
-8.73
-8.40
-5.54
-0.65
5.50
12.14
18.67
24.68
29.97
34.42
37.91
40.37
41.70
41.90
41.02
39.19
36.59
33.47
30.12
26.86
23.84
20.96
17.88
14.02
8.93
2.57
-4.51
-11.16
-16.00
-17.79
-15.95
-10.70
-2.94
6.03
14.94
22.89
29.37
34.26
37.59
39.40
39.72
38.64
36.47
33.77
31.31
29.79
29.61
30.72
32.71
34.99
37.12
38.85
40.12
40.85
40.80
39.60
36.99
33.08
28.42
23.83
19.99
17.16
15.00
12.67
9.19
3.84
-3.57
-12.58
-22.17
-31.00
-37.88
-42.10
-43.66
-43.26
-42.00
-41.00
-41.13
-42.92
-46.70
-52.67
-60.79
-70.54
-80.75
-89.71
-95.61
-97.21
-94.27
-87.59
-78.59
-68.73
-59.03
-49.94
-41.59
-34.06
-27.55
-22.33
-18.54
-16.10
-14.67
-13.76
-12.91
-11.78
-10.18
-8.12
-5.82
-3.65
-2.02
-1.15
-0.77
-0.07
2.17
7.14
15.55
27.36
41.77
57.48
73.20
87.82
100.58
110.95
118.58
123.30
125.22
124.83
123.02
120.83
119.14
118.31
118.21
118.43
118.68
119.11
120.29
122.82
126.82
131.47
135.14
135.91
132.46
124.61
113.44
100.61
87.47
74.40
60.86
46.04
29.63
12.34
-4.20
-18.00
-27.43
-31.63
-30.65
-25.30
-17.03
-7.84
0.01
4.44
4.18
-0.85
-9.62
-20.56
-32.33
-44.22
-56.21
-68.47
-80.95
-93.16
-104.33
-113.75
-121.14
-126.68
-130.94
-134.51
-137.87
-141.21
-144.43
-147.23
-149.22
-150.00
-149.12
-146.06
-140.08
-130.44
-116.78
-99.39
-79.45
-58.66
-38.74
-20.80
-5.15
8.43
20.03
29.11
34.40
34.57
29.36
19.98
9.10
-0.01
-4.53
-3.20
3.54
13.66
24.36
33.24
38.47
38.90
34.08
24.39
11.06
-3.81
-17.86
-29.28
-36.94
-41.44
-45.00
-50.49
-59.93
-73.52
-88.97
-102.53
-110.44
-108.85
-96.91
-77.56
-56.33
-38.78
-28.83
-26.45
-28.96
-32.56
-30.60
-19.50
-0.81
19.70
35.52
41.49
38.30
30.27
23.72
30.36
58.61
110.08
180.17
261.41
344.28
422.33
489.05
537.82
570.30
589.25
596.26
592.35
580.22
562.56
546.20
536.26
492.32
394.94
254.11
101.09
-36.14
-131.45
-197.33
-243.13
-272.97
-288.91
-289.14
-272.90
-245.33
-215.43
-191.55
-180.37
-183.87
-198.96
-219.46
-233.60
-233.19
-219.68
-198.84
-176.65
-158.25
-144.10
-133.42
-125.80
-118.12
-108.00
-95.61
-82.75
-71.69
-65.00
-62.50
-62.97
-65.29
-67.50
-68.14
-67.72
-67.88
-70.46
-76.91
-86.34
-96.43
-104.66
-108.85
-107.29
-99.70
-86.43
-68.63
-48.40
-28.26
-11.24
2.19
9.92
10.80
5.71
-1.66
-7.30
-9.07
-7.56
-5.44
-6.19
-14.79
-31.16
-52.48
-72.74
-84.57
-81.55
-60.37
-22.08
28.19
82.88
135.79
179.27
208.79
223.82
227.02
222.05
211.36
195.17
171.95
140.94
103.67
65.81
35.61
21.19
27.53
54.88
99.09
153.10
209.10
259.48
298.02
320.12
323.24
307.79
277.45
238.79
199.59
166.67
143.81
131.36
126.64
125.18
122.26
114.08
98.49
75.20
45.68
12.35
-21.94
-54.96
-85.77
-114.97
-144.64
-177.87
-218.09
-268.11
-328.35
-395.29
-460.75
-513.13
-540.70
-535.85
-498.33
-435.83
-361.15
-287.55
-224.34
-175.13
-138.95
-113.23
-96.20
-87.35
-86.23
-90.88
-97.68
-102.52
-102.64
-97.29
-87.05
-72.53
-53.39
-28.76
1.45
35.40
69.49
99.64
123.05
139.23
149.68
156.73
162.19
166.46
168.47
166.16
157.28
140.29
115.06
83.26
47.92
12.27
-21.54
-53.36
-84.75
-118.06
-155.45
-198.29
-247.05
-301.10
-358.14
-413.64
-461.01
-492.95
-503.82
-491.82
-459.78
-413.95
-361.42
-307.58
-254.89
-203.51
-153.08
-104.40
-59.85
-22.43
5.89
25.48
39.07
50.59
63.35
78.71
95.78
112.33
126.32
137.02
145.12
151.94
158.36
164.17
168.31
169.70
168.12
164.37
159.87
155.89
152.96
150.89
149.17
147.45
145.67
143.89
141.98
139.57
136.27
131.94
126.92
121.77
116.88
112.08
106.72
100.05
91.69
81.99
71.89
62.48
54.54
48.35
43.78
40.61
38.78
38.38
39.49
41.96
45.23
48.51
50.96
52.04
51.61
49.90
47.38
44.50
41.62
38.89
36.30
33.80
31.35
29.02
26.98
25.47
24.62
24.34
24.36
24.29
23.79
22.83
21.57
20.30
19.19
18.13
16.82
14.96
12.42
9.32
5.92
2.38
-1.26
-5.02
-8.76
-11.97
-13.80
-13.37
-10.15
-4.25
3.55
12.11
20.27
27.25
32.67
36.48
38.73
39.43
38.56
36.21
32.70
28.62
24.67
21.50
19.48
18.65
18.80
19.51
20.42
21.23
21.76
21.92
21.68
21.06
20.09
18.81
17.20
15.23
12.84
10.04
6.96
3.85
0.98
-1.57
-3.98
-6.63
-9.92
-13.93
-18.22
-21.95
-24.09
-23.90
-21.16
-16.26
-10.09
-3.68
2.17
7.00
10.59
12.72
13.10
11.42
7.62
2.11
-4.32
-10.58
-15.72
-19.43
-22.12
-24.57
-27.55
-31.20
-35.18
-38.97
-41.89
-43.63
-44.51
-45.31
-46.79
-49.48
-53.07
-57.05
-61.07
-64.59
-67.10
-68.65
-69.77
-70.83
-72.08
-72.59
-71.52
-68.91
-64.65
-58.73
-51.94
-45.66
-40.88
-38.17
-35.86
-32.40
-27.47
-20.61
-11.08
1.43
16.97
36.10
59.10
87.71
122.07
152.10
166.77
162.37
143.78
118.32
97.01
78.71
63.28
51.80
45.74
44.32
48.57
57.20
65.57
67.11
51.46
16.92
-28.44
-71.48
-101.08
-112.50
-108.54
-96.40
-85.05
-77.85
-73.40
-69.21
-64.22
-58.57
-52.25
-45.47
-38.39
-31.53
-24.08
-14.05
-0.48
15.09
26.73
29.80
23.73
16.51
11.89
11.98
15.69
21.47
26.51
27.97
24.88
18.00
9.13
-0.44
-8.93
-14.94
-17.80
-18.20
-17.53
-16.57
-15.34
-13.25
-10.14
-5.54
0.54
7.59
14.72
21.41
28.17
36.12
46.21
58.20
71.26
83.91
94.49
101.21
102.48
97.23
85.10
66.59
42.92
16.18
-11.27
-37.29
-60.18
-78.49
-90.77
-95.77
-93.01
-83.34
-68.62
-51.03
-32.09
-12.50
7.28
26.00
41.01
48.91
46.96
34.67
14.36
-9.48
-31.97
-49.56
-60.78
-66.02
-66.61
-64.58
-62.17
-61.39
-62.93
-65.23
-64.81
-57.74
-41.62
-16.64
14.00
45.37
72.57
91.97
101.36
98.59
81.04
46.33
-5.08
-69.78
-141.55
-212.15
-272.88
-315.62
-335.18
-329.84
-301.23
-251.78
-187.08
-115.70
-47.30
9.98
52.85
81.16
97.12
104.44
110.51
120.94
137.42
158.65
182.17
208.20
236.57
266.13
295.16
326.21
360.38
395.15
425.23
444.57
451.46
444.91
424.53
366.46
266.99
146.85
37.72
-33.80
-75.80
-98.31
-108.84
-111.86
-110.50
-103.49
-91.18
-77.03
-65.82
-61.29
-61.67
-64.53
-68.17
-71.75
-71.55
-65.53
-55.09
-44.35
-38.36
-38.59
-45.01
-56.10
-68.87
-77.65
-78.35
-70.66
-57.58
-43.48
-30.39
-19.08
-9.32
-0.51
8.50
17.61
25.02
28.29
25.71
18.09
7.71
-2.75
-11.21
-16.44
-18.74
-19.48
-20.10
-21.30
-22.35
-21.82
-18.40
-11.53
-1.71
9.25
18.47
22.28
16.76
-1.64
-35.21
-84.10
-145.46
-213.17
-278.50
-331.84
-364.87
-372.73
-355.01
-315.30
-259.43
-193.45
-122.31
-49.80
20.61
84.92
138.53
177.35
199.04
203.79
194.08
173.56
145.99
114.53
81.67
49.53
20.15
-4.52
-22.81
-33.62
-36.63
-32.53
-23.07
-10.85
1.22
10.68
16.25
18.09
17.64
16.93
17.85
21.51
27.96
36.31
45.08
52.68
58.13
61.46
63.80
66.98
72.59
80.98
90.50
97.65
98.17
88.92
69.55
43.17
15.64
-6.58
-19.06
-21.49
-17.94
-15.22
-19.94
-35.63
-61.30
-91.98
-120.89
-141.93
-151.35
-148.20
-133.81
-110.95
-83.27
-54.95
-30.30
-13.02
-5.07
-6.00
-12.94
-21.45
-26.92
-25.92
-17.07
-1.33
18.30
37.48
51.73
57.68
54.06
42.04
24.71
5.91
-11.01
-23.98
-32.39
-36.84
-38.84
-40.29
-43.06
-48.36
-56.07
-64.72
-72.02
-76.13
-76.70
-75.38
-75.18
-79.16
-88.87
-103.60
-120.72
-136.96
-149.86
-158.60
-163.78
-166.29
-166.17
-162.24
-152.77
-136.73
-114.89
-89.87
-65.14
-43.58
-26.39
-13.08
-2.32
6.90
14.60
20.00
22.20
21.00
17.23
12.46
8.37
6.05
5.68
6.67
8.22
9.90
11.98
15.39
21.30
30.44
42.67
56.89
71.27
83.87
93.23
98.96
101.78
103.21
104.91
107.97
112.44
117.35
121.26
122.88
121.57
117.38
110.70
101.86
90.96
78.03
63.40
47.93
32.86
19.41
8.33
-0.30
-6.93
-12.17
-16.46
-19.88
-22.22
-23.27
-22.96
-21.50
-19.31
-16.90
-14.76
-13.26
-12.63
-12.96
-14.21
-16.22
-18.70
-21.29
-23.56
-24.97
-24.91
-22.69
-17.78
-10.01
0.29
12.25
24.70
36.46
46.68
54.91
60.93
64.59
65.70
64.11
60.02
54.15
47.76
42.24
38.68
37.43
38.00
39.21
39.71
38.48
35.12
29.93
23.68
17.21
11.15
5.69
0.66
-4.34
-9.72
-15.67
-22.13
-28.89
-35.71
-42.49
-49.24
-55.91
-62.18
-67.22
-69.81
-68.60
-62.64
-51.86
-37.23
-20.54
-3.89
10.98
22.96
31.69
37.33
40.21
40.73
39.30
36.51
33.15
30.06
27.95
27.23
27.79
29.07
30.36
31.09
31.14
30.82
30.46
30.25
29.98
29.13
27.16
23.78
19.20
14.19
9.59
5.83
2.75
-0.15
-3.33
-6.80
-9.96
-11.69
-10.29
-4.77
4.49
15.95
27.63
38.00
46.35
52.81
57.96
63.47
70.11
77.26
83.37
87.14
88.27
87.44
85.82
84.66
86.61
92.96
103.01
114.54
125.23
133.52
138.43
139.31
135.71
129.92
123.81
118.07
112.42
106.82
101.73
97.48
93.68
75.27
36.18
-17.84
-73.06
-118.21
-149.35
-167.91
-177.46
-181.56
-182.89
-180.03
-171.69
-158.50
-143.04
-128.19
-115.95
-107.14
-101.85
-99.37
-96.69
-91.55
-83.51
-73.92
-64.56
-56.70
-50.81
-46.73
-43.80
-40.10
-34.49
-27.30
-20.11
-14.66
-11.93
-11.94
-13.81
-16.11
-16.89
-15.00
-10.54
-4.67
1.20
6.09
9.63
12.03
13.73
15.22
16.47
17.06
16.49
14.83
12.88
11.89
12.91
16.16
20.81
25.30
28.14
28.59
27.00
24.49
22.30
21.16
20.98
21.08
20.68
19.29
16.96
14.07
11.09
8.27
5.60
2.89
-0.02
-3.07
-5.97
-8.31
-9.73
-10.14
-9.86
-9.48
-9.62
-10.62
-12.33
-14.21
-15.57
-15.96
-15.43
-14.42
-13.50
-13.02
-12.91
-12.73
-12.01
-10.50
-8.44
-6.40
-5.09
-5.01
-6.31
-8.83
-12.20
-16.13
-20.48
-25.24
-30.30
-35.35
-39.79
-43.00
-44.55
-44.53
-43.53
-42.40
-41.75
-41.70
-41.76
-41.12
-39.12
-35.59
-30.97
-26.09
-21.74
-18.38
-15.93
-13.90
-11.63
-8.60
-4.67
-0.09
4.65
9.01
12.65
15.46
17.57
19.10
20.07
20.36
19.77
18.24
15.91
13.17
10.50
8.30
6.69
5.54
4.53
3.38
1.94
0.21
-1.69
-3.69
-5.81
-8.16
-10.72
-13.23
-15.21
-16.10
-15.56
-13.63
-10.80
-7.77
-5.22
-3.45
-2.22
-0.85
1.46
5.25
10.55
16.87
23.40
29.33
34.12
37.75
40.40
42.23
43.09
42.66
40.73
37.44
33.38
29.38
26.41
25.01
24.97
25.49
25.67
24.99
23.46
21.49
19.59
18.61
19.05
20.66
22.52
23.47
22.80
20.50
17.17
13.75
11.90
12.82
16.50
21.49
25.75
27.83
27.43
25.44
23.43
24.17
29.88
41.19
56.89
74.69
92.37
107.96
119.59
118.85
100.14
64.86
22.66
-14.34
-38.36
-48.61
-49.84
-49.12
-52.40
-61.00
-72.26
-81.90
-86.76
-86.32
-82.49
-78.43
-76.89
-78.81
-81.90
-82.12
-75.74
-61.36
-40.64
-17.34
4.26
21.11
32.48
39.77
44.80
48.43
50.18
49.45
46.93
45.05
46.52
52.10
59.01
61.68
54.43
34.93
6.15
-24.51
-48.54
-60.32
-59.37
-49.93
-37.78
-27.16
-19.19
-12.71
-6.44
-0.53
3.09
3.33
-1.20
-10.11
-21.20
-31.03
-36.73
-37.71
-35.57
-33.16
-33.28
-38.30
-48.83
-63.46
-78.97
-91.84
-100.35
-104.34
-104.67
-102.19
-98.35
-94.17
-90.20
-85.97
-80.99
-76.11
-72.46
-70.44
-65.28
-53.43
-34.56
-12.15
9.15
31.07
55.82
84.82
116.85
149.71
179.99
204.50
215.11
207.89
185.46
155.16
125.29
101.19
84.33
72.57
62.78
52.49
41.72
31.81
23.48
17.12
13.08
11.67
11.06
7.97
-1.76
-20.87
-49.10
-82.87
-114.40
-133.55
-131.49
-104.70
-56.78
2.40
60.66
106.83
130.62
125.23
90.04
31.27
-39.39
-106.68
-154.93
-171.70
-151.93
-101.36
-33.70
34.72
90.69
127.32
144.11
144.22
131.38
107.82
72.78
26.18
-28.71
-85.18
-135.99
-176.66
-207.13
-230.88
-243.07
-239.83
-221.61
-194.86
-167.31
-143.21
-122.04
-99.60
-70.26
-29.71
20.36
72.58
116.22
141.83
145.35
129.54
102.74
74.98
53.54
39.56
30.38
21.98
13.26
5.92
1.81
1.08
1.71
0.75
-4.62
-14.76
-27.02
-36.96
-40.14
-34.72
-22.00
-5.43
10.96
23.74
31.31
34.27
31.97
26.52
20.21
14.54
9.92
6.03
2.40
-0.95
-3.49
-4.50
-2.24
3.56
11.14
17.48
20.18
18.91
15.31
11.86
10.24
12.76
19.86
30.15
41.49
52.43
62.62
71.96
79.72
84.38
87.36
90.80
96.62
106.08
120.02
138.87
162.10
188.13
201.38
191.80
159.68
115.24
69.53
28.59
-5.92
-34.18
-54.98
-71.03
-81.54
-85.84
-84.81
-80.89
-76.61
-73.39
-71.42
-70.56
-71.14
-70.86
-68.12
-62.77
-56.18
-49.90
-44.83
-41.53
-39.86
-39.79
-39.71
-38.23
-34.74
-29.15
-22.08
-14.05
-5.14
4.91
15.99
28.05
39.40
47.62
50.76
49.00
44.43
39.81
37.28
37.52
39.85
42.41
42.96
39.19
29.99
15.85
-1.32
-18.84
-34.42
-46.97
-57.12
-62.92
-64.49
-62.68
-58.55
-53.19
-47.72
-43.24
-40.55
-39.83
-40.45
-41.87
-43.56
-45.37
-47.63
-50.73
-54.81
-59.58
-64.28
-67.89
-69.81
-69.44
-66.37
-60.52
-52.34
-42.99
-34.27
-27.93
-24.95
-25.31
-27.82
-30.68
-32.28
-31.75
-29.31
-26.08
-23.29
-21.68
-21.42
-21.91
-21.94
-20.09
-14.80
-5.41
7.65
23.17
39.75
56.14
71.54
85.45
97.64
108.33
117.18
123.30
125.91
124.68
119.75
111.50
100.51
87.87
75.85
66.43
60.53
57.78
56.44
53.75
46.87
34.05
12.34
-14.89
-40.14
-57.76
-67.53
-72.88
-76.96
-80.58
-82.50
-81.01
-75.06
-65.89
-56.68
-48.59
-41.40
-33.87
-24.89
-14.87
-5.90
-0.24
0.33
-3.85
-10.13
-14.92
-16.06
-12.77
-6.56
-0.53
2.33
0.18
-6.32
-14.64
-21.74
-25.70
-26.33
-24.93
-23.43
-23.27
-24.77
-25.78
-22.77
-12.09
7.84
36.07
69.68
104.94
138.67
162.79
170.70
161.34
140.78
116.93
94.60
74.49
55.11
34.97
13.90
-5.09
-19.61
-26.47
-24.10
-13.12
4.05
23.97
42.64
56.06
60.74
52.91
32.08
1.03
-33.95
-64.10
-80.85
-78.99
-58.99
-27.67
5.74
33.69
51.46
57.31
51.41
34.55
7.18
-30.14
-77.12
-130.09
-181.34
-222.06
-245.78
-250.90
-240.79
-221.96
-190.30
-147.87
-101.94
-60.31
-26.82
-1.09
18.61
34.19
47.76
61.41
74.56
85.87
94.16
98.70
99.89
99.16
98.31
98.32
98.55
95.69
87.44
75.29
61.73
50.18
42.87
39.65
38.72
37.59
33.57
25.83
15.60
4.81
-4.84
-12.73
-19.04
-23.84
-26.98
-28.63
-29.04
-28.19
-26.41
-24.74
-23.98
-25.83
-31.13
-39.37
-49.11
-58.43
-65.11
-67.81
-66.50
-62.16
-55.90
-47.84
-37.43
-24.44
-9.66
5.99
21.82
37.39
52.89
68.64
85.10
102.06
117.95
125.45
118.47
98.27
73.34
52.65
39.48
32.15
26.89
21.01
14.57
10.47
12.73
22.47
36.56
47.81
49.03
36.42
10.53
-25.37
-67.59
-111.10
-152.60
-182.12
-191.88
-180.68
-154.39
-121.15
-87.32
-55.97
-27.69
-2.33
19.87
37.33
48.79
54.42
56.07
55.97
55.79
56.20
56.64
55.68
51.87
45.37
38.16
32.96
31.29
32.76
35.62
37.75
36.75
31.34
22.58
13.03
5.40
1.02
-0.46
-0.43
-0.61
-4.03
-13.74
-29.18
-49.58
-73.49
-98.68
-121.56
-137.43
-133.95
-106.22
-61.84
-16.97
14.23
27.01
25.43
17.80
11.67
10.54
12.35
13.36
11.71
8.36
6.02
6.83
11.06
17.21
23.01
25.54
23.69
18.71
13.44
10.55
11.16
14.57
18.92
22.18
22.44
19.28
13.92
8.57
5.09
4.02
4.47
4.67
2.91
-2.37
-10.89
-21.33
-31.76
-40.49
-46.74
-50.85
-54.01
-57.71
-63.35
-71.41
-81.29
-91.00
-97.26
-96.31
-85.15
-62.93
-31.69
4.08
38.77
67.32
86.75
97.10
101.05
102.81
106.39
113.98
124.94
135.86
140.99
134.03
110.56
70.09
16.61
-42.61
-99.52
-148.27
-182.25
-197.16
-193.59
-176.74
-154.60
-135.76
-127.35
-133.30
-152.77
-179.77
-203.93
-215.39
-208.24
-181.61
-138.81
-85.26
-26.33
34.38
95.23
156.91
217.24
270.11
308.06
326.33
324.83
307.63
281.20
252.15
228.08
212.23
202.99
196.93
191.77
186.70
181.13
174.05
145.80
92.67
28.48
-29.17
-72.24
-100.97
-118.07
-125.78
-125.58
-118.88
-104.98
-85.84
-66.41
-51.56
-42.96
-39.30
-38.24
-38.21
-39.21
-40.03
-40.93
-43.34
-48.09
-54.13
-59.45
-62.39
-62.53
-60.44
-55.77
-49.26
-42.99
-39.27
-39.25
-42.53
-47.35
-51.64
-53.76
-52.51
-48.33
-42.82
-37.70
-33.67
-30.52
-27.36
-23.86
-20.42
-17.54
-15.63
-14.54
-13.55
-11.70
-8.36
-3.27
2.77
8.35
12.12
13.33
12.41
10.61
9.59
8.06
5.98
3.34
0.09
-3.66
-7.52
-10.22
-10.64
-8.54
-4.89
-0.95
1.79
2.13
-0.43
-5.65
-11.40
-15.53
-17.07
-16.55
-14.56
-11.50
-7.19
-1.16
7.03
19.31
36.32
56.19
74.99
89.19
97.06
98.87
96.16
91.01
88.06
91.29
102.22
119.98
143.12
170.41
200.49
231.23
244.03
226.64
181.66
124.84
71.84
30.71
2.89
-13.47
-21.59
-24.74
-22.95
-15.79
-4.20
9.53
23.78
37.26
49.52
60.43
70.15
80.95
94.19
108.44
119.90
124.65
120.71
109.00
92.82
76.42
66.74
68.67
81.85
101.12
119.17
129.40
128.06
115.05
93.32
67.95
43.25
20.10
-1.95
-23.36
-44.33
-64.92
-85.09
-104.72
-123.56
-141.92
-163.10
-188.58
-217.33
-247.43
-277.91
-309.05
-341.71
-376.38
-412.50
-451.71
-490.85
-522.61
-540.05
-540.60
-526.49
-502.67
-474.42
-445.39
-421.67
-402.80
-382.60
-354.42
-315.84
-268.66
-216.82
-164.47
-82.79
26.52
138.32
227.53
286.32
319.35
334.41
338.45
336.64
332.39
322.33
305.47
284.05
260.78
236.54
211.81
188.50
169.44
156.87
147.04
136.83
125.10
112.15
98.13
83.71
70.86
61.74
57.75
56.55
56.84
59.10
64.27
72.26
80.73
87.83
91.97
91.37
83.17
66.27
42.38
15.54
-9.00
-27.68
-37.82
-39.14
-33.99
-26.76
-21.44
-19.88
-21.75
-25.24
-28.29
-29.27
-28.13
-26.29
-25.82
-28.39
-34.54
-44.30
-57.11
-72.23
-88.53
-104.71
-119.22
-130.26
-136.25
-135.88
-129.14
-117.18
-101.61
-83.59
-63.67
-42.06
-19.02
4.80
29.38
53.92
76.87
96.26
110.53
118.88
121.38
119.00
113.23
107.36
103.71
103.10
105.34
110.13
117.28
126.41
136.56
146.17
155.21
162.31
164.89
160.70
149.90
135.82
123.96
120.09
114.27
101.90
83.58
62.77
41.91
22.36
5.19
-9.47
-22.94
-37.47
-52.26
-65.38
-74.66
-79.06
-79.54
-78.99
-80.81
-86.52
-94.59
-99.53
-96.74
-85.46
-69.15
-53.48
-43.45
-41.38
-45.95
-53.39
-58.39
-57.70
-51.41
-42.36
-34.27
-29.96
-30.56
-35.09
-42.01
-49.68
-57.51
-65.51
-72.87
-76.95
-73.06
-58.76
-34.53
-4.86
23.35
43.56
52.64
52.02
46.31
40.34
36.46
34.33
31.99
28.16
23.46
19.99
19.59
22.21
25.87
27.45
25.33
20.29
14.93
11.97
12.49
15.31
17.74
17.17
12.24
3.24
-8.50
-21.41
-33.90
-44.38
-51.15
-52.62
-47.98
-37.99
-25.04
-12.43
-3.14
1.15
0.38
-4.23
-11.06
-18.52
-25.65
-32.09
-37.97
-43.53
-48.91
-54.15
-59.12
-63.67
-67.14
-68.47
-66.18
-58.48
-43.77
-21.24
8.43
43.04
77.31
105.19
121.75
124.73
115.39
98.08
78.85
63.46
55.77
56.85
64.99
76.05
84.60
85.95
77.90
61.74
41.51
22.42
9.01
3.18
2.85
2.65
-3.32
-18.47
-41.66
-67.82
-90.07
-102.14
-100.95
-87.70
-66.77
-42.92
-19.25
3.05
22.87
35.41
35.26
21.37
-1.26
-24.81
-42.40
-51.53
-51.79
-45.03
-34.56
-22.96
-12.00
-2.20
6.30
13.91
21.13
28.43
35.69
42.31
47.71
50.85
50.04
42.64
27.78
7.19
-14.93
-33.75
-45.33
-47.35
-39.71
-24.45
-5.76
13.34
31.69
49.68
67.90
86.59
106.14
126.99
148.70
162.18
159.33
138.51
106.61
73.93
48.29
34.66
30.55
30.50
26.57
12.92
-12.67
-48.59
-91.27
-137.70
-185.50
-232.98
-269.99
-289.58
-291.44
-281.60
-266.68
-250.73
-235.95
-229.49
-226.61
-222.49
-214.71
-201.47
-181.53
-154.70
-117.82
-74.15
-28.23
16.61
56.32
85.65
100.30
98.70
83.42
60.94
39.39
27.50
32.22
54.66
89.73
128.69
162.50
184.52
191.75
184.21
165.06
139.52
112.07
85.51
61.20
39.55
20.69
4.82
-8.08
-17.78
-23.73
-25.84
-24.00
-17.77
-6.31
11.11
34.27
61.20
88.67
113.10
131.85
144.51
152.97
160.17
168.25
177.28
185.12
188.82
186.33
177.89
166.06
154.42
145.95
141.96
141.90
143.62
144.06
139.79
128.01
107.94
81.42
52.61
26.86
8.75
-0.01
-1.34
0.29
0.28
-3.69
-11.50
-22.07
-34.83
-50.50
-71.11
-98.92
-134.65
-176.30
-218.93
-256.00
-281.65
-292.11
-286.41
-266.70
-237.45
-203.81
-169.51
-134.92
-97.86
-55.84
-7.73
45.39
100.28
152.57
196.71
223.08
227.48
217.29
204.68
198.04
199.25
205.95
212.24
214.13
210.41
201.13
188.60
174.80
160.75
145.71
127.73
105.07
77.72
47.57
14.20
-20.13
-51.47
-77.55
-99.73
-121.38
-145.41
-172.67
-201.93
-236.89
-276.05
-312.93
-341.67
-361.35
-375.07
-387.15
-401.36
-420.01
-451.61
-495.33
-539.75
-570.97
-580.89
-568.19
-536.25
-490.70
-384.79
-221.98
-49.31
87.64
176.17
225.77
250.75
262.59
268.17
269.80
259.31
234.93
204.29
177.75
161.41
156.23
160.03
168.94
180.51
182.93
169.82
145.31
119.11
98.96
87.63
83.59
82.88
81.12
71.06
51.63
28.34
8.00
-5.98
-13.83
-17.64
-19.82
-22.10
-27.23
-35.04
-42.63
-46.99
-47.04
-43.23
-36.73
-28.39
-18.69
-8.74
1.03
10.86
20.82
30.48
39.13
46.16
51.21
54.14
55.01
54.35
53.20
52.69
53.66
56.27
59.89
63.48
66.02
66.95
66.39
64.90
63.05
60.90
58.07
53.92
48.08
40.75
32.64
24.64
17.40
10.92
4.72
-1.79
-8.77
-15.67
-21.32
-24.43
-24.17
-20.57
-14.52
-7.31
-0.08
6.53
12.39
17.58
22.10
25.78
28.47
30.30
31.92
34.31
38.43
44.65
52.68
61.56
70.08
77.26
82.58
86.02
87.80
88.12
86.92
83.94
79.04
72.55
65.38
58.79
53.88
51.18
50.49
51.19
52.64
54.52
56.69
58.94
60.72
61.22
59.76
56.08
50.49
43.47
35.16
25.10
12.46
-3.50
-22.73
-44.35
-66.73
-87.91
-106.05
-119.57
-127.43
-129.16
-125.06
-116.24
-104.41
-91.64
-79.88
-70.50
-64.06
-60.46
-59.19
-59.71
-61.63
-64.75
-69.01
-74.28
-80.17
-85.71
-89.52
-89.98
-85.55
-75.08
-57.98
-34.82
-7.48
21.04
47.32
68.02
80.65
84.18
79.09
67.39
50.89
30.30
5.41
-24.12
-58.13
-95.33
-133.21
-168.74
-198.53
-221.34
-238.04
-249.80
-256.19
-255.07
-243.78
-220.71
-186.51
-142.86
-93.92
-44.97
0.14
40.39
76.17
107.93
135.80
160.23
184.00
208.33
231.49
249.48
258.10
253.52
233.65
199.53
145.28
79.95
22.98
-12.15
-26.83
-30.22
-31.49
-35.25
-40.75
-43.27
-35.35
-14.13
19.10
58.95
98.95
132.02
152.50
157.95
149.99
134.82
118.60
105.12
92.88
83.71
78.65
77.16
77.65
78.15
77.65
74.72
67.06
54.18
38.93
25.12
15.93
12.72
14.73
20.11
26.35
30.06
30.45
29.18
26.83
21.31
8.87
-13.95
-48.23
-92.62
-146.00
-203.63
-257.76
-300.84
-328.11
-338.25
-334.01
-320.91
-306.24
-298.82
-300.04
-303.28
-298.87
-280.42
-246.92
-202.74
-153.55
-86.71
-9.55
60.45
112.09
146.33
168.07
183.28
194.46
204.18
214.08
221.72
227.07
227.54
221.93
208.45
186.63
152.23
110.86
71.81
38.79
11.47
-11.05
-27.67
-38.69
-42.99
-41.82
-36.62
-30.37
-28.07
-32.09
-40.86
-50.46
-57.52
-59.68
-56.65
-48.92
-38.49
-28.23
-18.97
-9.01
3.39
17.68
31.25
40.71
44.92
45.30
45.41
46.53
50.55
57.37
64.28
67.96
66.66
61.19
53.71
46.21
39.75
35.03
32.02
30.36
29.69
29.45
28.83
26.59
21.22
11.89
-0.48
-13.91
-25.92
-34.62
-39.57
-42.10
-43.72
-45.56
-47.76
-49.15
-48.43
-45.05
-39.67
-33.32
-27.83
-23.66
-20.02
-15.67
-9.76
-2.86
3.38
7.18
7.70
5.47
2.16
-0.50
-1.51
-0.48
2.46
7.03
12.80
19.21
25.45
30.68
34.56
36.36
36.02
33.97
30.66
26.27
20.72
13.93
6.14
-1.98
-9.42
-14.69
-16.18
-13.16
-6.50
1.66
8.82
13.33
14.88
14.35
13.50
14.32
17.67
22.65
27.14
28.73
25.26
15.21
-1.79
-23.61
-44.98
-59.40
-61.81
-50.31
-26.70
4.63
38.89
69.98
88.99
91.56
80.25
61.30
40.41
21.16
5.08
-7.76
-18.65
-29.27
-40.21
-51.04
-60.45
-66.62
-67.98
-64.07
-56.17
-46.79
-38.06
-30.12
-21.81
-12.09
-1.16
9.49
17.75
21.95
21.73
18.09
12.61
5.92
-3.11
-16.47
-35.15
-57.49
-78.87
-93.14
-95.12
-83.07
-60.16
-33.50
-11.42
-0.14
-1.54
-12.81
-27.93
-40.21
-45.16
-42.05
-33.57
-23.99
-16.96
-14.01
-14.43
-17.04
-20.22
-22.51
-22.54
-18.68
-9.42
5.75
25.37
45.86
62.63
72.63
75.31
72.69
68.05
63.74
59.77
54.29
45.40
33.25
21.08
12.85
11.25
16.43
26.23
37.73
48.84
58.96
68.22
76.85
83.17
84.11
77.10
61.52
39.40
14.98
-6.44
-23.10
-29.98
-22.22
1.28
36.06
73.26
102.67
115.75
108.30
81.81
43.28
1.40
-36.52
-66.13
-86.03
-96.48
-98.05
-91.02
-76.12
-55.28
-33.23
-16.33
-9.06
-12.36
-22.70
-33.72
-39.33
-36.52
-25.93
-11.08
3.85
15.95
24.00
27.63
26.29
19.17
5.78
-12.50
-32.48
-50.21
-62.41
-67.94
-68.01
-65.46
-61.80
-58.97
-57.66
-57.09
-55.32
-49.68
-38.14
-20.76
-0.03
19.82
34.28
40.51
37.93
27.79
13.05
-2.93
-17.23
-27.29
-30.17
-23.36
-5.89
20.06
48.98
74.95
92.93
99.68
93.76
75.67
47.62
13.55
-21.18
-50.41
-67.15
-66.56
-48.48
-17.36
20.91
62.16
104.87
148.57
182.00
191.73
172.04
129.75
77.89
28.70
-9.59
-34.07
-46.95
-53.47
-57.15
-58.86
-58.12
-55.10
-51.22
-48.26
-48.05
-51.84
-58.50
-64.38
-65.27
-58.89
-46.38
-31.29
-17.66
-8.63
-5.37
-6.75
-9.59
-9.90
-5.19
4.33
16.35
27.65
35.02
36.10
29.62
16.78
0.99
-13.21
-21.40
-20.83
-10.61
7.25
27.93
44.63
51.44
45.25
26.62
-0.60
-30.74
-58.28
-79.67
-90.85
-92.56
-86.82
-75.08
-58.33
-38.00
-16.85
1.53
14.07
19.97
20.59
19.34
19.46
22.35
27.38
32.38
35.48
35.34
31.90
25.66
18.01
10.61
4.83
1.93
2.28
5.39
9.88
14.10
16.17
14.76
9.09
-0.92
-13.74
-27.19
-38.93
-47.51
-52.61
-55.20
-56.98
-59.88
-65.60
-71.67
-75.83
-75.75
-69.47
-55.34
-32.42
-1.00
37.25
73.90
99.86
111.40
110.98
103.53
93.39
83.13
73.83
65.79
59.26
55.48
55.01
56.76
57.80
54.78
45.64
30.61
12.11
-6.44
-21.46
-30.94
-34.95
-35.20
-33.87
-32.84
-33.55
-37.05
-43.79
-52.71
-61.45
-67.02
-66.93
-60.13
-47.45
-31.23
-14.51
0.06
10.94
17.41
19.07
15.73
7.77
-3.31
-15.00
-24.38
-29.35
-29.03
-24.30
-17.38
-10.74
-6.00
-3.44
-2.18
-0.81
1.76
5.86
10.93
15.84
19.34
20.57
19.36
16.20
12.04
7.86
4.30
1.53
-0.75
-2.96
-5.31
-7.65
-9.56
-10.48
-10.11
-8.54
-6.13
-3.38
-0.58
2.33
5.52
9.15
13.27
17.64
21.73
25.00
27.00
27.67
27.44
26.86
26.54
27.01
28.48
29.80
29.81
27.47
22.16
14.06
3.74
-7.86
-19.60
-30.58
-40.32
-48.48
-54.78
-58.78
-57.96
-51.01
-39.00
-25.00
-12.30
-3.00
2.15
3.63
2.05
-1.61
-6.21
-10.27
-12.33
-11.57
-8.68
-5.28
-3.36
-4.58
-9.17
-16.14
-23.34
-28.44
-30.21
-29.06
-26.82
-25.52
-27.12
-32.29
-40.55
-49.70
-56.29
-56.23
-45.53
-21.72
14.88
58.77
100.32
128.50
135.91
122.31
95.02
66.37
48.43
48.69
62.87
80.40
88.46
81.31
63.02
41.78
27.01
17.77
11.05
4.30
-2.25
-5.81
-3.43
6.46
21.43
33.37
34.46
23.14
4.01
-15.43
-29.28
-34.93
-33.24
-27.73
-22.35
-19.83
-20.46
-23.60
-28.23
-33.36
-37.71
-40.07
-39.92
-37.37
-33.03
-27.46
-21.98
-17.61
-15.28
-15.20
-16.81
-19.28
-21.66
-22.99
-22.43
-19.84
-15.75
-11.20
-7.04
-3.69
-1.16
0.88
2.88
5.19
7.70
9.88
10.96
10.00
6.58
0.84
-6.68
-15.22
-24.13
-33.12
-42.25
-51.75
-61.71
-71.78
-81.31
-89.41
-95.27
-98.29
-98.06
-94.33
-86.98
-76.00
-61.64
-44.64
-26.20
-7.85
9.03
23.55
35.53
45.44
54.02
61.99
69.73
77.20
84.10
89.98
94.49
97.33
98.26
96.98
93.26
86.96
78.26
67.73
56.29
45.04
34.92
26.50
19.94
14.98
11.20
8.20
5.80
4.06
3.23
3.52
4.95
7.18
9.60
11.53
12.57
12.74
12.60
12.86
14.12
16.43
19.26
21.67
22.76
21.99
19.42
15.54
10.98
6.25
1.53
-3.17
-7.82
-12.17
-15.75
-18.07
-18.84
-18.25
-16.88
-15.47
-14.55
-14.21
-14.05
-13.50
-12.09
-9.86
-7.30
-5.12
-3.78
-3.28
-3.04
-2.26
-0.29
3.00
7.19
11.54
15.32
18.03
19.40
19.27
17.40
13.50
7.47
-0.45
-9.52
-18.72
-27.12
-34.22
-40.11
-45.38
-50.76
-56.70
-63.10
-69.27
-74.15
-76.67
-76.10
-72.35
-65.90
-57.62
-48.41
-38.96
-29.70
-20.90
-12.88
-6.12
-1.15
1.71
2.61
2.16
1.26
0.62
0.41
0.12
-1.12
-4.10
-9.05
-15.52
-22.53
-28.97
-33.90
-36.88
-37.89
-37.19
-35.17
-32.17
-28.43
-24.07
-19.12
-13.66
-7.74
-1.49
4.95
11.45
17.81
23.80
29.10
33.23
35.71
36.20
34.65
31.40
27.13
22.64
18.62
15.45
13.12
11.41
10.07
9.01
8.31
8.18
8.72
9.81
11.11
12.21
12.86
13.06
13.05
13.04
12.99
12.50
10.90
7.61
2.49
-3.92
-10.60
-16.47
-20.64
-22.73
-22.72
-20.89
-17.53
-12.87
-7.01
-0.21
7.04
13.97
19.80
23.98
26.39
27.34
27.43
27.44
27.87
28.72
29.58
29.90
29.30
27.68
25.20
22.08
18.98
16.22
13.64
10.83
7.69
4.65
2.52
2.04
3.58
7.87
14.86
23.59
32.70
41.29
49.33
57.20
65.15
72.89
81.10
89.68
97.60
103.59
107.35
109.87
112.64
116.58
121.59
128.61
137.58
147.20
155.47
160.72
161.76
157.23
145.29
112.95
56.53
-15.41
-86.39
-142.92
-180.46
-201.41
-210.34
-210.63
-203.29
-186.31
-159.40
-126.05
-92.72
-65.45
-46.96
-36.13
-29.81
-25.08
-19.74
-14.50
-12.00
-14.64
-22.41
-32.54
-41.16
-45.65
-45.39
-41.22
-35.71
-32.25
-33.49
-39.82
-48.86
-56.40
-58.14
-51.54
-35.81
-12.99
13.13
38.20
59.08
74.65
85.33
90.91
92.15
88.28
77.76
59.86
36.02
10.23
-12.28
-27.40
-34.07
-34.11
-31.19
-28.24
-26.12
-24.25
-22.10
-20.74
-22.17
-28.59
-40.17
-54.60
-67.89
-76.58
-79.47
-77.97
-74.34
-69.70
-62.80
-50.54
-30.14
-1.30
32.48
64.64
87.85
96.06
88.21
67.57
40.04
11.97
-11.32
-26.27
-31.52
-27.68
-17.33
-4.37
6.83
12.87
11.96
4.30
-8.20
-22.31
-34.07
-39.82
-37.55
-28.19
-15.74
-6.18
-4.40
-11.86
-25.37
-38.48
-45.08
-42.69
-33.27
-21.19
-10.11
-1.13
7.22
17.02
28.71
40.20
47.55
46.68
35.23
14.50
-9.80
-29.28
-36.13
-27.30
-6.47
16.85
31.65
30.85
14.58
-10.64
-36.14
-55.50
-66.57
-70.47
-68.24
-59.01
-40.62
-12.40
22.71
57.92
85.48
100.38
102.61
96.43
88.00
82.45
82.04
86.01
91.37
94.76
93.06
84.56
69.64
50.62
31.17
14.67
3.31
-2.57
-4.28
-3.99
-3.84
-5.44
-9.46
-15.36
-21.56
-25.90
-26.69
-23.87
-19.68
-17.83
-21.81
-33.02
-49.31
-66.32
-79.73
-87.48
-90.23
-90.17
-88.74
-85.53
-79.36
-68.81
-54.68
-39.70
-26.81
-17.31
-10.02
-1.99
9.26
23.95
39.71
52.50
58.77
57.00
48.23
35.15
21.12
9.23
1.22
-2.45
-2.74
-1.24
0.61
2.23
4.05
7.20
12.37
19.08
25.60
29.46
28.70
22.96
13.75
4.03
-2.93
-4.96
-1.73
5.19
13.00
18.79
20.57
17.70
11.13
3.14
-3.27
-5.18
-0.97
8.75
20.89
31.11
35.16
30.79
18.72
2.43
-13.64
-25.29
-30.13
-28.13
-21.25
-12.41
-3.94
3.14
8.93
13.88
17.53
17.92
12.40
-0.86
-21.75
-47.34
-72.78
-93.05
-104.62
-106.20
-98.45
-83.18
-62.69
-39.48
-15.90
6.01
24.78
39.63
50.21
56.13
56.91
52.46
43.63
32.67
22.53
15.53
12.26
11.22
9.67
5.25
-3.03
-14.10
-25.44
-34.34
-39.10
-39.05
-34.81
-27.69
-19.29
-11.37
-5.97
-5.35
-11.28
-24.03
-41.04
-56.72
-63.61
-55.75
-31.96
1.33
33.39
54.11
59.19
52.10
41.56
36.69
42.12
56.28
73.58
88.35
97.50
101.03
100.80
97.02
88.84
74.81
54.42
29.35
3.71
-17.28
-29.39
-31.33
-26.05
-19.77
-19.41
-28.91
-46.57
-65.40
-76.65
-74.36
-58.61
-35.30
-12.61
2.98
9.25
7.96
2.65
-3.75
-9.90
-15.63
-20.77
-24.54
-25.76
-24.26
-20.69
-16.38
-12.61
-10.30
-9.69
-10.71
-12.95
-15.69
-17.93
-18.45
-16.34
-11.29
-3.91
4.41
11.94
17.18
19.34
18.47
15.39
11.18
6.74
2.48
-1.62
-5.80
-10.09
-14.09
-17.07
-18.38
-17.94
-16.38
-14.68
-13.59
-13.24
-13.02
-11.85
-8.76
-3.21
4.70
13.71
22.30
29.12
33.35
34.81
33.91
31.40
28.06
24.43
20.76
17.10
13.47
9.99
6.91
4.66
3.70
4.15
5.67
7.30
7.94
6.88
4.09
0.16
-3.99
-7.42
-9.95
-11.85
-13.65
-15.28
-15.75
-13.58
-8.54
-1.76
4.65
8.85
11.00
12.50
14.63
17.42
19.34
18.12
12.28
4.05
-4.23
-9.16
-7.68
1.84
19.06
41.61
65.76
83.40
89.02
81.00
62.27
38.27
14.47
-5.33
-19.85
-29.49
-34.83
-35.19
-29.84
-19.19
-6.13
4.46
7.89
1.81
-12.06
-28.52
-41.07
-45.60
-42.09
-34.27
-27.33
-23.93
-24.22
-26.23
-27.71
-27.52
-26.54
-26.59
-28.38
-31.32
-32.79
-29.93
-21.38
-8.29
6.12
17.96
24.37
24.54
19.81
13.06
7.41
4.84
5.88
9.45
13.32
14.97
12.65
6.22
-2.95
-12.94
-22.07
-29.38
-34.24
-35.90
-33.51
-26.60
-15.76
-3.00
8.48
15.88
18.20
16.73
14.28
13.59
16.08
21.63
28.95
35.92
41.13
44.41
45.64
45.73
45.59
45.95
47.22
49.35
50.79
49.86
45.20
36.49
24.41
10.31
-4.00
-16.53
-25.74
-32.57
-39.44
-49.96
-67.29
-92.72
-124.44
-157.48
-185.18
-194.86
-178.75
-138.10
-83.51
-27.58
20.38
54.72
72.24
72.72
62.68
48.64
38.50
38.09
48.26
64.10
77.42
81.49
74.92
59.13
37.26
18.34
10.21
13.93
23.97
33.19
37.19
35.12
28.32
18.00
5.93
-6.36
-17.04
-24.38
-27.71
-27.92
-27.10
-27.29
-29.80
-34.66
-42.20
-52.74
-65.67
-78.55
-87.20
-87.32
-76.61
-56.58
-32.27
-10.71
2.58
6.45
4.61
3.37
8.20
21.15
38.09
52.79
59.00
53.83
39.06
19.75
1.35
-12.60
-20.83
-23.17
-21.09
-15.54
-7.18
3.09
14.10
24.47
33.06
39.16
42.56
43.68
41.44
36.48
31.19
29.18
33.66
45.63
62.65
79.13
88.15
84.66
67.93
43.01
18.82
4.11
3.97
18.39
42.89
70.43
94.26
104.89
96.46
71.63
40.59
14.07
-2.61
-9.70
-13.00
-17.13
-24.25
-33.79
-44.07
-54.12
-63.76
-71.34
-73.67
-68.42
-56.00
-39.20
-20.65
-2.11
15.04
29.91
40.58
44.99
41.76
30.76
13.34
-7.88
-29.71
-49.95
-67.81
-83.37
-96.87
-108.29
-117.18
-122.14
-121.24
-113.18
-98.50
-79.38
-58.71
-38.93
-18.45
2.50
22.88
41.77
58.35
71.12
78.03
77.36
69.73
56.47
39.98
23.90
11.80
5.63
4.70
6.46
9.27
11.41
11.80
10.46
8.90
9.43
15.51
28.44
45.94
62.94
74.67
78.79
75.71
67.88
58.48
50.14
44.08
40.49
38.36
38.46
41.75
48.58
58.22
69.16
79.35
86.54
88.91
85.51
76.35
61.62
42.82
21.43
-0.89
-22.87
-44.45
-66.78
-91.44
-118.92
-147.67
-174.07
-193.85
-204.17
-205.20
-200.16
-193.73
-189.17
-186.13
-181.03
-169.35
-148.79
-120.60
-89.16
-59.95
-37.56
-23.86
-17.14
-12.62
-4.42
11.99
38.46
73.41
111.97
146.38
168.30
172.07
156.73
125.93
86.35
46.63
15.75
0.54
2.48
17.19
36.49
51.53
55.29
43.92
18.01
-18.23
-53.44
-75.01
-77.87
-67.78
-53.07
-37.36
-20.50
-1.48
18.98
37.46
48.48
48.31
37.96
21.85
7.37
-0.91
-1.94
1.71
4.37
-1.11
-18.92
-47.48
-79.95
-107.90
-126.00
-132.69
-124.16
-94.93
-49.62
-0.49
40.47
68.35
85.22
95.49
104.40
114.38
124.20
129.80
126.89
113.61
92.01
64.24
32.61
1.65
-25.39
-47.83
-67.62
-88.04
-110.67
-134.16
-146.94
-147.89
-130.18
-91.81
-38.60
20.98
71.11
96.87
90.36
54.38
2.22
-45.95
-73.97
-74.88
-51.40
-13.15
29.89
70.68
99.89
113.36
116.35
115.02
111.13
103.49
90.71
74.21
57.39
43.19
33.07
26.76
21.30
13.33
1.75
-13.27
-28.90
-41.27
-46.94
-43.47
-30.50
-9.99
12.12
30.05
39.43
39.32
32.01
21.64
12.77
8.22
8.41
12.11
18.11
24.75
31.27
38.10
45.23
51.56
54.20
50.09
37.20
15.92
-12.48
-44.01
-73.22
-95.03
-106.51
-108.48
-103.69
-95.97
-89.21
-88.86
-98.30
-118.50
-148.58
-181.45
-211.36
-232.22
-238.69
-216.83
-166.39
-100.99
-40.00
4.31
30.42
42.99
48.26
50.63
51.41
48.22
42.14
35.77
33.84
40.12
55.02
76.34
101.11
126.91
145.23
153.90
154.00
148.26
139.23
128.88
119.05
111.52
106.12
99.04
86.42
65.85
39.24
12.72
-4.52
-8.44
1.39
20.48
40.58
54.71
59.24
55.08
46.04
36.19
27.24
18.89
9.36
-3.04
-17.87
-33.13
-46.22
-55.54
-60.16
-61.38
-61.06
-59.97
-57.00
-49.83
-37.78
-23.23
-11.32
-7.07
-13.91
-31.10
-54.07
-76.57
-93.03
-100.56
-98.93
-91.25
-78.14
-61.13
-41.75
-21.48
-1.66
16.77
33.14
47.69
59.40
69.16
77.90
85.94
92.26
94.63
90.68
79.07
62.88
44.96
29.40
18.35
10.76
2.75
-10.85
-34.12
-68.19
-108.82
-147.73
-174.02
-178.82
-158.77
-117.81
-66.09
-14.50
21.71
31.15
10.45
-33.77
-87.69
-135.42
-164.84
-171.14
-157.04
-130.28
-98.37
-67.00
-38.41
-12.20
12.79
36.47
57.62
75.58
91.24
107.96
128.23
152.34
178.10
201.72
219.41
228.80
230.47
226.88
220.95
212.43
198.47
175.81
142.59
98.82
46.28
-11.02
-72.73
-129.17
-170.32
-194.08
-205.44
-209.51
-207.53
-197.37
-177.97
-146.43
-103.23
-53.98
-6.29
34.60
67.85
96.55
118.01
131.08
133.89
123.92
99.06
60.59
14.64
-29.65
-63.82
-83.35
-87.17
-77.68
-58.72
-33.79
-5.01
26.24
57.69
85.52
105.50
115.77
116.84
111.10
101.86
92.12
83.50
75.91
68.37
60.14
51.48
41.87
29.42
12.13
-10.53
-37.71
-67.98
-100.11
-133.06
-160.86
-174.84
-169.64
-146.41
-110.28
-67.76
-25.90
8.86
32.69
45.35
50.09
47.35
36.21
16.39
-11.18
-43.82
-76.80
-103.41
-116.88
-113.76
-91.62
-53.74
-6.72
41.71
85.21
117.14
133.16
134.07
123.60
104.70
78.77
48.59
19.32
-3.05
-14.72
-16.08
-11.98
-9.61
-14.55
-27.71
-44.24
-56.92
-60.77
-55.90
-46.71
-39.04
-37.54
-41.59
-47.79
-51.21
-48.17
-38.34
-24.77
-11.99
-3.73
-1.32
-3.26
-6.56
-7.87
-5.08
1.90
11.47
21.70
29.80
33.66
33.08
29.47
25.26
22.47
21.52
21.25
19.67
15.25
8.06
-0.12
-6.86
-10.14
-9.41
-5.91
-1.93
0.40
0.08
-2.04
-3.84
-3.32
0.37
6.29
11.94
14.68
13.01
7.53
1.09
-2.45
-0.09
8.87
22.63
37.58
50.20
58.24
61.23
60.13
56.33
50.69
43.28
33.72
21.57
7.27
-8.15
-23.38
-37.25
-48.87
-57.60
-62.97
-63.43
-59.98
-53.93
-46.81
-40.04
-34.67
-31.31
-30.31
-32.52
-37.39
-43.90
-49.76
-51.98
-47.68
-35.65
-17.26
3.47
21.64
32.14
33.48
28.23
20.72
14.38
9.90
5.57
-0.82
-9.82
-19.40
-25.96
-26.27
-19.43
-7.27
6.81
19.61
29.54
36.89
43.06
49.12
54.66
57.82
56.25
48.73
36.32
22.35
11.00
5.25
5.29
8.50
10.81
9.14
2.83
-6.34
-15.53
-22.43
-26.34
-27.95
-28.44
-28.15
-25.99
-19.99
-8.59
8.15
28.04
47.27
61.90
69.54
70.14
65.57
58.37
50.23
41.34
30.97
18.66
5.22
-7.37
-17.07
-22.79
-25.29
-25.53
-24.81
-24.32
-25.09
-28.04
-33.86
-42.95
-55.42
-69.54
-84.56
-98.06
-105.63
-102.08
-84.07
-52.32
-12.63
25.51
52.21
62.32
56.12
39.42
20.65
6.40
-0.60
-1.59
0.26
2.56
4.89
9.35
19.03
35.50
56.80
79.09
99.02
115.82
131.61
148.41
166.99
184.84
195.70
191.15
166.01
121.40
64.70
6.08
-47.44
-92.45
-130.07
-159.94
-185.29
-209.55
-234.96
-262.74
-293.41
-328.60
-366.09
-398.90
-418.26
-417.75
-394.68
-351.24
-294.09
-219.88
-140.60
-73.55
-28.78
-5.23
3.35
3.09
-2.19
-10.64
-21.13
-33.30
-46.62
-58.76
-68.09
-75.10
-81.07
-86.85
-92.19
-95.67
-96.40
-95.15
-90.29
-80.80
-67.31
-51.28
-34.09
-16.58
0.89
17.10
31.42
44.31
55.79
65.16
71.69
75.26
76.38
76.17
75.16
73.69
72.48
71.88
72.13
73.60
76.90
82.75
91.84
104.13
119.03
135.70
152.83
168.67
181.39
189.30
191.45
188.45
182.00
174.37
167.55
162.48
158.79
155.05
149.63
141.73
133.31
127.07
124.93
126.93
131.30
135.41
136.92
134.72
129.26
125.02
125.77
132.27
141.98
151.00
156.47
157.58
155.47
152.09
153.45
163.06
180.20
200.55
219.49
234.92
247.42
258.87
270.80
288.94
315.82
349.03
382.45
410.30
430.42
444.09
454.09
426.51
343.80
211.62
56.99
-90.65
-214.03
-308.24
-374.89
-417.77
-441.00
-443.18
-424.92
-391.10
-350.41
-311.52
-279.80
-257.12
-242.76
-234.89
-227.79
-217.83
-205.39
-194.71
-190.39
-193.92
-202.69
-210.80
-211.41
-197.21
-166.15
-123.11
-78.08
-41.89
-21.38
-18.15
-29.31
-49.30
-70.51
-85.99
-90.88
-83.10
-63.70
-35.29
-2.76
28.25
53.01
69.36
77.29
77.28
69.70
54.26
32.43
6.37
-20.12
-42.68
-57.85
-64.30
-63.36
-57.84
-50.52
-43.08
-36.27
-29.95
-23.70
-18.04
-13.60
-11.34
-11.91
-15.12
-19.97
-25.21
-29.55
-32.21
-32.95
-31.89
-29.36
-25.55
-20.58
-14.67
-8.42
-2.73
1.45
3.46
3.40
2.02
0.42
-0.30
0.51
2.68
5.59
8.37
10.36
11.55
12.54
14.37
18.15
24.63
33.56
43.65
52.71
58.20
58.19
52.33
42.39
31.81
24.63
23.61
28.98
38.37
47.50
52.21
50.17
41.33
27.39
10.57
-7.22
-24.45
-39.75
-51.43
-57.63
-57.20
-50.43
-39.48
-28.03
-20.19
-17.94
-21.43
-28.83
-37.13
-43.49
-46.23
-45.18
-41.27
-36.05
-30.71
-26.22
-23.28
-22.11
-22.62
-24.15
-25.55
-24.95
-21.84
-16.28
-9.19
-1.74
5.05
10.75
15.25
18.52
20.49
21.08
20.74
20.39
21.17
23.88
28.68
34.88
41.24
46.69
50.04
50.68
48.28
42.99
35.48
27.37
20.75
17.47
18.07
21.38
24.97
26.19
23.65
17.11
7.78
-2.78
-13.25
-22.77
-30.94
-37.30
-41.42
-42.35
-40.96
-38.33
-35.63
-33.21
-30.49
-26.33
-19.59
-10.14
1.98
15.46
28.41
38.38
43.08
40.97
32.07
18.34
3.26
-9.42
-17.43
-19.84
-18.93
-17.74
-18.35
-20.86
-23.61
-24.54
-22.57
-18.26
-13.15
-8.95
-6.44
-5.43
-5.16
-4.75
-3.65
-1.78
0.55
2.85
4.49
4.98
4.04
1.61
-2.03
-6.09
-9.86
-12.97
-15.58
-18.47
-22.63
-29.00
-38.15
-49.40
-61.20
-71.52
-78.26
-79.62
-74.37
-61.99
-43.43
-21.69
-0.76
14.73
21.20
17.78
7.15
-5.53
-14.92
-17.91
-14.95
-7.91
0.88
9.95
19.09
28.69
38.58
47.38
52.62
51.87
45.80
37.18
30.17
28.67
35.15
50.00
72.40
101.12
125.13
136.59
132.64
117.08
96.83
77.51
61.07
46.99
33.24
18.11
2.91
-9.33
-15.43
-13.99
-6.96
-0.19
0.39
-11.04
-36.04
-69.88
-104.24
-130.81
-145.15
-144.77
-133.41
-114.52
-89.76
-59.64
-25.95
6.21
30.14
41.70
42.75
40.32
44.01
58.91
82.76
107.53
124.18
127.78
119.41
105.76
89.98
73.75
55.85
34.38
9.00
-17.91
-42.39
-61.31
-74.21
-83.95
-92.09
-100.08
-105.32
-102.77
-87.69
-59.56
-23.05
13.73
42.70
60.02
66.21
64.80
59.16
50.88
40.39
27.03
11.42
-4.79
-19.34
-31.20
-40.89
-49.90
-58.63
-65.30
-66.03
-56.73
-35.60
-4.23
32.08
66.23
91.62
103.05
99.63
84.52
62.93
39.58
16.29
-6.53
-28.76
-49.72
-67.90
-80.85
-86.34
-83.05
-71.02
-51.54
-27.14
-0.50
26.21
51.63
75.18
96.76
116.02
131.89
143.67
149.66
148.67
140.57
126.36
107.71
86.71
65.70
47.04
32.68
21.18
11.12
2.68
-2.57
-3.48
-0.01
6.80
15.20
22.81
22.97
10.79
-14.31
-48.74
-88.07
-128.34
-166.22
-199.24
-226.18
-252.31
-281.72
-313.99
-344.74
-370.48
-390.31
-405.34
-417.51
-396.92
-332.21
-238.29
-143.00
-63.35
-2.64
42.06
74.56
97.85
114.20
120.40
115.37
102.58
90.44
85.39
90.36
105.23
127.78
154.51
177.77
192.46
192.29
179.93
160.97
140.46
121.52
105.45
92.27
79.19
64.45
48.80
35.47
26.26
21.00
18.46
17.29
16.40
14.12
9.66
3.65
-1.17
-3.45
-2.29
2.83
11.61
22.23
31.05
34.18
29.30
16.98
-0.45
-19.75
-37.85
-52.78
-63.49
-68.62
-65.86
-52.36
-26.19
10.65
50.73
85.44
109.49
122.80
129.26
132.63
133.06
126.50
107.41
73.63
28.97
-18.07
-58.74
-87.60
-104.68
-112.01
-111.89
-105.04
-90.69
-68.06
-38.66
-7.47
17.71
32.18
35.98
32.48
25.40
16.23
3.61
-14.51
-41.32
-76.49
-115.88
-152.74
-180.27
-193.59
-191.34
-176.35
-154.64
-132.87
-115.09
-101.27
-88.21
-71.93
-49.58
-19.56
17.82
60.63
106.60
154.16
201.33
244.09
275.61
287.57
273.15
231.19
165.33
84.51
2.21
-67.17
-113.26
-133.49
-133.26
-122.36
-107.63
-93.06
-77.85
-56.83
-24.30
21.35
76.55
135.09
191.27
244.51
291.39
325.04
337.65
323.70
281.85
216.43
136.81
40.08
-54.81
-125.17
-162.90
-176.91
-180.72
-183.23
-186.03
-185.15
-177.01
-152.73
-111.18
-58.28
-2.66
48.41
89.96
119.80
138.64
140.11
125.28
95.19
51.97
0.50
-51.88
-98.36
-134.99
-161.61
-180.85
-193.22
-200.31
-202.83
-199.46
-187.61
-165.51
-133.42
-93.34
-47.51
4.86
64.33
130.11
198.30
261.11
308.05
329.45
320.46
283.13
226.78
163.26
103.54
55.13
21.36
1.93
-5.77
-5.38
-0.70
5.30
9.98
11.06
6.74
-4.12
-21.59
-44.34
-69.60
-93.58
-112.80
-125.76
-133.42
-138.42
-143.35
-149.28
-155.22
-158.87
-157.60
-150.24
-137.87
-123.29
-109.51
-98.48
-90.62
-85.14
-80.54
-74.46
-64.82
-50.77
-32.99
-13.25
6.05
22.46
34.28
41.14
45.30
50.33
59.12
72.82
90.79
111.19
131.64
149.74
158.25
152.01
132.67
107.40
82.94
62.50
46.57
34.20
24.21
15.32
7.07
-1.21
-12.30
-28.40
-49.59
-71.98
-88.66
-92.74
-81.73
-58.52
-30.55
-7.30
3.68
-0.52
-16.79
-39.18
-60.93
-78.07
-88.81
-91.80
-86.00
-70.95
-47.29
-17.04
15.71
46.37
69.22
80.36
80.49
73.07
61.88
49.10
34.89
17.24
-5.52
-35.79
-74.14
-111.73
-133.73
-129.43
-100.03
-55.84
-11.92
30.04
70.00
107.04
142.29
173.24
195.47
205.14
201.28
179.13
142.70
108.57
81.81
61.06
45.58
32.57
18.97
2.91
-16.29
-37.09
-59.15
-83.30
-107.75
-129.42
-147.01
-159.72
-166.74
-167.61
-161.66
-150.37
-137.32
-124.79
-106.78
-82.67
-56.28
-32.65
-14.23
-0.05
11.19
19.73
26.36
32.09
36.47
39.34
41.14
42.69
44.16
44.80
43.44
40.30
36.64
33.41
32.18
34.59
40.42
49.28
59.85
69.65
75.53
73.30
58.56
29.86
-9.35
-50.93
-84.84
-103.32
-106.10
-96.71
-82.06
-69.39
-62.61
-61.16
-61.63
-60.64
-56.80
-51.15
-45.22
-39.96
-35.06
-29.12
-20.59
-8.76
4.38
16.13
24.25
28.57
30.78
33.40
38.60
47.79
61.16
77.54
95.44
113.23
129.92
144.64
155.75
161.32
160.87
155.83
148.58
141.69
135.77
129.66
120.81
105.62
80.95
46.33
4.14
-42.03
-87.62
-128.86
-162.44
-180.45
-175.92
-151.83
-120.48
-94.63
-82.63
-81.04
-84.44
-87.43
-85.48
-74.62
-53.74
-23.24
14.62
51.51
78.58
91.43
91.88
84.86
74.57
63.24
52.93
45.34
41.59
42.43
47.77
54.50
59.16
58.59
50.87
36.81
18.21
-2.94
-24.78
-47.49
-72.19
-100.77
-132.82
-167.83
-198.23
-216.30
-216.45
-196.10
-156.58
-101.35
-36.85
27.43
80.90
116.24
131.21
129.57
122.09
113.18
104.69
96.42
87.67
78.78
72.00
69.46
68.66
68.75
65.41
53.30
29.17
-5.68
-45.86
-84.36
-117.53
-144.31
-163.80
-176.99
-184.98
-188.03
-185.44
-176.53
-161.53
-141.56
-118.13
-90.34
-55.68
-16.30
23.12
57.45
82.79
97.31
102.53
102.15
103.25
111.40
128.50
153.78
185.56
221.30
256.88
287.72
293.91
264.08
204.52
135.63
77.13
38.24
18.91
7.43
-5.73
-25.99
-52.25
-81.57
-112.11
-143.14
-169.21
-182.96
-180.33
-162.68
-135.45
-102.33
-65.37
-26.85
10.37
43.37
68.92
83.80
86.54
77.59
60.97
42.46
27.32
19.62
21.47
32.07
47.88
64.14
77.57
86.79
92.01
93.34
91.25
86.32
79.10
70.16
60.67
52.21
46.39
44.26
44.77
46.22
46.77
44.87
39.73
31.44
20.57
6.88
-3.85
-9.86
-11.10
-8.71
-4.24
0.99
6.35
11.63
16.32
19.41
18.33
11.19
-2.38
-20.71
-40.46
-57.81
-69.87
-75.60
-75.63
-72.34
-67.94
-63.61
-59.37
-54.88
-49.95
-44.79
-39.63
-34.42
-29.30
-24.39
-19.77
-15.63
-12.28
-9.97
-8.74
-8.21
-7.77
-7.08
-6.47
-6.00
-5.16
-3.39
-0.55
2.78
5.52
6.44
4.50
-2.01
-12.69
-24.92
-35.83
-44.34
-51.41
-59.00
-68.82
-81.49
-99.43
-121.79
-144.33
-162.92
-176.23
-185.46
-192.42
-198.24
-203.27
-212.55
-227.57
-245.07
-260.62
-271.97
-278.70
-280.49
-277.26
-270.18
-268.57
-277.51
-294.12
-311.50
-323.75
-327.38
-320.34
-302.10
-232.87
-112.45
21.48
129.81
199.60
236.62
250.65
250.61
244.33
237.40
225.87
208.00
188.66
172.62
161.69
154.60
150.48
151.04
158.46
168.31
178.45
191.76
212.23
241.25
268.79
286.36
291.23
286.06
273.43
259.65
254.10
263.96
289.69
325.17
341.61
320.13
263.33
186.66
105.09
27.74
-40.46
-96.83
-140.29
-170.64
-189.56
-198.40
-201.79
-205.66
-214.00
-227.27
-242.96
-257.19
-255.68
-230.51
-182.84
-123.66
-68.45
-29.91
-13.40
-16.26
-28.74
-42.78
-50.84
-47.92
-33.59
-10.87
16.26
44.83
73.80
104.58
133.89
161.46
187.02
208.12
220.29
219.13
202.66
172.49
133.37
91.81
54.67
25.93
6.28
-5.54
-10.54
-8.23
2.55
18.28
32.62
38.63
30.65
7.20
-27.63
-64.55
-92.49
-104.14
-99.40
-85.94
-70.69
-59.09
-52.90
-50.45
-48.44
-44.32
-38.41
-33.11
-30.46
-29.76
-28.54
-23.33
-12.61
1.39
14.01
20.38
18.10
8.10
-6.08
-21.30
-36.16
-50.87
-66.02
-79.20
-85.95
-81.37
-62.36
-28.87
14.81
61.50
100.60
122.50
125.70
115.46
99.40
83.31
70.78
62.90
59.64
60.19
63.16
66.05
64.48
53.77
31.05
-1.10
-37.72
-71.97
-98.23
-113.80
-119.36
-118.29
-111.00
-101.82
-91.56
-79.06
-63.37
-45.76
-29.40
-17.76
-13.30
-16.57
-26.75
-40.78
-54.04
-62.15
-61.08
-47.77
-21.67
13.16
47.80
70.33
72.69
54.11
22.04
-10.53
-30.64
-30.95
-12.37
19.06
49.96
70.77
79.74
80.88
79.28
77.27
73.94
67.13
56.42
43.90
34.36
32.11
38.07
48.99
58.94
61.81
54.16
36.32
11.73
-14.10
-36.63
-54.39
-68.97
-83.52
-100.59
-120.47
-140.51
-155.97
-161.17
-151.78
-126.89
-89.83
-47.49
-8.54
19.43
33.16
33.49
25.35
15.48
9.35
9.05
13.03
17.50
18.74
15.39
9.05
3.52
2.58
7.87
18.06
29.80
39.53
45.54
48.31
49.78
51.86
55.25
58.83
60.45
58.67
52.52
43.18
33.06
24.65
19.48
17.43
16.88
15.53
11.54
4.24
-5.24
-14.73
-21.91
-25.42
-25.29
-22.83
-19.82
-17.56
-16.49
-16.14
-15.78
-14.93
-13.59
-12.12
-10.88
-10.03
-9.52
-9.25
-9.03
-8.73
-8.09
-6.83
-4.68
-1.64
1.92
5.28
7.71
8.80
8.55
7.37
5.68
3.76
1.64
-0.83
-3.69
-6.60
-8.83
-9.91
-9.19
-6.52
-2.16
3.11
8.39
13.05
16.98
20.48
23.85
27.14
29.94
31.73
32.05
30.75
28.13
24.97
22.21
20.42
19.71
18.38
15.43
10.77
5.35
0.34
-3.52
-6.17
-8.26
-10.64
-13.89
-17.80
-21.71
-24.83
-26.68
-27.73
-28.12
-28.18
-28.14
-27.95
-27.16
-25.36
-22.33
-18.18
-13.30
-8.27
-3.75
-0.28
1.85
3.17
4.09
5.09
6.71
9.45
13.98
20.15
26.74
31.57
32.31
27.23
16.19
0.89
-15.58
-29.67
-38.82
-42.39
-41.67
-39.06
-36.89
-36.31
-37.09
-38.09
-38.03
-36.45
-33.82
-31.22
-29.66
-29.52
-30.40
-31.92
-34.06
-37.10
-40.81
-43.39
-41.32
-30.64
-9.24
21.09
54.99
84.69
103.45
108.45
101.88
89.32
76.77
67.14
61.79
58.73
55.62
51.80
48.38
47.03
47.75
47.56
41.59
25.47
-1.77
-35.88
-68.79
-92.75
-103.16
-100.50
-89.08
-73.68
-56.77
-37.81
-14.80
12.65
41.27
64.81
76.81
73.07
55.91
31.98
9.00
-7.34
-15.25
-16.73
-15.68
-15.79
-18.76
-23.38
-26.97
-27.14
-23.51
-18.09
-14.49
-15.78
-22.46
-31.79
-38.74
-38.69
-30.33
-16.48
-2.66
5.61
5.55
-1.87
-13.28
-24.61
-33.03
-37.24
-36.88
-31.64
-21.06
-4.97
16.07
40.07
64.17
85.07
100.07
107.74
107.99
101.68
89.49
73.78
56.58
39.69
24.34
10.70
-2.38
-16.84
-34.46
-55.41
-77.10
-95.23
-105.00
-103.22
-89.72
-67.58
-41.84
-17.28
1.82
14.28
20.81
23.21
23.24
21.95
19.52
15.70
10.47
4.55
-0.41
-2.87
-2.14
0.91
4.07
4.53
0.26
-9.03
-21.77
-34.99
-45.38
-50.07
-47.12
-36.12
-18.01
4.50
27.54
47.18
60.76
67.52
68.62
65.69
60.81
54.57
46.37
35.19
20.53
2.89
-16.22
-34.77
-50.55
-61.21
-64.77
-60.03
-47.30
-28.76
-8.16
10.26
23.18
29.18
28.98
24.51
17.89
10.57
3.56
-2.68
-7.68
-11.03
-12.50
-12.29
-11.03
-9.30
-7.31
-4.99
-2.13
1.39
5.59
10.58
16.46
22.97
29.16
33.38
33.93
29.96
22.06
12.03
2.05
-6.23
-12.05
-15.20
-15.30
-11.80
-4.17
7.16
20.22
31.96
39.18
39.78
33.50
21.72
6.68
-8.90
-22.51
-32.25
-36.90
-36.54
-32.70
-28.27
-26.59
-30.15
-38.90
-50.27
-59.99
-63.67
-58.64
-44.80
-24.23
0.62
25.41
47.35
64.32
74.04
74.40
64.13
44.35
19.38
-4.22
-20.39
-25.97
-22.58
-16.21
-12.77
-16.21
-26.55
-39.67
-49.64
-51.68
-43.84
-27.75
-7.55
12.22
27.64
36.54
38.99
36.65
31.58
25.56
19.23
12.11
3.63
-6.94
-19.67
-33.34
-44.82
-51.63
-51.94
-44.83
-30.25
-9.69
15.79
43.21
68.21
85.89
92.69
87.91
74.09
53.63
34.33
22.15
17.86
17.88
16.63
10.24
-1.75
-16.92
-31.57
-42.35
-48.63
-52.44
-53.96
-55.48
-58.48
-62.44
-65.37
-65.07
-60.01
-50.28
-37.08
-21.89
-6.76
6.33
15.20
17.75
12.61
0.54
-15.11
-28.47
-32.65
-23.05
0.35
31.83
61.94
81.92
86.72
77.22
59.45
41.32
28.46
22.57
21.74
23.22
25.35
28.53
33.74
40.30
44.88
42.71
30.41
8.40
-18.69
-43.91
-60.87
-66.28
-60.94
-48.91
-35.51
-25.04
-19.37
-17.91
-18.68
-19.88
-20.69
-21.21
-21.77
-21.91
-20.28
-15.43
-7.05
3.38
12.89
18.40
18.21
12.75
4.33
-4.19
-10.73
-14.68
-16.53
-16.96
-16.34
-14.25
-10.34
-4.95
0.76
5.25
7.55
7.87
7.45
7.81
9.53
11.75
12.68
10.73
5.80
-0.41
-5.18
-6.21
-2.98
2.95
8.74
11.82
11.19
7.76
3.46
0.25
-0.78
0.49
3.67
8.37
14.26
20.89
27.45
32.76
35.84
36.36
34.81
32.23
29.66
27.66
25.79
23.67
20.43
15.33
7.94
-1.72
-13.14
-25.22
-36.45
-45.18
-50.13
-50.96
-48.01
-42.16
-34.34
-25.27
-15.47
-5.49
4.03
12.17
17.90
20.53
20.06
17.17
13.17
9.60
7.78
8.47
11.68
16.73
22.58
28.14
32.43
34.78
34.63
31.70
26.09
18.53
10.27
2.93
-2.32
-5.25
-6.58
-7.60
-9.22
-11.40
-13.12
-13.14
-10.64
-5.95
-0.35
4.64
7.89
8.97
8.08
5.76
2.41
-1.21
-4.54
-7.01
-8.31
-8.83
-9.60
-11.87
-16.39
-23.04
-30.41
-36.87
-41.19
-42.94
-42.90
-42.62
-43.79
-45.85
-48.99
-50.66
-49.26
-44.55
-37.78
-31.31
-27.19
-26.04
-27.10
-29.05
-30.61
-31.77
-34.28
-39.09
-46.47
-55.33
-63.60
-69.49
-72.50
-73.37
-72.57
-71.54
-70.79
-70.50
-71.27
-73.71
-79.40
-89.97
-105.41
-123.28
-139.32
-147.09
-141.28
-120.16
-85.92
-43.21
3.32
50.67
96.67
138.58
172.60
194.47
202.25
199.35
194.67
199.54
222.26
263.44
315.23
365.35
402.99
423.58
429.61
426.76
418.70
403.82
375.82
327.92
257.65
169.14
72.21
-20.93
-99.78
-158.21
-194.74
-211.44
-212.21
-201.71
-184.93
-166.87
-152.23
-144.78
-146.52
-156.92
-172.95
-189.76
-202.16
-206.12
-199.82
-183.86
-160.65
-133.53
-105.66
-79.55
-56.72
-37.85
-23.02
-11.86
-3.80
1.79
5.39
7.36
7.94
7.34
5.83
3.77
1.72
0.22
-0.25
0.47
2.19
4.34
6.09
6.52
4.94
1.14
-4.57
-11.50
-18.80
-25.71
-31.81
-37.04
-41.62
-45.96
-50.23
-54.43
-58.42
-62.04
-65.11
-67.30
-68.06
-66.70
-62.57
-54.91
-43.38
-28.36
-11.25
5.86
20.78
31.81
38.01
39.36
37.20
33.43
29.68
26.67
24.19
21.65
18.45
14.33
9.34
4.85
2.38
3.12
7.55
15.86
28.32
45.13
65.75
85.23
97.25
96.74
83.46
61.72
37.47
16.13
1.53
-4.44
-1.45
9.68
26.83
46.58
64.65
77.18
81.80
78.10
67.30
45.76
16.59
-13.43
-37.11
-50.20
-52.67
-47.64
-39.60
-32.52
-28.74
-27.54
-27.44
-27.32
-27.14
-27.39
-28.40
-29.84
-30.91
-30.89
-28.98
-25.37
-21.14
-17.42
-14.52
-11.61
-7.39
-0.96
7.34
16.36
24.03
28.38
28.62
25.48
20.79
16.59
14.30
14.41
16.69
19.43
20.38
16.93
6.39
-13.05
-41.08
-74.40
-106.80
-131.17
-142.18
-138.23
-121.35
-96.00
-67.02
-37.97
-10.49
15.36
39.40
60.85
78.42
91.66
101.33
109.30
117.86
128.30
140.79
152.81
159.97
152.38
123.87
77.30
25.79
-13.43
-29.01
-18.72
9.20
41.64
69.11
87.93
99.36
106.66
112.38
115.10
112.82
99.49
72.41
32.69
-15.25
-65.36
-112.57
-153.31
-188.18
-209.79
-213.60
-199.78
-174.48
-146.33
-121.17
-105.96
-97.14
-92.98
-91.07
-93.77
-104.80
-123.70
-149.91
-181.49
-215.83
-241.34
-264.87
-279.51
-281.16
-267.00
-236.16
-190.64
-134.58
-73.47
-11.85
46.67
103.37
157.98
209.20
254.33
289.19
309.39
311.48
294.90
262.85
223.56
183.95
148.76
119.71
95.52
73.48
51.47
30.41
16.03
16.77
36.83
74.43
122.54
171.81
213.82
243.64
247.49
220.44
172.29
120.37
76.60
42.26
13.03
-14.91
-41.94
-65.67
-81.38
-86.71
-85.24
-83.65
-87.89
-99.60
-115.87
-131.25
-140.53
-139.39
-127.36
-108.35
-86.81
-68.07
-55.11
-48.29
-46.31
-47.41
-49.21
-50.23
-50.51
-50.93
-52.45
-54.97
-57.66
-59.66
-60.53
-59.83
-57.61
-54.44
-51.13
-48.45
-46.54
-45.16
-44.05
-43.11
-42.22
-41.40
-40.89
-41.04
-42.25
-44.56
-47.63
-50.88
-53.55
-54.94
-54.52
-52.06
-47.61
-41.54
-34.30
-26.38
-18.30
-10.44
-3.08
3.67
9.89
15.75
21.35
26.70
31.66
35.95
39.32
41.60
42.79
43.07
42.77
42.30
42.07
42.33
43.07
44.01
44.67
44.62
43.61
41.66
38.91
35.54
31.55
26.79
21.10
14.44
7.03
-0.68
-8.21
-15.14
-21.23
-26.46
-30.85
-34.42
-37.13
-38.91
-39.67
-39.42
-38.22
-36.21
-33.49
-30.03
-25.67
-20.11
-13.11
-4.66
4.94
15.00
24.70
33.29
40.31
45.68
49.53
52.06
53.36
53.35
51.89
48.97
44.80
39.84
34.70
29.92
25.82
22.38
19.41
16.69
14.19
12.09
10.67
10.16
10.61
11.83
13.56
15.56
17.70
19.99
22.47
25.13
27.92
30.75
33.59
36.46
39.38
42.34
45.25
48.01
50.57
52.86
54.83
56.43
57.52
57.94
57.54
56.24
53.99
50.77
46.63
41.67
36.16
30.55
25.37
21.15
18.21
16.56
15.90
15.78
15.77
15.57
15.01
14.08
12.79
11.12
9.09
6.73
4.13
1.38
-1.49
-4.45
-7.42
-10.19
-12.36
-13.45
-13.09
-11.25
-8.31
-4.96
-1.96
0.07
0.86
0.52
-0.65
-2.25
-4.01
-5.81
-7.64
-9.55
-11.56
-13.65
-15.78
-17.95
-20.23
-22.77
-25.69
-29.08
-32.89
-36.90
-40.77
-44.15
-46.72
-48.31
-48.83
-48.42
-47.31
-45.77
-44.06
-42.33
-40.64
-38.96
-37.26
-35.60
-33.97
-32.34
-30.59
-28.50
-25.77
-22.13
-17.43
-11.79
-5.43
1.40
8.50
15.69
22.82
29.65
35.91
41.23
45.31
47.97
49.47
50.22
50.64
50.91
50.89
50.04
47.72
43.37
36.88
29.14
21.31
14.30
8.41
3.43
-1.01
-5.03
-8.28
-9.96
-8.26
-1.97
8.82
22.77
38.14
53.57
68.29
81.93
94.11
105.69
116.84
126.80
134.22
138.14
138.55
136.14
131.70
125.75
120.42
117.04
115.66
115.05
113.77
110.98
106.63
101.06
82.90
47.20
-2.69
-56.13
-101.91
-133.57
-149.92
-153.45
-148.86
-141.69
-134.84
-129.67
-126.09
-123.07
-119.12
-113.08
-104.97
-96.24
-88.83
-82.72
-77.16
-71.58
-66.30
-62.30
-60.50
-61.16
-63.45
-65.64
-64.88
-59.06
-48.06
-33.91
-19.71
-8.24
-1.00
1.96
1.62
-0.14
-1.79
-2.75
-3.29
-4.00
-5.16
-6.49
-7.47
-7.56
-6.41
-4.13
-1.38
0.86
1.92
1.80
1.17
0.96
1.90
4.28
8.32
13.56
18.75
22.82
25.40
26.92
28.15
29.64
31.65
34.16
36.93
38.81
38.86
36.96
33.90
30.68
27.93
25.85
24.39
23.30
20.83
15.81
8.77
1.83
-2.95
-5.31
-6.97
-10.77
-19.43
-36.20
-62.06
-95.05
-131.24
-166.92
-199.59
-227.04
-246.20
-241.36
-203.42
-137.61
-62.70
0.98
41.71
58.23
56.97
47.66
39.07
34.46
33.33
33.83
34.79
35.90
37.09
38.17
39.49
40.90
40.42
36.32
28.63
19.34
11.20
5.93
3.83
3.89
4.28
2.37
-3.24
-11.85
-21.04
-27.03
-27.87
-23.70
-16.43
-8.86
-3.75
-2.45
-4.51
-8.25
-12.06
-15.38
-18.38
-21.24
-23.59
-24.63
-23.56
-20.06
-14.61
-8.36
-2.84
0.57
0.76
-3.09
-11.36
-23.55
-37.90
-51.46
-60.77
-63.28
-58.19
-46.74
-31.54
-15.39
-0.25
13.04
24.42
34.04
41.80
47.43
50.77
52.03
51.81
50.77
49.33
47.36
44.41
39.98
33.96
26.86
19.70
13.79
10.18
9.37
11.23
15.16
20.45
26.52
32.89
39.07
44.41
48.09
49.38
47.94
43.93
37.93
30.60
22.45
13.67
4.16
-6.21
-17.39
-29.04
-40.60
-51.36
-60.53
-67.41
-71.64
-73.33
-73.14
-72.04
-70.84
-69.84
-68.67
-66.47
-62.49
-56.45
-48.74
-40.16
-31.55
-23.50
-16.25
-9.87
-4.43
-0.15
2.71
4.14
4.56
4.92
6.40
9.97
15.86
23.34
30.83
36.55
39.28
38.89
36.41
33.59
31.99
32.42
34.60
37.57
40.25
41.91
42.35
41.82
40.69
39.23
37.64
36.13
34.95
34.36
34.46
35.04
35.59
35.53
34.37
31.98
28.59
24.66
20.66
16.94
13.62
10.63
7.88
5.29
2.86
0.64
-1.32
-3.01
-4.51
-5.92
-7.36
-8.85
-10.27
-11.45
-12.17
-12.32
-11.93
-11.17
-10.32
-9.59
-9.07
-8.73
-8.46
-8.21
-8.04
-8.13
-8.58
-9.36
-10.20
-10.72
-10.60
-9.71
-8.17
-6.22
-4.09
-1.81
0.79
3.93
7.71
12.02
16.45
20.49
23.70
25.86
27.01
27.38
27.16
26.45
25.22
23.45
21.22
18.79
16.57
14.88
13.82
13.22
12.68
11.81
10.37
8.36
6.00
3.59
1.39
-0.47
-2.03
-3.39
-4.67
-5.87
-6.92
-7.75
-8.31
-8.67
-8.94
-9.15
-9.19
-8.85
-7.91
-6.32
-4.25
-2.05
-0.14
1.18
1.82
1.83
1.39
0.66
-0.17
-0.94
-1.51
-1.84
-1.93
-1.88
-1.75
-1.53
-1.16
-0.60
0.04
0.48
0.41
-0.37
-1.80
-3.55
-5.18
-6.41
-7.26
-7.98
-8.93
-10.29
-12.00
-13.77
-15.24
-16.16
-16.49
-16.35
-15.86
-15.03
-13.77
-11.93
-9.51
-6.68
-3.82
-1.39
0.29
1.17
1.42
1.36
1.27
1.26
1.21
0.96
0.40
-0.40
-1.19
-1.69
-1.68
-1.15
-0.27
0.67
1.39
1.73
1.64
1.23
0.60
-0.15
-1.02
-2.09
-3.46
-5.15
-7.10
-9.14
-11.06
-12.65
-13.80
-14.45
-14.59
-14.22
-13.34
-11.95
-10.13
-8.10
-6.19
-4.81
-4.28
-4.69
-5.81
-7.15
-8.16
-8.43
-7.87
-6.70
-5.19
-3.54
-1.68
0.60
3.51
7.05
10.87
14.45
17.32
19.26
20.42
21.19
21.93
22.79
23.51
23.63
22.70
20.55
17.42
13.88
10.54
7.82
5.78
4.14
2.54
0.74
-1.25
-3.23
-5.03
-6.66
-8.32
-10.27
-12.49
-14.68
-16.35
-17.00
-16.41
-14.77
-12.60
-10.50
-8.88
-7.70
-6.67
-5.48
-4.06
-2.56
-1.26
-0.33
0.26
0.73
1.58
3.12
5.21
7.34
8.90
9.46
8.94
7.53
5.65
4.32
4.30
5.80
8.52
12.00
16.00
20.58
25.92
32.09
40.15
50.42
62.15
73.75
83.64
91.07
96.18
99.63
102.11
106.01
112.63
121.63
131.20
139.38
145.15
148.69
150.92
152.87
157.70
166.94
179.49
191.95
200.73
204.14
203.09
200.36
182.76
144.11
87.03
22.41
-37.96
-87.36
-124.48
-150.99
-169.86
-184.23
-193.94
-198.34
-197.21
-191.57
-183.37
-175.04
-168.81
-166.01
-166.42
-166.04
-160.45
-147.11
-127.14
-103.60
-80.79
-62.61
-51.45
-47.60
-48.13
-49.35
-48.77
-45.16
-39.15
-32.42
-26.62
-22.82
-21.37
-21.54
-22.64
-24.48
-27.13
-30.50
-34.01
-36.60
-37.31
-35.81
-32.58
-28.22
-23.63
-19.55
-16.32
-13.99
-12.41
-11.40
-10.66
-9.61
-7.73
-4.67
-0.58
3.72
6.99
8.22
7.22
5.02
3.55
4.40
8.29
14.57
21.57
27.25
30.13
29.87
27.57
25.45
25.21
28.01
33.31
40.10
46.92
51.99
53.26
49.02
38.45
19.18
-8.46
-40.53
-70.85
-94.23
-108.28
-112.87
-111.45
-102.81
-85.30
-58.03
-21.87
20.63
65.78
108.77
141.27
155.22
147.90
123.00
89.18
55.32
26.93
5.38
-10.67
-22.89
-32.06
-36.61
-35.38
-28.70
-18.85
-9.22
-3.17
-2.87
-8.77
-19.39
-31.25
-41.28
-47.27
-48.35
-44.82
-37.93
-29.44
-21.15
-14.35
-9.57
-7.32
-8.03
-11.95
-18.86
-27.78
-37.04
-44.48
-48.03
-46.37
-39.69
-29.73
-19.22
-11.09
-7.45
-8.98
-14.40
-21.19
-26.42
-28.06
-25.62
-20.05
-13.07
-6.36
-0.85
3.79
8.44
13.82
20.03
26.57
32.82
38.33
42.87
46.26
48.71
50.46
51.87
53.41
55.77
59.81
66.14
74.72
81.60
82.85
75.98
61.48
42.11
21.37
2.38
-12.37
-21.10
-23.29
-19.73
-13.20
-7.86
-7.62
-13.99
-25.08
-36.16
-42.38
-41.07
-32.32
-18.95
-4.82
6.93
14.92
19.23
19.60
16.23
9.13
-0.97
-12.20
-21.65
-26.65
-26.12
-21.25
-14.86
-9.79
-7.69
-8.23
-9.95
-11.37
-12.07
-12.26
-12.66
-13.76
-15.49
-17.33
-18.65
-19.28
-19.26
-18.62
-17.18
-14.90
-12.10
-9.53
-8.05
-8.47
-11.42
-16.91
-24.25
-32.25
-39.45
-44.26
-45.08
-40.51
-29.32
-12.61
6.69
24.91
38.51
45.21
44.62
36.86
24.51
12.31
4.92
4.61
10.35
18.52
24.97
26.84
23.76
17.84
12.29
9.76
11.77
17.62
25.41
32.89
38.28
40.70
40.41
38.13
34.33
27.42
18.01
6.86
-5.31
-17.65
-28.94
-37.74
-43.37
-46.02
-46.34
-44.91
-42.42
-39.29
-35.50
-30.76
-24.74
-17.10
-8.51
0.08
7.99
14.25
18.10
19.44
19.02
18.34
18.98
21.75
27.11
33.98
40.54
45.20
47.29
47.09
45.36
42.69
39.10
32.45
22.90
11.34
-0.89
-12.28
-21.58
-28.17
-32.09
-33.92
-34.30
-33.50
-31.91
-29.92
-27.92
-26.30
-25.31
-24.82
-24.38
-23.65
-21.84
-18.85
-15.08
-11.14
-7.40
-3.71
0.62
6.37
13.83
22.59
31.14
37.27
38.90
34.96
26.07
14.51
3.63
-3.39
-4.38
0.61
9.88
20.79
30.74
37.97
41.74
42.12
39.22
33.28
24.48
13.00
-0.23
-13.55
-24.98
-32.99
-36.98
-37.90
-37.33
-37.23
-39.62
-45.73
-55.73
-69.05
-84.96
-101.00
-115.88
-128.65
-135.10
-132.35
-119.61
-98.89
-74.10
-49.73
-29.40
-15.74
-7.87
-4.12
-3.00
-3.14
-3.50
-3.43
-2.98
-1.89
0.17
3.85
9.31
15.73
21.81
26.25
28.53
29.20
29.69
31.46
35.39
41.17
47.45
52.71
55.98
57.17
56.89
55.98
54.94
53.82
52.28
49.76
45.93
40.82
34.85
28.79
23.62
20.23
19.13
19.97
21.61
22.50
21.37
17.85
12.67
7.29
3.24
1.45
2.03
4.52
8.28
12.79
17.66
22.44
26.53
29.15
29.76
28.35
25.78
23.38
22.25
22.61
23.46
23.03
19.68
12.91
3.79
-5.16
-11.24
-12.78
-9.80
-3.76
3.41
10.15
15.66
19.71
22.50
24.01
23.85
21.52
16.89
10.57
3.61
-3.04
-8.92
-13.54
-16.72
-18.66
-19.82
-20.60
-20.95
-20.40
-18.43
-14.79
-8.89
-0.45
10.29
22.66
36.12
50.63
66.35
82.96
94.00
93.39
78.55
52.21
20.13
-12.34
-41.65
-65.84
-83.87
-95.27
-99.13
-94.91
-83.28
-66.34
-46.99
-27.67
-9.66
6.67
21.68
35.37
46.98
54.95
57.44
53.08
41.93
25.58
6.58
-12.51
-29.14
-41.40
-48.56
-51.04
-50.17
-47.47
-44.33
-40.21
-35.44
-30.58
-26.79
-25.99
-29.64
-37.64
-47.40
-54.67
-55.48
-48.24
-34.19
-16.76
-0.54
12.64
22.33
29.36
34.71
38.66
40.53
38.33
31.89
21.93
10.09
-1.81
-12.05
-19.50
-24.13
-26.36
-26.47
-24.78
-21.82
-17.80
-12.79
-6.59
0.97
9.13
16.88
24.12
30.78
36.66
41.73
45.99
49.44
51.79
52.55
48.46
39.10
25.83
11.10
-2.61
-13.63
-21.34
-26.28
-29.66
-32.52
-34.87
-36.46
-36.90
-35.95
-34.34
-32.13
-29.68
-27.34
-25.10
-22.36
-18.87
-14.88
-11.03
-8.02
-6.29
-6.00
-6.82
-8.22
-9.23
-9.29
-8.35
-6.70
-4.93
-3.62
-3.33
-4.19
-5.65
-6.55
-5.79
-2.65
2.92
10.44
19.16
28.20
35.73
40.08
40.65
37.93
32.96
26.68
20.00
14.04
9.94
8.64
10.38
14.45
19.17
22.73
23.90
22.60
20.30
17.67
15.18
13.05
11.26
9.71
8.45
7.67
7.61
8.26
9.16
9.65
9.19
7.59
5.06
2.04
-1.22
-4.29
-6.81
-8.48
-9.42
-10.14
-11.29
-13.23
-15.86
-18.71
-21.27
-23.16
-24.37
-25.14
-25.66
-25.93
-25.75
-24.92
-23.38
-21.23
-19.06
-16.69
-14.16
-11.66
-9.48
-7.82
-6.71
-5.93
-5.09
-3.57
-0.83
3.15
7.84
12.42
16.01
17.99
17.99
15.99
12.54
8.55
4.90
2.23
0.97
1.27
2.95
5.49
8.13
10.83
14.36
19.64
27.25
36.84
46.74
54.09
55.00
44.56
21.09
-11.29
-44.50
-70.59
-85.26
-88.54
-83.20
-73.78
-64.91
-59.54
-58.24
-60.11
-63.01
-63.64
-58.05
-43.52
-18.21
16.06
54.43
90.80
118.83
133.89
134.51
119.10
94.03
67.26
45.27
28.37
15.65
5.44
-3.72
-12.23
-19.29
-22.99
-21.23
-14.35
-5.71
0.13
-0.61
-8.70
-21.44
-34.15
-42.29
-44.39
-42.41
-39.99
-39.92
-43.01
-47.94
-52.17
-53.12
-48.57
-37.76
-21.47
-2.31
17.71
36.58
52.76
65.44
74.49
80.32
82.89
81.27
73.81
58.82
36.75
10.36
-15.91
-37.34
-49.73
-50.71
-40.04
-17.53
10.86
38.15
58.74
69.62
70.15
62.06
48.24
31.92
15.39
-2.47
-21.29
-39.58
-53.26
-60.76
-61.94
-59.19
-53.07
-45.46
-40.52
-41.02
-48.30
-62.42
-82.70
-107.15
-132.29
-153.52
-157.28
-138.35
-99.04
-48.59
1.00
39.62
62.86
72.54
74.56
75.00
76.09
77.82
78.45
76.04
70.27
60.85
48.59
35.07
22.24
11.10
2.67
-2.45
-4.11
-2.54
2.10
9.67
19.67
30.91
41.06
48.17
49.80
45.91
37.16
26.39
17.07
11.85
11.64
15.39
20.79
24.94
24.20
16.14
0.65
-20.12
-42.65
-63.26
-78.20
-82.60
-74.12
-55.02
-31.32
-9.55
5.84
13.08
12.57
6.30
-2.87
-12.09
-18.86
-21.43
-19.20
-13.06
-4.97
3.03
9.56
13.97
15.80
14.83
11.38
6.46
1.67
-1.17
-0.72
3.15
8.99
14.04
15.81
13.87
10.15
7.75
8.98
14.01
20.97
27.15
30.64
30.41
26.70
19.97
10.15
-3.10
-19.41
-36.73
-51.15
-58.56
-56.64
-45.90
-29.55
-12.02
2.83
13.08
18.99
22.19
24.52
27.20
30.60
34.37
37.73
39.84
39.92
37.47
32.43
25.25
16.80
8.14
0.25
-6.10
-10.25
-11.61
-9.94
-5.80
-0.87
2.35
1.57
-4.16
-13.76
-24.50
-33.13
-37.58
-37.57
-34.64
-31.18
-29.02
-28.56
-28.90
-28.81
-27.65
-25.74
-23.87
-22.51
-20.95
-17.59
-10.79
0.01
13.56
26.98
36.92
41.17
39.41
33.24
25.00
16.47
7.88
-1.81
-14.08
-29.27
-45.52
-59.02
-65.21
-60.66
-44.55
-19.27
10.35
38.47
60.04
72.03
73.70
66.21
52.13
34.88
17.74
4.78
-1.53
-0.64
6.19
16.11
25.59
31.63
32.73
29.33
23.48
17.69
13.49
11.60
11.78
13.40
15.99
19.24
22.66
25.22
24.92
19.58
8.12
-8.55
-27.62
-45.51
-59.56
-69.20
-75.22
-78.75
-79.83
-76.90
-68.04
-52.62
-32.43
-10.80
6.94
17.81
21.73
20.80
17.78
14.66
12.15
10.02
7.93
5.77
3.99
2.84
2.17
1.58
0.74
-0.44
-1.93
-3.50
-4.94
-5.89
-6.02
-5.11
-3.06
-0.03
3.49
6.84
9.35
10.59
10.60
9.86
8.93
8.13
7.36
6.21
4.30
1.57
-1.79
-5.16
-7.69
-8.81
-8.52
-7.31
-5.85
-4.78
-4.60
-5.52
-7.26
-8.77
-8.77
-6.38
-1.23
6.41
15.66
25.28
34.12
41.64
48.52
55.85
64.10
72.81
80.62
85.83
87.00
83.39
72.16
53.37
29.92
5.58
-16.92
-36.29
-52.03
-63.85
-71.65
-75.72
-76.43
-74.08
-69.58
-63.86
-57.74
-51.94
-47.09
-43.92
-43.21
-46.23
-52.25
-60.30
-68.55
-74.13
-73.80
-65.18
-48.02
-23.07
4.08
28.22
46.11
57.33
63.43
66.41
67.48
66.76
63.94
59.15
53.87
50.05
49.17
51.34
55.13
58.05
57.27
50.71
37.56
19.35
-1.71
-22.53
-40.25
-53.04
-60.58
-63.79
-64.24
-62.58
-59.84
-56.03
-50.53
-42.87
-33.22
-22.32
-11.14
-0.55
8.86
16.61
22.39
25.96
27.16
26.27
24.06
21.71
20.31
20.28
20.94
20.96
18.91
14.00
6.66
-1.70
-9.30
-14.84
-17.92
-18.94
-18.46
-16.70
-13.52
-8.65
-2.24
4.96
11.59
16.24
17.97
16.88
14.11
11.34
10.23
11.51
14.72
18.26
20.04
18.42
13.10
5.29
-2.83
-8.86
-11.04
-8.54
-1.52
9.03
21.50
33.64
43.15
48.00
47.12
40.68
30.08
17.55
5.37
-4.79
-12.16
-16.84
-19.58
-21.19
-22.38
-23.39
-24.00
-23.66
-21.91
-18.71
-14.76
-11.32
-9.87
-11.56
-16.70
-24.51
-33.36
-41.27
-46.58
-48.45
-47.00
-43.21
-38.46
-34.22
-31.72
-31.63
-33.77
-36.88
-38.66
-36.17
-26.88
-10.24
11.58
33.97
51.57
60.38
59.60
51.89
41.53
33.48
30.31
32.00
36.90
42.93
48.12
50.75
49.29
42.94
32.35
19.89
9.17
3.14
2.93
7.19
13.09
17.82
20.09
20.10
18.46
14.99
8.60
-1.60
-15.21
-29.72
-41.45
-47.43
-47.09
-42.28
-36.96
-34.35
-35.81
-40.79
-47.57
-54.19
-58.90
-60.05
-55.89
-44.69
-25.97
-0.62
27.63
53.51
72.10
80.83
80.27
73.65
64.97
56.24
47.75
36.88
20.84
-1.07
-26.23
-49.68
-66.35
-73.31
-71.09
-62.82
-52.67
-43.67
-37.22
-32.61
-28.76
-24.44
-18.22
-8.58
5.57
23.53
42.22
56.74
62.79
58.94
47.92
35.38
26.93
25.19
28.52
32.43
32.43
26.44
15.44
2.47
-9.33
-18.15
-23.89
-27.37
-29.60
-31.10
-31.86
-31.35
-28.59
-22.55
-12.72
0.23
14.37
26.91
35.31
38.24
36.01
30.26
23.01
15.82
9.43
3.90
-0.80
-4.54
-6.94
-7.67
-6.76
-4.75
-2.44
-0.68
-0.02
-0.59
-2.08
-3.82
-5.14
-5.54
-5.08
-4.28
-3.97
-4.85
-7.00
-9.79
-12.12
-12.93
-11.53
-8.00
-3.01
2.38
7.13
10.51
12.18
12.14
11.04
10.33
11.95
17.49
27.23
39.53
51.17
58.64
59.35
53.02
41.74
28.90
17.83
10.63
7.87
9.05
13.09
18.26
22.63
24.28
21.63
13.97
1.77
-13.55
-30.52
-45.40
-55.79
-60.67
-60.27
-55.66
-48.22
-39.29
-30.02
-21.30
-13.75
-7.86
-3.64
-0.77
0.95
1.48
0.65
-1.61
-4.94
-8.85
-12.81
-16.02
-17.88
-18.14
-16.89
-14.30
-10.61
-6.11
-1.87
1.05
2.34
2.30
1.41
0.10
-1.24
-2.39
-3.29
-5.05
-8.35
-12.68
-16.95
-20.46
-23.17
-25.46
-27.79
-30.47
-34.97
-41.87
-50.31
-58.86
-66.63
-73.44
-79.24
-83.72
-77.52
-57.39
-28.43
0.82
24.94
42.29
52.99
57.73
57.49
53.75
47.07
38.96
31.98
28.49
29.18
32.91
37.48
40.60
40.59
35.63
25.50
11.93
-2.16
-13.94
-21.33
-23.36
-20.31
-13.73
-6.67
-1.81
-0.40
-2.04
-5.43
-9.13
-11.73
-12.42
-11.10
-8.34
-4.66
-0.16
5.30
11.58
18.20
24.37
29.25
32.33
33.35
32.47
30.07
26.45
21.73
15.77
8.50
0.16
-8.61
-16.80
-23.34
-27.40
-28.65
-27.38
-24.40
-20.79
-17.61
-15.54
-14.86
-15.39
-16.80
-18.64
-20.42
-21.82
-22.77
-23.47
-24.38
-26.00
-28.60
-32.16
-36.32
-40.50
-44.12
-46.65
-47.80
-47.42
-45.54
-42.33
-38.01
-32.88
-27.18
-21.13
-14.92
-8.75
-2.78
2.86
8.11
12.97
17.45
21.53
25.06
27.88
29.83
30.91
31.21
30.89
30.10
28.88
27.16
24.80
21.68
17.80
13.33
8.54
3.76
-0.76
-4.89
-8.56
-11.69
-14.05
-15.25
-14.86
-12.61
-8.59
-3.29
2.49
7.96
12.61
16.27
19.11
21.42
23.41
25.07
26.28
26.88
26.82
26.20
25.24
24.17
23.09
21.97
20.70
19.19
17.48
15.77
14.43
13.78
13.96
14.75
15.65
16.10
15.64
14.10
11.63
8.65
5.71
3.27
1.69
1.18
1.96
4.10
7.47
11.73
16.39
20.84
24.49
26.91
27.87
27.75
27.07
26.29
25.78
25.79
26.45
27.81
29.81
32.34
35.74
40.07
45.01
50.01
54.70
58.96
62.90
66.58
69.92
73.44
77.07
80.09
81.54
80.88
78.18
73.93
68.57
62.24
55.78
49.39
42.59
34.82
26.18
17.60
10.34
5.29
-3.91
-19.38
-38.44
-55.67
-67.12
-71.88
-71.16
-66.76
-60.63
-54.33
-47.85
-41.48
-36.44
-34.34
-35.80
-38.82
-40.89
-39.24
-32.19
-19.45
-3.33
11.77
21.23
22.23
12.62
-4.63
-24.62
-42.82
-55.77
-62.04
-62.32
-58.73
-53.81
-49.65
-47.09
-46.07
-45.89
-46.30
-46.44
-46.23
-45.98
-45.91
-45.84
-45.07
-43.17
-40.06
-35.87
-30.67
-24.64
-17.90
-10.54
-2.81
4.96
12.09
17.76
21.22
22.23
20.67
16.89
11.60
5.69
0.11
-4.52
-7.88
-9.94
-10.69
-10.10
-7.92
-3.90
2.15
10.08
19.12
28.03
35.28
39.47
39.79
36.33
30.05
22.48
15.32
9.54
5.22
1.34
-3.78
-11.58
-22.53
-35.79
-49.04
-59.20
-63.75
-61.17
-51.78
-37.85
-22.94
-11.22
-6.65
-11.89
-26.95
-49.10
-71.50
-86.09
-87.62
-75.26
-51.80
-22.27
7.28
34.26
56.42
72.09
80.42
81.51
76.50
67.44
54.50
39.08
22.60
5.68
-11.32
-28.12
-44.05
-57.72
-67.13
-70.25
-65.58
-53.17
-35.16
-14.89
4.14
19.42
30.25
37.61
43.41
49.67
57.05
64.10
67.45
62.38
44.04
9.41
-40.75
-100.68
-159.86
-205.53
-226.45
-216.50
-176.81
-115.43
-44.59
23.23
78.75
117.41
138.97
145.95
142.00
131.06
116.92
103.17
92.80
87.54
87.32
90.18
92.97
92.40
86.35
74.58
58.77
41.79
26.64
15.47
8.89
5.96
4.60
2.40
-2.53
-11.08
-23.00
-37.13
-51.87
-65.55
-76.80
-84.85
-89.54
-91.24
-90.55
-87.87
-83.13
-75.84
-65.46
-51.88
-35.83
-18.91
-3.31
8.60
14.64
13.19
3.49
-13.90
-36.62
-60.53
-80.42
-91.54
-91.33
-80.43
-62.47
-42.37
-24.33
-10.25
0.46
9.67
18.89
28.19
36.21
41.19
42.29
40.09
36.26
32.51
29.66
27.51
25.37
22.91
20.75
20.34
23.25
30.43
41.63
55.23
68.62
78.67
82.53
78.22
65.09
43.92
16.78
-13.19
-42.02
-65.35
-78.96
-79.69
-66.40
-40.71
-6.77
29.80
63.67
91.25
111.28
124.36
131.73
134.38
132.58
126.12
114.68
98.27
77.68
54.72
32.10
12.89
-0.42
-6.88
-7.54
-5.01
-2.16
-0.84
-1.15
-1.66
-0.42
4.08
12.30
23.24
34.37
41.73
40.48
26.44
-1.84
-41.18
-83.57
-118.22
-135.29
-129.48
-102.10
-60.39
-14.85
24.46
50.75
61.72
58.95
46.21
27.71
6.92
-13.69
-32.31
-47.42
-57.75
-62.38
-61.40
-56.20
-49.12
-42.56
-38.07
-35.85
-35.24
-35.48
-36.08
-37.73
-42.14
-50.94
-64.40
-80.34
-94.22
-100.41
-94.69
-75.76
-47.59
-18.53
2.39
10.17
6.70
-0.34
-1.70
8.47
31.78
64.33
99.42
131.01
156.18
175.05
188.58
196.51
197.30
192.16
184.06
177.07
174.66
178.83
189.69
205.05
220.59
218.20
185.86
122.92
41.68
-40.64
-110.74
-162.20
-194.26
-209.52
-213.43
-207.06
-190.16
-163.71
-131.44
-98.85
-71.18
-52.01
-42.24
-41.68
-45.85
-49.62
-49.72
-45.94
-41.24
-38.06
-37.34
-38.33
-39.52
-38.55
-34.45
-27.39
-19.68
-13.60
-9.96
-8.01
-6.09
-2.73
2.37
8.82
15.31
20.03
21.21
18.01
10.89
1.52
-7.86
-14.50
-15.91
-10.67
0.79
15.36
27.77
32.96
29.58
20.82
12.05
7.52
8.44
12.78
16.62
15.95
8.84
-4.40
-22.20
-42.59
-63.42
-82.35
-92.62
-88.83
-70.04
-40.64
-8.45
18.40
34.19
37.23
29.86
16.90
2.97
-8.71
-16.62
-20.76
-22.10
-21.81
-21.07
-19.84
-17.62
-14.33
-10.27
-5.65
-0.51
5.08
10.83
15.73
17.84
14.63
4.22
-12.64
-31.45
-45.12
-47.04
-34.54
-10.72
16.86
39.55
51.45
51.61
43.57
32.66
23.09
16.58
12.85
11.11
10.67
11.38
12.97
14.99
16.80
17.86
17.90
16.68
14.14
10.29
5.76
1.64
-0.50
0.45
4.21
8.91
11.92
11.14
5.79
-3.08
-13.28
-22.06
-27.25
-28.01
-24.99
-19.82
-12.97
-5.39
2.97
10.58
15.56
17.05
15.28
10.90
4.56
-2.93
-10.74
-17.71
-22.89
-25.55
-25.30
-22.17
-16.43
-8.59
0.45
9.02
15.24
17.68
16.40
13.26
10.89
11.23
14.20
17.47
17.19
10.22
-4.05
-23.05
-41.48
-53.78
-56.25
-48.39
-32.99
-15.15
-0.37
7.44
6.27
-2.37
-14.84
-27.17
-36.48
-41.71
-43.53
-43.36
-42.56
-41.77
-40.71
-38.89
-36.49
-34.46
-33.82
-34.48
-34.15
-29.00
-15.76
6.26
34.04
61.70
83.14
95.41
98.63
95.97
91.13
85.94
79.59
69.74
54.55
34.62
13.11
-5.74
-18.35
-23.16
-21.00
-14.27
-5.59
2.83
10.09
16.20
21.09
24.41
25.45
23.99
19.93
14.21
8.32
3.76
1.27
0.49
0.39
-0.09
-1.59
-4.05
-6.84
-9.19
-10.61
-11.13
-11.20
-11.25
-11.60
-12.31
-13.28
-14.41
-15.62
-16.84
-17.97
-18.84
-19.21
-18.83
-17.66
-15.81
-13.65
-11.56
-9.77
-8.34
-7.22
-6.31
-5.53
-4.90
-3.98
-2.68
-0.96
1.18
3.68
6.52
9.77
13.56
18.13
23.60
29.69
35.79
41.21
45.46
48.49
50.80
53.16
56.32
60.52
64.74
67.25
66.46
61.94
54.64
46.65
40.25
36.91
36.52
36.44
33.00
23.59
8.22
-10.65
-29.53
-45.48
-57.02
-64.38
-69.92
-76.11
-83.74
-91.35
-96.69
-98.48
-96.89
-92.71
-86.48
-79.79
-74.61
-72.95
-76.60
-87.60
-107.82
-137.44
-173.40
-199.63
-199.99
-168.46
-114.48
-54.72
-2.22
37.31
64.21
81.77
93.40
99.41
98.40
89.89
76.20
61.65
50.53
45.55
47.37
54.77
63.97
70.48
71.10
65.23
54.67
42.53
32.32
26.95
27.68
32.81
38.65
41.93
41.46
38.29
34.71
32.74
33.14
34.78
35.77
33.83
27.79
18.44
8.35
0.84
-1.29
2.96
12.00
21.53
26.17
21.76
7.17
-15.02
-39.51
-60.62
-74.55
-79.49
-77.72
-72.91
-68.25
-65.25
-63.56
-61.11
-55.03
-42.60
-22.77
2.16
27.81
48.14
58.23
56.82
46.67
32.31
17.40
3.48
-9.84
-22.29
-31.23
-32.02
-20.77
2.56
32.72
61.60
82.36
91.74
91.10
84.89
77.48
70.95
65.09
58.04
49.15
40.66
34.56
31.58
30.82
29.94
26.00
17.08
0.98
-22.98
-51.92
-83.38
-114.85
-141.84
-158.35
-159.02
-141.71
-112.62
-83.88
-66.52
-68.42
-89.81
-121.61
-150.03
-163.02
-146.37
-99.82
-47.83
-2.59
34.81
65.01
90.38
112.57
131.39
146.83
156.98
160.89
161.88
162.79
164.25
165.09
162.74
146.60
116.61
82.34
55.16
40.17
33.09
25.95
13.77
-3.23
-20.92
-33.08
-37.94
-37.75
-35.67
-34.45
-35.14
-36.57
-36.80
-34.51
-28.62
-21.47
-16.04
-14.91
-18.02
-24.41
-32.34
-39.94
-45.87
-48.74
-50.27
-52.50
-57.20
-64.77
-74.92
-86.56
-98.24
-109.33
-114.99
-118.58
-122.17
-124.69
-121.00
-106.26
-78.78
-41.22
-1.37
36.64
67.48
89.06
101.25
105.09
98.62
79.48
49.08
13.91
-10.72
-12.07
14.62
62.14
117.51
166.74
200.36
216.11
217.11
208.43
192.77
172.56
142.73
112.89
91.09
78.40
68.78
53.61
28.64
-3.17
-33.25
-54.89
-63.36
-61.82
-57.41
-56.84
-62.83
-73.39
-84.48
-93.11
-103.19
-114.67
-131.86
-157.67
-192.11
-232.80
-276.81
-322.26
-348.81
-345.37
-312.47
-260.58
-199.24
-134.03
-69.49
-11.21
35.65
69.73
90.56
101.47
107.82
112.71
115.58
116.51
112.74
103.01
90.53
79.03
73.23
76.25
88.82
109.07
134.15
162.13
183.33
191.64
185.03
166.70
140.93
110.44
76.77
42.02
9.08
-18.86
-38.22
-48.15
-50.59
-49.36
-47.97
-48.33
-50.34
-52.91
-54.65
-53.34
-48.40
-40.46
-31.99
-25.80
-23.71
-25.68
-30.43
-36.07
-40.00
-40.21
-36.27
-29.43
-21.37
-13.26
-5.06
3.82
14.01
26.27
40.98
57.22
70.95
78.09
75.45
62.46
41.26
16.70
-4.49
-15.74
-13.60
0.81
21.07
36.33
39.87
30.60
10.99
-16.42
-46.74
-74.93
-97.23
-111.68
-118.07
-117.08
-110.36
-99.94
-87.67
-74.85
-62.81
-52.75
-44.99
-38.37
-30.13
-17.47
0.86
23.64
47.28
66.53
76.49
74.89
63.31
46.92
32.25
24.72
26.81
37.54
52.82
67.07
75.20
74.05
63.30
45.05
22.96
1.08
-17.34
-30.79
-39.69
-45.65
-50.36
-54.57
-57.94
-59.67
-59.57
-58.62
-58.80
-61.94
-68.29
-75.93
-81.43
-81.36
-74.09
-60.61
-44.03
-28.20
-16.07
-8.82
-5.82
-5.36
-5.54
-5.01
-3.18
-0.30
2.80
5.00
5.26
3.09
-1.36
-7.33
-13.66
-19.06
-22.40
-22.90
-20.12
-13.98
-4.70
6.98
19.69
31.57
40.69
45.65
45.96
42.20
35.77
28.67
22.74
19.17
18.26
19.69
22.77
26.91
31.90
37.98
46.31
57.68
71.66
86.30
98.73
106.21
106.99
100.91
89.38
76.06
64.52
56.79
53.11
52.65
54.48
57.80
61.90
65.90
70.74
76.81
83.27
88.36
90.77
90.53
88.77
86.84
85.73
88.35
96.34
109.13
124.23
139.15
152.91
166.00
179.56
178.16
152.98
106.19
49.90
-3.43
-47.43
-81.06
-105.58
-122.81
-134.46
-139.39
-136.87
-127.84
-115.07
-101.81
-90.43
-82.34
-78.09
-77.60
-78.22
-77.68
-75.49
-73.45
-74.18
-78.84
-86.10
-92.38
-93.27
-84.40
-64.90
-38.18
-10.55
11.61
24.55
28.54
26.03
19.57
11.24
1.95
-7.74
-17.10
-25.00
-30.53
-33.74
-35.77
-38.12
-41.35
-44.93
-47.30
-46.87
-42.77
-35.40
-26.41
-18.00
-11.90
-8.66
-8.27
-9.85
-13.20
-18.81
-27.24
-38.10
-49.46
-58.16
-60.40
-55.44
-44.85
-32.23
-21.58
-15.37
-13.69
-14.65
-15.72
-14.82
-11.61
-7.01
-2.74
-0.41
-1.07
-5.12
-12.10
-20.79
-28.43
-31.61
-26.78
-11.95
11.88
40.18
66.05
82.41
84.60
72.13
48.89
22.06
-0.58
-13.39
-14.58
-6.34
6.56
19.13
27.78
31.22
29.80
24.33
15.08
2.51
-11.68
-23.92
-29.81
-26.32
-14.42
1.08
14.08
19.99
18.28
12.03
6.03
4.46
8.72
18.25
31.47
46.60
61.65
74.35
81.99
81.22
71.76
54.73
32.57
8.31
-15.41
-36.78
-54.66
-68.77
-78.24
-82.13
-80.30
-73.35
-62.57
-49.77
-36.97
-25.24
-16.00
-8.95
-2.69
4.09
12.15
21.10
29.73
36.22
39.06
37.55
32.18
24.11
14.51
4.46
-4.94
-12.61
-17.40
-18.03
-14.23
-6.38
4.33
16.05
26.68
34.36
37.66
36.02
29.92
20.66
10.18
0.10
-8.76
-16.45
-23.38
-29.87
-35.64
-40.05
-42.63
-43.40
-42.92
-41.88
-40.87
-39.20
-36.05
-30.77
-23.38
-14.81
-6.41
0.62
5.72
9.19
11.94
14.75
17.87
20.70
21.97
20.49
15.88
8.93
1.44
-4.45
-7.28
-6.65
-3.37
1.09
5.10
7.42
6.85
2.82
-4.66
-14.79
-25.42
-33.66
-36.85
-34.03
-26.20
-16.23
-7.96
-4.66
-7.65
-15.27
-23.90
-29.34
-28.40
-20.08
-5.70
11.63
28.30
41.33
49.61
53.37
53.93
53.07
52.49
53.39
56.29
61.44
66.04
68.46
67.44
62.44
53.57
41.33
26.66
10.11
-7.39
-24.78
-40.84
-55.03
-67.59
-79.28
-90.81
-101.69
-111.34
-117.76
-118.84
-113.10
-100.97
-84.77
-67.84
-52.92
-40.01
-28.17
-14.01
5.33
30.39
58.42
84.65
104.43
115.35
118.93
116.89
112.87
109.37
107.17
105.70
103.99
101.18
91.01
81.03
70.02
58.79
48.20
38.84
30.84
24.13
18.68
14.79
13.74
11.85
7.31
-0.58
-11.16
-23.14
-35.13
-45.92
-54.48
-59.62
-63.03
-64.70
-64.63
-63.26
-61.82
-62.20
-66.50
-75.98
-87.95
-99.73
-106.95
-106.03
-95.55
-76.22
-50.05
-19.65
12.28
42.73
67.57
83.57
89.19
85.27
74.82
63.41
53.43
46.21
41.63
38.25
34.48
28.96
20.62
8.82
-6.67
-23.70
-39.11
-50.76
-57.52
-59.40
-57.52
-53.67
-49.67
-46.30
-43.13
-38.74
-31.48
-19.11
-0.25
25.65
57.26
88.97
111.52
116.10
99.92
67.83
29.55
-5.07
-29.86
-43.75
-50.83
-55.25
-58.80
-61.01
-60.54
-56.44
-49.02
-39.73
-30.49
-22.09
-14.60
-7.36
0.33
7.90
13.43
15.50
14.55
12.48
11.32
12.26
15.36
19.74
24.10
27.46
29.58
30.64
30.79
29.90
27.71
24.22
19.82
15.22
11.23
8.53
7.49
7.21
6.57
4.71
1.30
-3.47
-9.07
-14.83
-19.94
-23.76
-25.87
-26.28
-25.50
-24.03
-21.96
-18.92
-14.35
-7.80
0.45
9.28
17.12
22.87
26.32
28.30
30.33
32.78
35.58
37.94
38.62
36.61
31.58
24.06
15.07
5.42
-4.26
-12.97
-19.49
-22.57
-21.43
-16.03
-7.36
2.86
12.25
18.98
22.98
25.67
28.86
33.62
39.78
45.19
47.37
43.67
32.82
16.02
-3.86
-23.70
-41.28
-55.47
-65.88
-67.93
-59.77
-44.99
-31.02
-24.28
-27.00
-37.11
-49.62
-58.91
-60.95
-55.48
-45.02
-32.97
-22.19
-14.43
-10.30
-9.56
-11.43
-14.83
-19.12
-23.56
-26.99
-28.40
-27.29
-23.94
-19.20
-14.03
-9.25
-5.84
-4.81
-5.72
-7.55
-8.88
-8.37
-5.06
1.28
9.92
19.13
26.91
31.62
32.94
31.81
29.93
28.84
29.46
31.79
35.06
38.07
39.78
39.22
35.72
29.25
20.74
12.24
6.66
6.42
11.98
20.85
28.23
29.52
23.31
11.85
0.66
-4.99
-2.81
5.35
15.34
23.68
29.62
34.31
37.79
37.44
28.75
9.28
-17.51
-42.25
-54.30
-48.32
-28.32
-6.63
4.17
-3.03
-25.95
-54.66
-77.38
-86.74
-82.29
-67.97
-50.05
-31.60
-12.61
7.66
28.12
44.76
52.44
47.63
30.96
6.89
-18.01
-38.11
-50.53
-54.94
-52.15
-42.70
-27.06
-5.68
19.23
44.03
64.46
77.41
82.16
80.01
74.61
68.94
64.43
60.37
55.01
46.62
34.56
19.74
4.30
-9.25
-19.24
-25.33
-28.64
-30.80
-33.17
-35.87
-38.05
-38.42
-36.06
-31.44
-26.02
-21.89
-20.76
-23.38
-29.25
-36.93
-44.21
-48.52
-48.06
-41.80
-30.09
-14.63
2.03
17.24
29.20
37.14
41.43
42.98
42.74
41.12
38.02
33.08
26.67
19.65
13.22
8.51
5.99
5.29
5.34
4.79
2.60
-1.66
-7.64
-14.34
-20.36
-24.34
-25.46
-23.84
-20.56
-17.25
-15.39
-15.62
-17.35
-19.02
-18.72
-15.16
-8.21
1.08
10.78
18.59
22.37
20.82
14.08
4.04
-5.94
-12.15
-11.93
-5.06
6.03
17.24
24.58
26.00
22.22
16.03
10.87
9.12
11.14
15.50
19.94
22.48
22.13
19.02
13.93
7.76
1.20
-5.33
-11.04
-14.98
-16.14
-13.87
-8.64
-2.39
1.97
1.69
-4.56
-15.97
-29.76
-42.35
-50.36
-51.67
-45.81
-33.68
-17.18
1.20
18.96
34.29
46.14
54.56
60.10
63.07
63.08
59.10
50.21
36.08
18.47
-0.13
-16.87
-29.51
-36.97
-39.39
-37.71
-32.93
-26.05
-17.24
-7.53
1.80
9.12
12.81
12.00
6.99
-0.51
-8.03
-13.32
-15.49
-15.00
-13.36
-12.14
-12.07
-12.86
-13.51
-13.10
-11.41
-9.20
-7.76
-8.31
-11.55
-17.36
-24.76
-31.90
-36.45
-35.84
-28.22
-13.08
7.87
30.66
49.86
60.26
59.11
47.18
28.55
8.97
-6.48
-14.94
-16.23
-12.08
-5.01
2.64
8.87
11.60
8.62
-1.90
-19.45
-40.12
-57.60
-65.74
-61.21
-44.91
-21.24
4.36
27.65
46.66
60.47
68.27
67.51
55.95
33.72
4.03
-26.16
-50.81
-66.89
-74.94
-77.06
-74.21
-64.75
-46.43
-17.76
18.92
57.38
90.58
113.21
122.96
119.76
104.27
77.40
40.80
-1.47
-42.79
-74.48
-89.22
-85.52
-68.02
-44.68
-22.36
-3.97
12.90
31.67
53.88
77.12
95.68
103.49
97.47
78.99
51.28
20.48
-10.20
-39.65
-67.41
-90.13
-102.09
-98.07
-77.02
-44.22
-9.27
17.61
30.65
30.50
22.72
13.93
8.28
6.20
5.29
3.35
-0.25
-4.29
-7.20
-8.62
-9.94
-13.43
-19.99
-28.96
-37.81
-43.66
-44.60
-40.64
-33.70
-26.80
-23.29
-24.43
-30.24
-39.07
-48.29
-54.90
-56.19
-50.04
-35.23
-10.73
21.92
55.46
79.84
87.90
79.60
61.76
44.10
34.37
35.26
44.13
55.41
64.34
68.78
68.61
63.85
53.59
36.67
13.39
-13.39
-38.32
-55.05
-59.27
-50.94
-34.39
-16.12
-1.61
6.87
10.15
10.52
9.97
9.27
8.33
6.99
5.47
4.00
2.58
0.56
-2.44
-5.40
-5.67
-0.23
12.15
29.15
44.86
52.50
48.01
32.41
11.44
-7.42
-18.77
-21.65
-19.22
-16.23
-16.19
-19.90
-25.72
-31.17
-34.58
-35.77
-35.65
-35.24
-34.87
-33.98
-31.60
-27.21
-21.34
-15.49
-11.74
-11.67
-15.64
-22.58
-30.21
-36.02
-38.26
-36.68
-32.47
-27.69
-24.42
-23.46
-24.58
-26.40
-26.82
-23.55
-14.88
-0.31
19.02
40.39
60.19
74.90
82.15
81.47
74.30
63.48
52.32
43.49
38.16
35.39
33.02
28.32
19.83
8.34
-3.27
-11.55
-14.48
-12.22
-6.79
-0.67
4.64
9.18
13.84
19.02
23.68
25.69
22.78
14.15
1.06
-13.64
-26.47
-34.41
-35.80
-30.80
-21.35
-10.54
-1.74
2.86
2.71
-0.90
-6.02
-10.90
-14.80
-18.18
-22.16
-27.94
-36.07
-46.48
-58.60
-71.11
-81.53
-86.96
-84.90
-73.63
-55.18
-33.54
-11.52
8.63
26.06
41.16
54.27
64.92
71.57
72.22
65.97
53.14
35.18
14.16
-7.17
-25.99
-39.77
-47.09
-48.42
-45.76
-42.31
-40.94
-42.45
-44.27
-41.30
-28.56
-3.56
31.76
71.12
104.96
123.89
122.35
101.26
67.77
32.02
3.21
-13.53
-17.34
-10.85
2.88
20.35
38.55
55.34
68.99
78.52
80.85
76.25
66.77
54.24
40.16
26.97
18.23
17.25
23.25
32.13
38.50
37.97
28.98
13.79
-2.68
-14.83
-19.91
-18.90
-16.18
-16.76
-21.17
-27.83
-33.81
-36.63
-34.61
-30.60
-26.49
-25.02
-29.83
-43.62
-64.24
-87.41
-107.57
-117.91
-113.14
-91.91
-58.16
-21.40
7.84
21.58
16.61
-6.88
-44.67
-90.19
-136.21
-176.00
-206.33
-225.60
-233.29
-219.55
-183.02
-131.14
-74.52
-24.16
22.48
66.56
106.55
138.11
155.72
154.70
136.35
109.15
82.67
70.36
78.38
101.72
127.58
143.58
142.82
126.43
100.40
70.75
41.89
14.28
-11.52
-32.47
-43.45
-40.90
-24.23
2.99
34.09
61.95
80.15
85.75
80.15
68.30
55.86
47.40
45.21
47.31
51.00
52.93
50.94
44.22
33.93
22.20
11.52
3.05
-3.39
-8.08
-11.22
-12.22
-11.09
-7.81
-3.10
1.99
4.91
2.90
-5.39
-19.27
-36.19
-54.84
-74.86
-98.20
-123.52
-150.69
-179.89
-210.65
-241.41
-258.69
-252.50
-219.32
-163.50
-92.29
-14.73
59.38
120.65
162.45
182.87
183.59
173.74
157.41
138.60
119.80
102.25
86.93
75.35
69.29
68.64
72.11
77.01
80.78
81.97
80.27
76.76
73.62
72.91
74.99
78.70
81.22
79.98
73.00
59.47
40.42
18.73
-2.07
-18.28
-26.82
-26.85
-19.50
-7.93
3.67
11.54
13.66
9.28
0.50
-8.88
-16.07
-20.38
-23.22
-27.22
-35.01
-48.49
-70.21
-100.23
-136.45
-176.73
-219.04
-260.66
-297.78
-325.71
-340.44
-341.99
-330.53
-306.10
-270.33
-226.30
-177.20
-125.54
-72.80
-7.78
62.45
122.54
164.17
189.60
204.31
211.01
208.49
194.72
169.55
136.03
100.02
71.19
57.13
59.40
74.86
93.68
105.54
104.67
90.01
67.48
45.93
31.14
23.60
20.21
16.21
10.17
2.54
-7.01
-17.78
-28.43
-38.01
-45.63
-49.41
-46.96
-35.60
-10.85
22.26
54.62
77.61
86.05
79.50
62.00
39.34
17.71
0.82
-10.38
-16.14
-17.14
-14.18
-7.98
0.70
9.85
17.37
21.81
22.99
21.23
17.65
14.37
12.52
11.86
9.51
2.58
-10.08
-26.72
-44.91
-61.58
-73.88
-79.92
-72.60
-50.66
-19.71
6.83
27.31
42.65
54.96
64.54
71.26
75.03
75.15
72.16
68.44
67.99
72.72
82.58
95.58
108.61
118.28
121.17
115.88
103.61
87.91
71.55
56.36
43.11
32.04
23.07
15.64
9.57
5.05
2.58
1.36
0.03
-2.72
-7.42
-13.62
-20.25
-25.69
-28.12
-25.88
-18.36
-5.71
11.20
30.99
51.71
70.88
85.99
95.07
97.38
93.50
85.22
74.80
63.93
52.98
40.88
25.80
6.23
-18.20
-46.44
-76.54
-106.42
-134.54
-160.18
-183.27
-203.89
-221.93
-236.86
-247.95
-254.63
-256.91
-255.55
-252.06
-248.17
-245.24
-243.69
-242.75
-240.76
-235.85
-226.84
-213.82
-198.20
-182.22
-168.17
-157.67
-151.38
-148.92
-149.21
-150.58
-150.98
-148.12
-139.85
-124.70
-102.48
-74.66
-44.17
-14.62
10.84
30.52
44.61
54.79
63.34
72.16
82.16
93.20
104.55
115.37
124.90
132.48
137.27
138.30
134.73
126.40
114.30
100.57
87.87
78.55
73.76
73.25
75.60
78.92
81.60
82.77
82.33
80.72
78.46
75.95
73.35
70.62
67.74
64.91
62.51
60.96
60.42
60.49
60.17
58.06
52.90
44.15
32.32
18.93
6.06
-4.26
-10.65
-12.63
-10.64
-5.74
0.71
7.34
12.99
16.89
18.75
18.80
17.75
16.67
16.74
18.91
23.62
30.61
38.97
47.41
54.64
59.81
62.66
63.48
62.89
61.42
59.40
56.87
53.84
50.60
47.86
46.61
47.67
51.19
56.37
61.44
64.20
62.89
56.85
46.77
34.37
21.66
10.21
0.80
-6.70
-12.94
-18.76
-24.82
-31.40
-38.40
-45.38
-51.71
-56.52
-59.15
-59.31
-57.12
-52.93
-47.30
-40.92
-34.64
-29.18
-24.39
-19.53
-13.42
-4.84
6.92
21.53
37.46
52.58
65.06
75.08
83.74
92.21
101.04
110.22
119.11
126.96
133.23
137.72
141.89
146.66
151.67
155.58
157.15
155.54
150.55
142.15
130.19
116.35
102.26
88.99
77.41
68.71
63.52
61.48
60.73
46.97
13.26
-36.49
-90.83
-139.44
-177.50
-204.75
-224.22
-238.73
-249.32
-254.62
-253.98
-249.00
-242.69
-234.23
-223.52
-209.41
-190.53
-166.25
-136.32
-102.49
-68.62
-38.27
-14.10
2.31
12.81
20.84
28.26
34.64
40.81
45.03
46.89
47.67
49.25
53.52
58.46
62.68
65.42
66.78
67.10
67.18
67.52
67.84
67.56
65.97
63.02
59.14
55.05
50.84
46.33
40.92
34.02
25.63
16.33
7.41
0.14
-4.41
-5.94
-4.69
-1.56
2.11
5.01
5.99
4.58
0.80
-4.77
-11.34
-17.94
-23.83
-28.63
-32.44
-35.77
-39.13
-42.91
-47.03
-51.05
-54.21
-55.81
-55.49
-53.33
-49.90
-45.97
-42.34
-39.65
-38.21
-37.97
-38.62
-39.69
-40.56
-40.61
-39.29
-36.32
-31.84
-26.46
-21.19
-17.19
-15.36
-16.10
-19.18
-23.99
-29.72
-35.55
-40.76
-44.71
-46.88
-46.97
-45.00
-41.36
-36.56
-31.02
-24.82
-17.74
-9.53
-0.26
9.50
18.78
26.55
32.18
35.60
37.23
37.70
37.56
37.13
36.47
35.55
34.42
33.23
32.25
31.68
31.59
31.83
32.03
31.72
30.53
28.28
25.03
20.89
15.95
10.08
2.88
-6.06
-17.08
-30.20
-45.08
-60.94
-76.55
-90.39
-100.88
-106.77
-107.47
-103.28
-95.28
-84.98
-73.88
-63.09
-53.34
-45.07
-38.63
-34.36
-32.40
-32.59
-34.35
-36.79
-39.00
-40.32
-40.44
-39.43
-37.55
-35.10
-32.30
-29.20
-25.85
-22.20
-18.27
-14.06
-9.65
-5.10
-0.36
4.81
10.88
18.48
28.21
40.44
55.05
71.49
88.99
106.86
124.68
142.34
159.81
176.81
192.64
206.26
216.51
222.47
223.54
219.60
210.83
197.70
180.87
161.28
140.11
118.80
98.79
81.31
67.08
56.29
48.55
43.07
39.03
35.77
32.97
30.74
29.42
29.49
31.29
34.87
39.89
45.78
51.71
56.89
60.57
61.97
60.23
54.37
43.50
27.21
5.83
-19.40
-46.51
-73.31
-97.83
-118.65
-134.90
-146.07
-151.93
-152.55
-148.51
-140.98
-131.58
-121.99
-113.43
-106.31
-100.25
-94.35
-87.62
-79.37
-69.32
-57.60
-44.59
-30.66
-16.23
-1.61
12.85
26.76
39.68
51.14
60.72
68.06
72.78
74.47
72.75
67.44
58.88
48.20
37.13
27.54
20.45
15.38
10.30
2.36
-10.71
-29.40
-51.99
-74.98
-94.51
-107.67
-113.27
-111.88
-105.03
-94.45
-81.51
-67.17
-52.20
-37.32
-23.20
-10.11
2.20
14.42
27.36
41.47
56.62
72.31
88.05
103.76
119.73
136.15
152.55
167.31
177.86
181.46
176.13
161.52
138.99
111.16
81.08
51.43
24.10
0.07
-20.40
-37.62
-52.31
-65.52
-78.43
-92.08
-107.09
-123.39
-140.17
-156.12
-169.87
-180.46
-187.70
-192.21
-195.27
-198.30
-202.37
-207.82
-214.13
-220.25
-225.01
-227.51
-227.29
-224.18
-218.17
-209.08
-196.51
-180.21
-160.54
-138.57
-115.83
-93.49
-71.77
-49.73
-25.38
3.34
37.46
76.00
115.92
153.06
183.52
204.89
216.50
219.63
216.94
211.37
205.15
199.37
194.32
189.84
185.69
180.52
173.30
164.11
153.98
144.27
136.17
130.77
128.99
131.38
135.56
139.25
141.82
144.18
147.39
151.66
156.61
161.51
165.29
162.86
150.07
126.08
93.00
53.51
9.10
-39.51
-91.77
-147.12
-209.72
-281.89
-360.80
-439.09
-508.25
-561.73
-595.49
-608.38
-572.59
-478.34
-343.84
-204.91
-88.77
-2.83
57.90
101.53
133.97
158.24
170.99
170.19
160.97
149.04
139.67
135.31
135.74
138.88
142.27
140.63
131.18
115.56
98.49
85.12
76.62
73.78
76.19
82.79
90.06
95.15
97.31
97.02
91.00
77.28
57.57
36.25
17.48
2.27
-9.93
-19.70
-27.91
-34.65
-39.27
-41.20
-40.70
-38.75
-36.95
-36.55
-37.26
-38.54
-39.45
-38.72
-35.30
-29.19
-21.32
-13.14
-6.22
-1.86
-1.09
-4.19
-10.53
-19.09
-28.82
-38.78
-47.92
-55.06
-58.97
-58.95
-54.93
-47.65
-38.63
-29.76
-22.62
-17.72
-14.42
-11.30
-6.95
-0.56
7.87
17.65
27.85
37.78
47.21
56.24
64.93
73.07
80.18
85.71
89.30
90.96
91.02
89.90
87.96
85.35
82.07
78.11
73.44
68.03
61.75
54.27
45.16
34.09
21.22
7.32
-6.21
-17.63
-25.35
-28.49
-27.24
-22.87
-17.39
-12.93
-11.13
-12.75
-17.57
-24.61
-32.53
-40.01
-46.08
-50.30
-52.76
-53.95
-54.55
-55.20
-56.32
-58.02
-60.13
-62.35
-64.38
-66.00
-67.08
-67.61
-67.71
-67.68
-67.99
-69.16
-71.52
-75.07
-79.36
-83.72
-87.47
-90.16
-91.58
-91.58
-89.97
-86.37
-80.31
-71.49
-59.90
-45.91
-30.21
-13.70
2.59
17.60
30.36
40.13
46.60
49.99
50.97
50.43
49.22
47.86
46.49
45.00
43.24
41.30
39.53
38.48
38.53
39.72
41.60
43.40
44.36
43.99
42.25
39.54
36.39
33.33
30.69
28.49
26.66
25.01
23.43
21.84
20.26
18.72
17.35
16.33
15.94
16.57
18.52
21.87
26.19
30.56
33.71
34.46
32.23
27.34
20.87
14.22
8.51
4.22
1.21
-1.00
-2.72
-3.98
-4.55
-4.14
-2.71
-0.51
2.06
4.59
6.86
8.78
10.42
11.84
13.04
14.00
14.65
14.93
14.83
14.45
13.98
13.68
13.84
14.71
16.55
19.53
23.71
28.88
34.41
39.30
42.38
42.83
40.52
36.22
31.26
27.02
24.23
22.78
21.79
20.24
17.44
13.34
8.55
3.90
0.05
-2.87
-5.19
-7.45
-10.05
-13.10
-16.45
-19.85
-23.16
-26.30
-29.08
-31.01
-31.28
-29.06
-23.85
-15.84
-5.93
4.57
14.44
22.90
29.76
35.17
39.31
42.19
43.57
43.22
40.98
36.99
31.56
25.09
17.89
10.14
2.01
-6.28
-14.31
-21.57
-27.54
-31.87
-34.45
-35.48
-35.32
-34.38
-33.04
-31.56
-30.05
-28.58
-27.14
-25.78
-24.57
-23.65
-23.21
-23.50
-24.69
-26.80
-29.63
-32.75
-35.68
-37.94
-39.24
-39.45
-38.48
-36.20
-32.44
-27.16
-20.55
-13.27
-6.29
-0.71
2.65
3.47
2.01
-1.00
-4.68
-8.19
-10.96
-12.62
-12.95
-11.76
-8.91
-4.43
1.34
7.69
13.62
18.23
21.10
22.47
23.11
23.92
25.41
27.48
29.43
30.34
29.56
26.90
22.58
17.00
10.54
3.58
-3.40
-9.65
-14.16
-16.04
-14.93
-11.32
-6.38
-1.49
2.34
4.92
6.68
8.26
9.90
11.20
11.36
9.73
6.33
2.00
-2.04
-4.80
-6.04
-6.23
-6.08
-6.04
-6.05
-5.75
-5.00
-4.15
-3.96
-5.11
-7.63
-10.75
-13.27
-14.15
-13.06
-10.52
-7.65
-5.60
-5.17
-6.56
-9.47
-13.24
-16.91
-19.34
-19.34
-15.92
-8.66
1.96
14.58
27.29
38.14
45.69
49.16
48.33
43.34
34.39
21.83
6.38
-10.62
-27.26
-41.42
-51.42
-56.54
-57.22
-54.75
-50.62
-45.95
-41.21
-36.38
-31.41
-26.57
-22.47
-19.69
-18.34
-17.86
-17.23
-15.43
-11.96
-6.95
-0.96
5.32
11.48
17.32
22.77
27.78
32.32
36.51
40.73
45.39
50.73
56.55
62.17
66.69
69.31
69.59
67.40
62.76
55.73
46.50
35.61
24.15
13.61
5.42
0.25
-2.42
-4.19
-6.94
-11.97
-19.21
-27.33
-34.38
-38.80
-40.20
-39.49
-38.31
-38.15
-39.52
-41.79
-43.52
-43.19
-39.92
-33.92
-26.42
-19.26
-14.19
-12.44
-14.38
-19.71
-27.76
-37.79
-49.11
-60.84
-71.78
-80.35
-85.07
-84.97
-80.21
-72.03
-62.30
-52.77
-44.45
-37.46
-31.36
-25.73
-20.60
-16.36
-13.33
-11.30
-9.46
-6.81
-2.85
1.92
6.07
8.07
7.19
4.15
1.05
0.38
3.87
11.72
22.53
34.23
45.08
54.40
62.57
70.40
78.28
85.73
91.44
93.82
91.67
84.83
74.27
61.91
49.93
40.10
33.10
28.39
24.40
19.09
10.69
-1.76
-18.20
-37.58
-58.29
-78.44
-96.27
-110.49
-120.44
-126.21
-128.36
-127.70
-124.89
-120.28
-113.88
-105.61
-95.49
-83.78
-70.92
-57.31
-43.25
-28.89
-14.40
-0.13
13.33
25.22
34.84
41.83
46.22
48.49
49.36
49.52
49.42
49.22
48.87
48.31
47.45
46.31
44.92
43.26
41.36
39.35
37.54
36.41
36.37
37.61
39.87
42.48
44.59
45.41
44.56
42.18
38.80
35.22
32.17
30.21
29.66
30.63
32.99
36.37
40.11
43.43
45.50
45.75
43.88
39.99
34.41
27.68
20.35
13.02
6.26
0.63
-3.47
-5.79
-6.29
-5.16
-2.81
0.27
3.49
6.39
8.65
10.22
11.27
12.08
12.77
13.31
13.44
12.89
11.51
9.50
7.31
5.62
5.18
6.59
10.22
16.07
23.72
32.35
40.96
48.59
54.55
58.58
60.81
61.57
61.25
60.13
58.37
56.02
53.04
49.35
44.89
39.64
33.72
27.40
21.05
15.01
9.51
4.59
0.11
-4.26
-8.94
-14.46
-21.23
-29.45
-38.83
-48.57
-57.53
-64.67
-69.43
-71.97
-73.04
-73.51
-73.96
-74.38
-74.26
-72.85
-69.53
-63.97
-56.27
-46.90
-36.70
-26.72
-18.00
-11.26
-6.66
-3.75
-1.68
0.36
2.77
5.42
7.82
9.44
10.08
10.05
10.01
10.73
12.61
15.48
18.65
21.14
22.17
21.48
19.43
16.73
13.92
11.00
7.39
2.34
-4.44
-12.33
-19.88
-25.35
-27.50
-26.13
-22.08
-16.82
-11.84
-8.04
-5.64
-4.26
-3.26
-1.99
0.03
3.00
6.78
10.90
14.71
17.64
19.43
20.26
20.63
21.06
21.84
22.89
23.85
24.39
24.35
23.91
23.40
23.14
23.20
23.34
23.18
22.24
20.24
17.18
13.37
9.35
5.60
2.45
-0.11
-2.28
-4.37
-6.46
-8.36
-9.70
-10.17
-9.74
-8.74
-7.60
-6.52
-5.18
-2.71
1.89
9.22
19.13
30.66
42.40
52.93
61.18
66.58
69.01
68.72
66.17
62.14
57.62
53.75
51.54
51.56
53.64
56.81
59.45
59.87
57.04
51.01
43.10
35.28
29.30
25.81
24.15
22.81
20.38
16.42
11.68
7.67
5.74
6.43
9.07
12.20
14.15
13.70
10.43
4.70
-2.64
-10.59
-18.37
-25.62
-32.33
-38.76
-45.07
-51.21
-56.90
-61.76
-65.48
-67.88
-68.82
-68.16
-65.70
-61.36
-55.30
-48.06
-40.49
-33.53
-27.85
-23.68
-20.76
-18.44
-15.92
-12.45
-7.47
-0.70
7.76
17.32
27.04
35.79
42.52
46.56
47.77
46.53
43.45
39.24
34.47
29.65
25.18
21.41
18.53
16.51
15.00
13.37
10.93
7.20
2.05
-4.23
-11.02
-17.60
-23.36
-28.01
-31.63
-34.62
-37.65
-41.41
-46.50
-53.28
-61.68
-71.18
-80.66
-88.65
-93.73
-95.00
-92.51
-87.35
-81.30
-76.22
-73.29
-72.62
-73.31
-73.99
-73.40
-70.95
-66.73
-61.27
-55.14
-48.59
-41.58
-33.90
-25.58
-16.88
-8.28
-0.23
7.02
13.42
19.00
23.79
27.58
30.12
31.17
30.69
28.91
26.24
23.08
19.77
16.51
13.26
9.83
5.95
1.56
-3.05
-7.25
-10.48
-12.27
-12.56
-11.83
-11.03
-11.10
-12.52
-15.07
-17.95
-20.52
-22.17
-22.67
-22.40
-22.34
-23.69
-27.55
-34.52
-44.49
-57.12
-70.74
-82.79
-90.58
-92.47
-88.54
-80.56
-71.12
-62.58
-56.88
-53.83
-51.57
-47.78
-41.04
-31.30
-19.64
-7.40
8.70
28.36
48.67
66.17
79.17
87.67
93.10
96.26
97.92
99.21
99.85
100.20
100.73
101.53
101.93
100.79
96.98
89.95
79.76
66.29
50.17
32.54
14.81
-1.81
-16.45
-28.75
-38.50
-45.72
-50.81
-53.75
-54.19
-51.81
-46.78
-39.98
-32.72
-26.18
-21.05
-17.47
-14.85
-12.22
-8.77
-4.32
0.67
5.46
9.68
13.33
16.64
19.94
23.45
27.14
30.73
33.79
35.93
37.27
37.94
37.78
36.35
33.29
28.55
22.51
15.82
9.22
3.84
0.43
-0.95
-0.77
0.54
2.89
6.47
11.40
17.61
25.47
34.85
44.93
54.46
62.41
68.43
72.73
75.76
73.26
63.13
47.06
29.64
14.61
3.15
-5.40
-11.81
-17.15
-21.31
-22.42
-18.48
-8.61
6.37
24.32
41.76
54.90
60.79
57.84
47.11
31.15
12.83
-5.67
-23.02
-38.47
-51.52
-61.86
-69.88
-75.61
-78.92
-79.79
-78.55
-75.85
-72.40
-68.80
-65.53
-63.74
-63.94
-65.95
-68.98
-72.21
-75.01
-76.91
-77.48
-71.07
-55.50
-33.16
-9.67
10.02
23.34
29.77
30.34
27.06
22.70
18.89
17.44
18.62
21.11
22.66
21.43
17.06
10.88
4.99
0.58
-1.99
-2.95
-2.65
-1.33
0.65
2.73
4.13
4.04
2.12
-1.04
-3.91
-4.47
-0.99
7.21
19.47
33.99
47.71
57.57
61.56
59.44
52.81
44.62
38.08
35.21
35.88
37.74
37.21
31.03
17.87
-0.97
-21.68
-39.22
-49.08
-48.89
-39.28
-23.40
-6.23
8.21
17.02
19.24
15.88
9.08
1.26
-5.47
-9.43
-9.77
-6.65
-1.20
4.73
9.45
11.68
11.46
10.16
10.16
13.40
20.24
28.76
35.71
38.22
35.18
27.75
18.20
9.16
2.31
-1.67
-2.72
-1.00
2.73
6.63
7.87
3.43
-7.59
-23.31
-39.14
-50.01
-52.59
-47.24
-37.69
-27.71
-22.39
-22.88
-26.92
-30.88
-32.40
-31.34
-29.42
-28.77
-30.57
-34.76
-39.64
-44.22
-47.12
-48.36
-48.84
-50.22
-54.35
-62.48
-74.85
-89.70
-103.88
-113.52
-115.51
-108.69
-94.38
-75.89
-57.14
-41.64
-31.64
-28.56
-32.67
-43.02
-56.97
-70.20
-77.54
-74.80
-60.26
-34.82
-3.31
28.38
56.67
82.28
109.42
142.50
182.62
226.08
265.89
294.77
308.80
308.29
295.97
274.28
243.48
201.88
147.97
82.86
11.15
-58.87
-117.59
-157.66
-176.65
-177.30
-165.62
-147.92
-128.23
-108.02
-85.30
-56.44
-18.84
27.44
79.80
134.13
185.56
229.13
258.89
271.15
265.55
244.39
211.44
170.87
126.05
78.49
27.78
-28.65
-90.40
-152.43
-206.79
-245.74
-264.47
-262.86
-245.64
-210.07
-163.78
-120.30
-88.59
-68.85
-57.47
-51.76
-50.09
-50.06
-47.80
-41.00
-28.37
-10.87
7.60
21.95
28.79
28.57
24.90
22.63
24.35
32.03
45.13
60.65
73.05
76.09
65.84
42.56
10.77
-23.17
-52.16
-69.49
-73.75
-68.68
-60.15
-52.33
-46.14
-39.66
-30.17
-14.55
8.52
37.54
67.87
92.38
103.82
97.23
71.66
31.13
-15.95
-59.38
-89.05
-97.82
-87.04
-64.04
-37.51
-13.82
4.55
18.15
28.38
35.75
39.41
38.07
32.18
24.45
18.83
18.30
23.11
30.34
35.41
34.37
25.96
12.43
-1.84
-12.75
-18.11
-18.12
-14.58
-9.69
-5.32
-3.03
-3.91
-8.50
-16.56
-26.83
-37.06
-44.47
-47.07
-44.21
-37.17
-28.45
-20.62
-15.07
-11.30
-7.35
-1.10
8.05
18.53
27.12
30.88
29.15
24.11
19.49
18.16
20.16
22.48
20.80
12.37
-2.21
-19.14
-33.48
-41.69
-43.22
-40.34
-36.56
-34.83
-36.51
-41.48
-48.74
-57.12
-65.46
-72.77
-78.08
-80.57
-79.74
-75.42
-67.53
-55.88
-40.33
-20.97
0.77
22.68
42.62
59.47
73.53
85.95
97.67
108.29
115.84
117.77
112.37
99.83
82.25
62.68
43.84
27.46
14.20
4.20
-2.46
-5.79
-6.15
-4.58
-2.56
-1.38
-1.59
-2.89
-4.63
-6.60
-9.44
-14.43
-22.79
-34.83
-49.52
-64.83
-78.42
-88.56
-94.52
-96.35
-94.40
-88.80
-79.42
-66.02
-48.84
-28.86
-7.87
11.98
28.75
41.23
49.16
53.15
54.30
53.77
52.41
50.65
48.63
46.35
43.85
41.27
38.74
36.25
33.46
29.69
24.12
16.13
5.57
-7.06
-20.74
-34.18
-46.20
-55.95
-62.88
-66.56
-66.56
-62.49
-54.10
-41.56
-25.65
-7.76
10.26
26.47
39.09
46.82
48.87
45.21
36.56
24.45
11.01
-1.46
-10.98
-16.15
-16.40
-11.89
-3.17
9.09
24.11
40.97
58.45
75.23
90.49
103.72
114.75
123.46
129.48
132.03
129.94
122.09
108.17
89.57
68.67
48.01
29.53
14.28
2.43
-6.50
-13.31
-18.55
-21.45
-21.27
-17.79
-11.53
-3.41
5.69
15.02
23.84
31.82
40.10
49.66
60.60
71.95
82.11
89.69
93.92
94.63
84.89
62.16
29.46
-5.87
-36.99
-60.86
-77.62
-87.96
-94.79
-99.97
-103.40
-104.89
-104.82
-104.21
-103.83
-103.82
-103.77
-103.30
-101.93
-98.58
-92.78
-84.86
-75.05
-64.33
-53.53
-43.18
-33.72
-25.49
-18.28
-12.06
-7.01
-2.57
1.07
3.72
5.07
4.79
2.53
-1.35
-6.10
-10.59
-14.37
-16.91
-17.77
-17.21
-15.72
-14.08
-12.39
-10.08
-6.02
0.93
11.50
25.71
42.54
60.76
75.53
81.69
75.51
56.61
28.37
-3.28
-29.88
-47.70
-54.31
-49.27
-34.00
-11.56
13.79
37.16
54.85
65.42
69.16
67.84
62.92
55.31
45.47
34.09
22.58
13.03
7.39
6.33
9.37
14.65
19.91
23.26
23.78
21.55
17.40
12.31
6.85
1.39
-4.09
-9.61
-15.02
-19.94
-23.90
-26.62
-28.13
-28.88
-29.32
-29.83
-30.44
-30.81
-30.24
-27.94
-23.32
-16.35
-7.82
0.73
7.41
10.57
9.42
4.34
-3.37
-12.02
-20.08
-26.67
-31.46
-34.52
-36.05
-36.23
-35.23
-33.26
-30.62
-27.66
-24.72
-22.06
-19.81
-17.93
-16.25
-14.50
-12.52
-10.42
-8.63
-7.73
-8.13
-9.80
-12.18
-14.43
-15.74
-15.77
-14.59
-12.61
-10.23
-7.61
-4.71
-1.47
1.97
5.14
7.40
8.19
7.40
5.38
2.90
0.85
-0.12
0.18
1.47
3.11
4.45
5.11
5.06
4.54
3.84
2.98
1.82
0.15
-2.10
-4.84
-7.94
-11.54
-16.02
-21.93
-29.46
-37.98
-45.98
-51.45
-52.64
-48.72
-40.12
-28.30
-15.11
-2.16
9.51
19.40
27.13
32.21
33.92
31.54
24.84
14.47
1.97
-10.55
-21.07
-28.21
-31.48
-31.30
-28.70
-24.91
-21.05
-17.75
-14.97
-11.98
-7.66
-0.96
8.47
20.02
32.24
43.44
52.31
58.36
61.91
63.80
64.97
66.14
67.71
69.79
72.38
75.31
78.18
80.38
81.20
80.09
76.85
71.51
64.22
55.35
45.35
34.68
23.97
14.01
5.69
0.06
-2.47
-2.37
-0.56
1.53
2.09
-0.65
-8.02
-20.40
-36.43
-53.86
-69.90
-80.87
-83.71
-77.29
-62.82
-43.49
-23.42
-5.52
8.06
16.16
20.17
22.50
25.49
31.27
41.78
58.50
82.56
111.68
139.68
159.72
165.49
153.09
122.60
77.80
18.81
-47.25
-108.00
-161.28
-205.36
-235.64
-246.99
-236.69
-207.03
-165.57
-121.79
-84.79
-60.41
-47.75
-41.93
-37.71
-32.01
-24.65
-17.20
-10.54
-4.93
-0.37
4.39
10.01
15.72
19.66
20.05
16.42
10.51
5.20
2.84
5.12
11.76
20.52
28.37
32.83
32.96
29.64
24.97
20.42
16.48
12.23
6.24
-2.30
-12.71
-22.79
-29.56
-29.74
-22.39
-9.66
4.06
14.22
18.20
16.12
10.26
3.71
0.66
3.46
11.98
24.43
39.04
54.91
71.80
89.43
107.21
126.30
147.25
168.87
188.59
203.91
213.34
216.55
213.97
193.96
152.65
96.68
39.63
-6.94
-38.38
-55.50
-61.98
-62.84
-63.38
-66.02
-71.81
-81.49
-94.87
-110.07
-123.71
-132.10
-132.44
-123.56
-105.70
-79.55
-49.25
-20.94
-0.02
11.00
12.80
8.23
0.94
-4.98
-6.99
-5.84
-4.85
-7.58
-15.81
-28.73
-43.35
-55.58
-61.39
-56.52
-40.50
-17.14
7.88
29.47
44.72
52.90
54.70
51.39
43.89
31.96
14.39
-8.72
-35.08
-60.83
-82.23
-96.92
-104.38
-105.77
-97.81
-81.10
-60.41
-41.55
-27.32
-17.19
-9.42
-2.89
2.57
6.52
7.91
6.75
4.27
2.08
0.82
-0.01
-1.33
-3.72
-7.24
-12.17
-18.12
-24.35
-28.69
-29.25
-25.04
-16.33
-4.54
8.11
19.07
26.97
31.75
34.72
37.22
39.56
40.91
40.17
36.98
31.92
26.51
22.19
19.56
17.92
15.82
12.27
7.39
2.41
-1.10
-2.10
-0.56
2.73
6.52
9.70
11.77
12.75
12.85
12.15
10.73
8.80
6.99
6.08
6.62
8.69
11.72
14.95
17.53
19.11
19.85
20.23
20.40
19.93
17.95
13.56
6.39
-3.00
-13.15
-22.01
-27.47
-28.37
-24.78
-17.85
-9.27
-0.78
6.14
10.39
11.50
9.94
6.45
1.83
-2.87
-6.54
-8.30
-8.02
-6.60
-5.54
-5.73
-8.01
-12.63
-18.67
-24.26
-27.34
-26.90
-23.73
-20.02
-17.53
-18.01
-22.45
-30.16
-39.33
-46.42
-46.75
-37.95
-24.57
-8.97
8.07
24.63
39.09
50.44
58.36
62.78
63.97
60.64
54.18
46.85
40.37
35.02
29.61
22.47
12.21
-1.11
-16.05
-29.25
-37.97
-40.97
-38.32
-31.40
-22.54
-15.45
-12.33
-14.64
-21.81
-32.31
-43.76
-53.48
-59.27
-58.19
-50.91
-39.77
-27.62
-16.04
-5.89
2.90
10.90
18.76
26.81
34.79
42.42
49.35
56.34
62.81
68.05
71.28
71.84
69.49
64.34
57.20
48.10
39.05
30.92
23.18
14.03
1.09
-17.21
-40.46
-65.60
-87.66
-101.33
-103.54
-94.14
-75.83
-53.16
-31.68
-14.66
-4.41
-1.69
-5.33
-12.87
-20.84
-25.79
-25.55
-19.59
-10.28
-1.09
5.41
8.77
10.20
11.59
14.33
18.48
23.06
26.73
28.90
29.62
29.70
29.89
30.36
30.49
29.13
25.23
18.53
9.78
0.57
-7.25
-12.41
-14.46
-13.74
-11.02
-7.04
-2.22
3.09
8.59
13.95
18.73
22.47
24.86
25.90
25.82
24.96
23.68
22.11
20.61
18.95
17.10
15.31
13.94
13.17
12.78
12.08
10.10
5.78
-0.95
-9.46
-18.45
-26.39
-32.02
-34.79
-34.85
-33.02
-30.40
-27.92
-26.31
-25.89
-26.72
-28.60
-31.33
-34.00
-35.65
-35.33
-32.39
-26.87
-19.51
-11.54
-4.16
1.75
5.87
7.97
7.76
4.87
-0.77
-8.42
-16.37
-22.23
-23.94
-19.98
-11.17
-0.04
10.43
18.08
22.16
23.16
22.75
21.47
19.62
17.11
13.91
10.24
6.71
3.86
2.00
1.09
0.80
1.01
1.49
2.19
3.20
5.05
8.24
13.33
20.92
30.10
40.08
49.69
57.54
62.36
63.64
61.35
56.08
48.88
41.13
34.35
29.66
27.53
25.64
22.49
17.08
8.92
-1.96
-14.70
-27.63
-38.77
-46.50
-50.11
-49.69
-46.49
-42.33
-39.13
-38.08
-39.59
-43.11
-47.33
-50.65
-51.51
-49.21
-44.17
-38.38
-32.76
-28.23
-25.15
-23.25
-21.80
-19.96
-17.30
-13.45
-9.08
-4.56
0.17
5.63
12.33
20.42
28.95
36.22
40.38
40.09
35.34
27.14
17.24
7.52
-0.62
-6.59
-10.47
-12.88
-14.57
-15.96
-17.24
-18.29
-18.89
-18.85
-18.16
-16.90
-15.17
-13.12
-10.92
-8.62
-6.16
-3.22
0.60
5.59
11.84
19.11
26.90
34.76
42.34
49.54
56.27
62.25
66.84
69.12
68.12
63.24
54.47
42.60
29.06
15.50
3.37
-6.46
-13.67
-18.29
-20.41
-20.14
-17.67
-13.48
-8.51
-4.19
-1.91
-2.38
-5.14
-8.72
-11.40
-11.87
-9.70
-5.30
0.17
5.73
11.07
16.57
22.83
29.59
35.91
40.56
42.65
41.54
37.29
30.67
22.82
14.67
6.06
-3.30
-13.26
-22.70
-30.87
-37.33
-42.08
-45.40
-47.85
-50.76
-54.98
-60.32
-65.24
-68.86
-70.78
-71.07
-69.71
-62.45
-47.95
-28.60
-11.37
3.28
16.14
27.99
37.80
44.30
46.28
42.15
31.40
15.31
-2.85
-18.82
-29.48
-35.20
-38.12
-40.06
-41.79
-42.46
-40.21
-33.63
-25.03
-16.40
-9.99
-6.25
-3.99
-1.65
1.91
7.57
15.54
24.84
34.08
41.72
47.91
53.63
59.56
65.47
71.00
75.43
77.45
75.77
66.78
50.32
29.66
11.03
-4.53
-17.84
-29.90
-41.04
-50.91
-58.82
-63.01
-62.17
-56.37
-47.48
-37.64
-28.93
-22.75
-18.49
-15.53
-12.41
-7.61
-0.05
10.32
23.92
40.52
59.22
78.71
96.01
108.68
115.07
114.70
108.18
97.08
83.18
67.95
52.32
36.76
22.21
10.04
1.63
-2.13
-1.56
1.86
5.70
7.17
3.73
-5.88
-21.38
-41.09
-62.28
-82.37
-98.85
-109.80
-114.42
-113.50
-109.09
-103.73
-99.42
-96.67
-95.26
-93.86
-90.92
-85.54
-78.03
-69.46
-60.86
-52.68
-40.90
-24.78
-6.96
7.93
16.49
18.38
15.99
12.83
11.12
12.62
16.77
22.09
26.67
29.08
28.66
25.57
21.21
17.56
16.61
18.37
21.63
24.66
26.85
29.06
32.75
38.73
46.28
53.57
58.12
59.75
58.93
57.19
56.08
56.08
56.31
55.24
51.71
43.84
32.79
20.61
9.48
0.81
-5.08
-8.72
-11.42
-13.64
-15.48
-16.39
-16.18
-14.63
-11.58
-7.35
-2.78
1.13
3.73
4.79
5.25
5.78
7.01
9.29
12.06
13.84
13.09
8.99
1.61
-8.14
-19.53
-32.09
-45.32
-56.47
-62.53
-61.46
-53.33
-40.23
-25.20
-11.23
-1.69
4.12
7.78
10.88
14.66
19.71
25.81
32.49
37.99
40.18
37.49
29.08
15.34
-1.93
-19.99
-35.86
-47.27
-53.31
-54.29
-51.25
-45.80
-39.58
-33.92
-29.83
-28.15
-29.64
-34.92
-43.95
-55.54
-67.58
-77.42
-82.77
-82.79
-78.27
-71.26
-64.00
-57.57
-51.20
-42.67
-29.52
-10.59
12.95
37.91
60.21
76.47
85.24
87.25
84.57
79.65
74.24
68.89
63.53
57.72
50.38
39.37
21.71
-5.08
-40.38
-79.14
-112.77
-131.25
-127.48
-101.37
-60.45
-16.78
18.20
38.81
45.75
43.01
35.85
28.05
20.30
11.76
2.27
-6.44
-10.39
-6.54
3.62
16.57
28.27
35.00
35.21
30.22
23.77
21.74
28.42
42.65
60.98
79.06
92.06
96.79
93.24
76.34
47.00
23.16
11.84
8.74
9.43
9.30
5.16
-3.94
-16.79
-29.46
-37.87
-41.04
-38.08
-28.38
-13.49
3.05
16.85
24.14
24.14
18.26
7.64
-5.32
-17.73
-28.10
-36.09
-41.89
-45.58
-46.34
-43.67
-38.93
-33.80
-29.73
-27.94
-28.74
-31.10
-33.01
-32.16
-27.45
-20.05
-12.24
-6.11
-2.73
-1.60
-1.11
0.39
3.60
7.93
11.77
13.79
13.77
12.48
11.17
10.71
11.28
12.44
13.66
14.71
15.73
17.12
19.26
22.26
25.81
29.38
32.29
34.11
34.66
34.03
32.59
30.91
29.46
28.33
27.12
25.08
21.91
17.63
12.72
8.06
4.75
3.56
4.47
6.75
9.22
11.61
13.80
15.67
17.16
18.48
19.94
21.70
23.70
25.63
28.46
32.72
38.16
44.12
50.28
56.75
63.66
71.05
78.65
87.68
98.46
109.86
119.50
124.84
123.78
114.92
98.15
64.82
15.34
-41.37
-93.42
-133.55
-160.65
-176.83
-185.62
-188.68
-187.05
-180.69
-171.07
-160.47
-151.61
-145.26
-139.71
-132.19
-120.54
-104.69
-85.25
-64.33
-44.62
-28.21
-15.60
-6.07
1.25
6.92
10.83
13.56
15.65
17.54
19.47
21.74
24.66
28.45
33.30
39.39
47.40
57.78
70.56
84.99
99.80
113.60
125.08
133.25
137.44
137.54
133.77
126.91
117.66
106.57
94.23
81.37
68.86
57.44
47.51
38.87
31.18
23.53
14.86
5.01
-4.90
-12.89
-17.19
-17.20
-13.82
-8.31
-2.42
2.23
4.67
4.44
1.09
-6.10
-17.60
-36.23
-59.69
-82.07
-98.20
-107.30
-112.19
-116.10
-120.63
-124.63
-126.04
-123.12
-116.48
-108.77
-102.95
-99.88
-98.60
-96.55
-90.93
-80.23
-64.56
-46.02
-27.65
-11.90
0.32
9.46
16.43
21.86
25.67
27.61
27.39
25.03
21.17
17.05
13.93
12.62
13.25
15.34
18.42
22.26
27.04
33.26
41.50
51.90
64.05
77.00
89.51
100.42
108.81
113.99
115.40
112.66
105.62
94.63
80.58
64.81
48.82
33.91
20.79
9.61
0.12
-7.88
-14.31
-18.70
-20.42
-19.13
-15.13
-9.51
-3.80
0.56
2.79
3.06
2.15
0.77
-1.15
-4.65
-11.28
-22.15
-37.17
-54.84
-72.87
-89.16
-102.49
-112.65
-119.87
-124.09
-124.75
-121.15
-113.24
-102.12
-89.83
-78.58
-69.54
-62.46
-55.76
-47.55
-36.65
-23.17
-8.43
5.79
17.83
26.80
32.54
35.45
36.07
34.83
32.21
28.98
26.33
25.64
27.99
33.55
41.34
49.40
55.51
58.14
57.12
53.77
50.10
48.00
48.46
51.67
56.89
62.89
68.47
72.75
75.60
77.14
77.53
76.81
75.36
73.22
70.07
65.38
58.81
50.72
41.51
31.29
19.88
8.03
-3.43
-13.65
-21.81
-27.19
-28.66
-25.91
-19.54
-10.77
0.25
13.24
27.39
41.16
52.48
60.02
62.49
58.81
42.58
13.00
-24.16
-59.58
-85.02
-101.77
-112.49
-119.28
-122.59
-122.36
-117.52
-108.13
-95.47
-81.74
-69.08
-57.84
-47.43
-37.09
-26.55
-15.36
-4.29
5.51
12.64
16.03
16.15
14.40
12.43
11.64
13.27
17.01
22.08
27.05
30.24
31.02
29.77
27.55
25.72
25.85
28.36
34.01
43.34
56.29
69.16
77.88
79.53
73.95
67.90
62.25
56.82
51.61
44.56
35.65
25.86
16.20
7.33
-0.86
-9.57
-19.10
-29.27
-39.88
-50.28
-59.55
-66.72
-70.93
-71.91
-70.38
-66.53
-60.66
-53.63
-46.39
-39.81
-34.47
-30.15
-26.46
-22.92
-18.57
-12.99
-7.09
-2.57
-1.25
-4.38
-11.91
-23.27
-37.28
-51.00
-60.73
-64.14
-61.66
-55.88
-51.59
-49.37
-48.56
-47.91
-46.21
-42.18
-36.11
-28.98
-22.00
-16.04
-11.17
-7.27
-3.21
2.43
10.54
20.82
32.26
43.63
53.82
62.22
68.19
71.87
73.72
74.15
73.32
71.72
70.38
70.65
73.99
77.24
77.78
74.35
67.68
59.14
49.88
40.41
31.08
22.36
14.60
8.62
4.93
4.23
5.28
6.84
7.97
8.13
7.17
5.19
2.98
1.38
1.01
1.81
3.50
5.33
6.72
7.19
6.52
5.20
3.96
3.46
3.84
4.80
5.68
5.71
4.26
1.10
-3.39
-8.56
-13.71
-18.45
-22.51
-25.77
-28.14
-29.62
-30.30
-30.35
-30.06
-29.86
-30.13
-31.04
-32.39
-33.60
-33.89
-32.51
-29.11
-24.04
-18.33
-13.48
-10.93
-11.62
-15.70
-22.59
-31.12
-39.86
-47.38
-52.46
-54.27
-52.58
-47.84
-41.22
-34.30
-28.63
-25.24
-24.32
-25.25
-27.00
-28.48
-29.01
-28.37
-26.75
-24.55
-22.13
-19.75
-17.53
-15.58
-13.99
-12.89
-12.36
-12.37
-12.77
-13.33
-13.74
-13.69
-12.90
-11.10
-8.12
-3.97
1.18
7.04
13.26
19.53
25.54
30.92
35.22
37.92
38.64
37.33
34.39
30.53
26.55
23.00
19.97
17.17
14.15
10.59
6.52
2.28
-1.67
-4.95
-7.42
-9.17
-10.39
-11.21
-11.65
-11.63
-11.10
-10.19
-9.22
-8.64
-8.84
-10.02
-12.08
-14.77
-17.76
-20.83
-23.94
-27.23
-30.86
-34.78
-38.72
-42.23
-44.74
-45.72
-44.83
-42.07
-37.77
-32.39
-26.25
-19.42
-11.86
-3.62
4.89
12.91
19.51
23.92
25.95
26.18
25.61
25.09
25.05
25.40
25.96
26.58
27.31
28.39
30.54
34.09
38.64
43.32
47.09
49.61
50.88
50.99
50.02
48.88
48.06
47.38
46.34
44.45
42.48
41.37
41.63
43.30
47.44
54.23
62.65
70.95
77.22
81.63
84.89
87.61
90.14
94.42
101.30
109.89
118.09
123.34
125.64
125.56
123.47
107.59
73.50
26.74
-20.98
-55.43
-78.81
-94.63
-105.60
-114.16
-121.08
-124.64
-123.50
-117.87
-109.33
-100.42
-91.62
-83.13
-75.26
-68.19
-60.65
-51.87
-42.33
-33.46
-27.23
-23.66
-22.24
-22.31
-23.11
-23.12
-21.43
-18.24
-14.65
-12.18
-11.08
-11.05
-11.58
-12.05
-11.58
-9.81
-7.14
-4.45
-2.72
-2.08
-2.24
-2.70
-3.01
-2.82
-2.19
-1.45
-1.02
-1.14
-1.55
-1.81
-1.53
-0.52
1.08
2.91
4.55
5.72
6.32
6.43
6.25
5.93
5.56
5.12
4.55
3.88
3.24
2.82
2.78
3.14
3.72
4.22
4.37
4.11
3.62
3.26
3.35
3.96
4.88
5.66
5.90
5.42
4.36
3.09
2.04
1.49
1.47
1.81
2.33
2.90
3.52
4.25
5.16
6.18
7.16
7.86
8.10
7.87
7.27
6.57
6.01
5.72
5.65
5.65
5.58
5.41
5.27
5.36
5.81
6.57
7.35
7.79
7.61
6.82
5.65
4.47
3.56
3.05
2.82
2.70
2.56
2.40
2.40
2.72
3.43
4.45
5.57
6.61
7.53
8.50
9.76
11.53
13.89
16.74
19.79
22.75
25.45
27.91
30.32
32.91
35.85
39.15
42.55
45.53
47.46
47.89
46.69
44.21
40.99
37.66
34.64
32.09
29.91
27.95
26.23
24.93
24.16
23.47
22.20
19.72
15.74
10.39
4.19
-2.11
-7.84
-12.62
-17.14
-22.17
-28.11
-34.98
-42.59
-50.77
-59.44
-68.49
-77.80
-88.21
-100.04
-112.76
-125.15
-136.04
-144.69
-150.85
-154.59
-156.16
-157.04
-158.03
-158.66
-157.57
-153.48
-145.85
-134.96
-121.59
-98.92
-65.29
-24.70
15.38
48.90
73.67
90.18
100.00
104.83
106.33
104.72
100.51
94.75
88.59
82.55
76.44
69.90
63.09
56.79
51.35
46.70
43.14
40.94
39.92
39.58
39.39
39.10
38.67
37.42
34.74
30.45
24.84
18.58
12.54
7.65
4.63
3.78
4.57
6.06
7.47
8.23
8.12
7.29
6.12
5.10
4.58
4.51
4.63
4.69
4.58
4.38
4.32
4.61
5.30
6.22
7.00
7.27
6.86
5.82
4.44
3.08
1.98
1.19
0.64
0.18
-0.23
-0.54
-0.69
-0.63
-0.43
-0.27
-0.38
-0.92
-1.95
-3.35
-4.89
-6.36
-7.61
-8.65
-9.59
-10.58
-11.61
-12.56
-13.18
-13.28
-12.77
-11.79
-10.60
-9.45
-8.43
-7.41
-6.21
-4.68
-2.92
-1.22
-0.00
0.47
0.20
-0.45
-0.97
-0.91
-0.04
1.44
3.09
4.42
5.10
5.13
4.74
4.26
3.87
3.56
3.12
2.38
1.27
-0.08
-1.43
-2.58
-3.41
-4.01
-4.54
-5.15
-5.88
-6.64
-7.20
-7.34
-6.95
-6.15
-5.22
-4.52
-4.28
-4.51
-4.94
-5.24
-5.14
-4.63
-3.94
-3.37
-3.11
-3.16
-3.29
-3.27
-2.95
-2.39
-1.86
-1.64
-1.88
-2.55
-3.37
-4.01
-4.18
-3.82
-3.08
-2.25
-1.55
-1.05
-0.59
0.05
1.05
2.33
3.61
4.55
4.92
4.76
4.32
3.94
3.85
4.02
4.24
4.26
3.95
3.40
2.84
2.50
2.48
2.58
2.51
1.98
0.89
-0.54
-1.93
-2.90
-3.19
-2.87
-2.22
-1.58
-1.17
-0.98
-0.87
-0.67
-0.33
0.00
0.08
-0.28
-1.03
-1.92
-2.56
-2.60
-1.92
-0.73
0.58
1.53
1.86
1.62
1.13
0.84
1.04
1.73
2.56
3.08
2.93
2.11
0.93
-0.15
-0.72
-0.70
-0.29
0.14
0.25
-0.05
-0.60
-1.08
-1.25
-1.03
-0.61
-0.28
-0.28
-0.65
-1.19
-1.55
-1.41
-0.64
0.61
2.04
3.32
4.29
4.97
5.45
5.83
6.05
5.94
5.34
4.29
3.03
1.91
1.22
1.07
1.26
1.46
1.40
0.95
0.22
-0.61
-1.36
-1.98
-2.58
-3.28
-4.15
-5.13
-6.00
-6.55
-6.61
-6.17
-5.39
-4.53
-3.88
-3.56
-3.55
-3.64
-3.60
-3.28
-2.78
-2.37
-2.35
-2.86
-3.72
-4.51
-4.77
-4.21
-2.92
-1.29
0.18
1.18
1.66
1.88
2.13
2.57
3.12
3.50
3.41
2.75
1.66
0.46
-0.52
-1.08
-1.24
-1.15
-0.96
-0.68
-0.20
0.64
1.89
3.42
4.90
5.94
6.28
5.89
5.01
3.99
3.19
2.83
2.88
3.16
3.43
3.54
3.52
3.58
3.94
4.65
5.51
6.09
5.97
5.02
3.48
1.89
0.78
0.39
0.56
0.81
0.69
-0.02
-1.15
-2.33
-3.14
-3.37
-3.11
-2.61
-2.18
-1.97
-1.94
-1.90
-1.61
-0.89
0.20
1.42
2.48
3.16
3.40
3.37
3.30
3.38
3.59
3.76
3.63
3.04
2.03
0.83
-0.25
-0.96
-1.25
-1.29
-1.34
-1.62
-2.19
-2.95
-3.73
-4.45
-5.17
-6.05
-7.23
-8.63
-9.93
-10.73
-10.73
-9.86
-8.41
-6.82
-5.51
-4.66
-4.16
-3.72
-3.06
-2.04
-0.79
0.38
1.19
1.48
1.32
0.95
0.64
0.58
0.77
1.12
1.46
1.73
1.97
2.30
2.83
3.52
4.20
4.57
4.42
3.75
2.78
1.90
1.45
1.56
2.04
2.54
2.68
2.31
1.55
0.71
0.12
-0.06
0.09
0.35
0.48
0.42
0.32
0.43
0.98
2.03
3.42
4.82
5.89
6.40
6.34
5.88
5.28
4.73
4.31
3.95
3.53
3.00
2.42
1.98
1.88
2.22
2.89
3.64
4.18
4.37
4.25
4.04
3.97
4.09
4.24
4.13
3.50
2.33
0.84
-0.62
-1.69
-2.18
-2.14
-1.70
-1.05
-0.29
0.58
1.60
2.80
4.12
5.34
6.14
6.19
5.35
3.66
1.51
-0.60
-2.16
-2.88
-2.82
-2.24
-1.48
-0.76
-0.05
0.76
1.77
2.84
3.56
3.47
2.28
0.10
-2.49
-4.73
-5.96
-5.96
-5.01
-3.71
-2.59
-1.93
-1.63
-1.40
-1.01
-0.47
-0.02
0.06
-0.28
-0.86
-1.29
-1.23
-0.58
0.42
1.33
1.71
1.42
0.62
-0.27
-0.80
-0.74
-0.16
0.58
1.07
1.08
0.62
-0.02
-0.53
-0.70
-0.58
-0.38
-0.33
-0.53
-0.85
-1.05
-0.91
-0.34
0.51
1.38
2.01
2.28
2.30
2.29
2.43
2.80
3.22
3.42
3.16
2.40
1.36
0.44
0.01
0.26
1.05
1.99
2.71
2.96
2.80
2.48
2.22
2.09
1.86
1.20
-0.12
-2.03
-4.09
-5.70
-6.37
-6.03
-5.05
-4.09
-3.75
-4.29
-5.55
-7.00
-8.06
-8.32
-7.74
-6.58
-5.26
-4.17
-3.48
-3.23
-3.27
-3.43
-3.62
-3.87
-4.27
-4.87
-5.58
-6.18
-6.36
-5.86
-4.63
-2.86
-0.85
1.05
2.72
4.20
5.62
7.08
8.47
9.54
10.03
9.84
9.11
8.17
7.42
7.14
7.36
7.94
8.65
9.42
10.31
11.46
12.94
14.59
15.98
16.66
16.35
