1699449460.00
64.000000
-0.00
-0.00
-0.00
-0.00
-0.00
-0.00
-0.00
-0.00
-0.00
-0.00
0.00
0.01
0.01
-0.00
-0.03
-0.05
-0.05
0.00
0.13
0.36
0.66
1.01
1.37
1.72
2.06
2.40
2.79
3.24
3.80
4.42
5.06
5.66
6.20
6.68
7.15
7.68
8.31
9.14
10.09
11.04
11.88
12.56
13.14
13.76
14.65
15.96
17.91
20.32
22.90
25.38
27.58
29.57
31.68
34.32
37.81
42.54
48.15
54.10
59.83
64.98
69.59
74.15
79.34
85.70
93.75
102.99
112.63
121.78
129.85
136.83
143.31
150.60
157.41
166.05
177.15
190.88
206.03
219.68
227.43
224.57
207.69
175.91
131.65
78.84
21.86
-36.05
-93.41
-150.05
-206.21
-261.64
-315.47
-366.09
-412.40
-453.58
-489.03
-518.02
-539.42
-551.74
-553.34
-543.04
-520.28
-485.81
-441.42
-389.71
-333.63
-276.01
-219.17
-164.64
-113.27
-65.30
-20.88
19.74
55.99
87.02
112.00
130.48
142.71
149.73
153.13
154.47
154.85
154.60
153.37
150.47
145.36
137.74
127.49
114.65
99.83
84.86
73.03
68.58
75.02
93.27
120.50
150.61
176.36
192.01
195.19
187.04
170.75
149.58
125.71
100.23
74.07
49.11
27.77
12.36
3.83
1.02
1.01
0.30
-3.35
-9.78
-16.55
-20.13
-17.66
-8.48
5.55
20.89
33.90
42.11
44.86
42.90
37.57
30.16
21.55
12.34
3.21
-5.07
-11.67
-15.99
-17.87
-17.64
-15.85
-13.08
-9.81
-6.26
-2.61
0.97
4.15
6.52
7.62
7.20
5.27
2.14
-1.79
-6.25
-11.18
-16.69
-22.80
-29.10
-34.54
-37.60
-36.75
-31.11
-20.97
-7.89
5.65
16.86
23.61
24.86
20.95
13.42
4.53
-3.35
-8.26
-9.07
-5.67
1.10
9.74
18.51
25.91
30.91
33.02
32.20
28.67
22.76
14.88
5.50
-4.79
-15.25
-25.01
-33.19
-38.95
-41.72
-41.33
-38.19
-33.13
-27.10
-20.77
-14.28
-7.20
1.06
10.82
21.66
32.53
41.74
47.78
49.75
47.70
42.47
35.34
27.44
19.45
11.58
3.79
-3.76
-10.58
-15.97
-19.33
-20.53
-20.03
-18.60
-16.86
-15.01
-12.79
-9.83
-6.06
-1.94
1.70
4.09
4.93
4.53
3.68
3.19
3.50
4.43
5.27
5.00
2.73
-2.09
-9.41
-18.50
-27.97
-36.04
-40.81
-40.88
-35.79
-26.26
-14.10
-1.61
9.09
16.68
20.91
22.32
21.91
20.64
19.10
17.58
16.09
14.64
13.32
12.33
11.83
11.89
12.38
13.02
13.51
13.65
13.17
12.08
10.50
8.61
6.49
4.08
1.19
-2.44
-6.93
-12.23
-17.96
-23.57
-28.60
-32.81
-36.38
-39.78
-43.45
-47.44
-51.06
-52.88
-51.07
-43.98
-30.82
-12.00
10.82
35.15
58.32
78.04
92.90
102.32
106.42
105.63
100.57
91.93
80.57
67.54
54.08
41.37
30.37
21.66
15.37
11.32
9.10
8.13
7.71
7.12
5.69
3.03
-0.89
-5.63
-10.31
-13.85
-15.18
-13.64
-9.19
-2.46
5.33
12.80
18.80
22.77
24.82
25.57
25.68
25.52
24.99
23.73
21.41
18.00
13.82
9.23
4.36
-1.15
-7.94
-16.45
-26.52
-37.13
-46.69
-53.62
-56.94
-56.63
-53.57
-49.17
-44.84
-41.61
-39.94
-39.83
-40.94
-42.65
-44.18
-44.61
-43.04
-38.96
-32.61
-25.18
-18.65
-15.17
-16.31
-22.46
-32.80
-45.72
-59.61
-73.33
-86.38
-98.56
-109.57
-118.82
-125.62
-129.60
-130.99
-130.63
-129.53
-128.48
-127.70
-126.88
-125.53
-123.31
-120.31
-117.02
-114.15
-112.20
-111.23
-110.66
-109.25
-105.36
-97.36
-83.99
-64.72
-39.83
-10.31
22.38
56.57
90.47
122.31
150.36
173.18
189.86
200.35
205.50
206.78
205.87
204.18
202.51
201.01
199.43
197.40
194.72
191.45
187.80
183.94
179.80
175.07
169.38
162.57
154.87
146.95
139.72
133.89
129.66
126.48
123.19
118.21
109.99
97.35
79.80
57.75
32.56
6.33
-18.62
-40.21
-57.18
-69.15
-76.56
-80.27
-81.18
-80.09
-77.59
-74.06
-69.68
-64.32
-57.57
-49.01
-38.49
-26.44
-13.84
-1.87
8.62
17.55
25.70
34.30
44.44
56.51
69.94
83.42
95.38
104.56
110.49
113.61
115.16
116.84
120.30
126.71
136.33
148.28
160.49
170.05
173.92
169.87
157.33
137.72
113.94
88.88
64.70
42.33
21.61
2.16
-16.44
-33.84
-49.09
-61.54
-71.78
-81.05
-90.39
-99.83
-108.01
-113.37
-114.58
-111.29
-104.46
-96.78
-90.47
-85.96
-81.62
-73.96
-60.39
-39.09
-9.47
27.21
65.23
98.52
122.71
135.95
139.93
134.88
122.07
103.98
82.85
54.67
16.45
-31.16
-83.61
-132.10
-174.77
-211.88
-244.09
-273.55
-311.10
-363.89
-431.31
-506.16
-575.59
-639.31
-699.88
-757.08
-807.39
-854.13
-895.70
-925.36
-935.45
-917.91
-883.85
-847.88
-819.90
-731.24
-547.87
-287.33
-8.03
194.62
334.66
439.90
531.04
630.45
737.37
828.97
882.50
886.68
845.77
780.41
702.53
622.30
548.44
484.12
420.92
351.24
273.80
194.13
124.33
64.68
11.68
-37.81
-86.32
-138.03
-192.17
-242.58
-280.43
-296.58
-293.16
-276.92
-254.73
-232.11
-213.63
-200.35
-190.53
-181.20
-169.13
-155.79
-143.72
-134.41
-127.97
-123.51
-118.84
-111.28
-98.87
-80.82
-59.19
-37.02
-16.91
-0.48
11.89
20.58
26.16
29.18
30.35
30.94
32.81
38.11
48.64
65.12
87.01
112.72
140.23
167.67
193.82
218.29
241.47
264.48
289.03
317.29
351.66
393.88
443.96
499.09
553.30
598.46
626.60
632.48
615.39
579.20
530.55
476.28
421.16
367.15
314.13
261.36
208.63
156.64
106.26
57.84
10.73
-36.38
-84.79
-135.07
-187.04
-240.26
-294.62
-350.43
-407.92
-466.19
-522.55
-572.62
-611.42
-634.93
-641.48
-632.17
-610.50
-581.24
-549.25
-518.65
-492.23
-471.28
-455.42
-442.76
-430.31
-414.82
-393.69
-365.79
-331.88
-294.34
-256.57
-221.73
-191.81
-166.93
-145.58
-125.44
-104.64
-82.64
-60.49
-40.20
-23.70
-11.82
-3.84
2.18
8.70
17.69
29.94
44.82
60.63
75.33
87.52
97.08
105.43
114.85
127.52
144.48
165.06
187.07
207.52
223.63
233.43
235.99
231.28
220.03
203.67
184.43
165.26
149.34
139.15
135.63
137.93
143.76
150.43
155.94
159.57
161.72
163.36
165.29
167.65
169.78
170.34
167.63
160.18
147.30
129.72
109.83
91.24
77.79
72.33
75.90
87.59
105.20
126.17
148.38
170.38
191.26
210.28
226.62
239.37
247.79
251.61
251.35
248.37
244.74
242.48
242.83
245.52
248.59
248.97
243.72
231.36
212.81
191.37
171.86
159.13
156.58
165.19
183.26
207.02
231.65
252.49
265.99
270.27
265.33
252.88
235.77
217.13
199.40
183.69
169.70
156.06
141.03
123.12
101.38
75.31
44.81
10.25
-27.26
-65.72
-102.34
-134.17
-159.13
-176.68
-188.20
-196.51
-204.94
-216.51
-233.18
-255.36
-281.75
-309.66
-335.71
-356.78
-370.68
-376.07
-372.02
-357.42
-330.87
-291.35
-239.09
-176.30
-106.94
-35.67
33.94
100.32
163.33
222.66
276.09
318.96
345.39
350.66
333.14
295.89
245.48
189.46
133.46
79.74
27.65
-24.79
-79.27
-137.14
-197.83
-259.00
-316.98
-367.50
-406.55
-431.66
-443.17
-444.72
-443.31
-444.94
-452.05
-463.06
-473.81
-479.48
-476.33
-462.44
-437.63
-404.29
-364.08
-317.67
-266.21
-212.43
-159.97
-112.05
-70.29
-25.20
24.34
73.00
113.88
143.19
160.89
169.04
170.32
167.57
163.35
158.35
155.56
157.57
165.57
177.83
190.01
196.45
192.89
178.13
153.86
120.43
87.04
63.46
53.42
55.68
63.67
72.03
78.49
83.02
88.03
94.29
102.76
113.27
125.46
139.69
157.63
181.12
210.11
241.89
271.45
291.87
296.28
280.87
246.27
197.17
139.88
79.87
20.93
-34.17
-83.08
-123.48
-153.17
-171.15
-178.52
-178.84
-176.92
-177.10
-181.55
-190.26
-201.75
-214.03
-225.25
-233.93
-238.98
-239.47
-234.63
-223.97
-207.44
-185.61
-159.50
-130.30
-99.56
-69.00
-40.13
-13.82
9.97
32.01
53.19
73.73
93.06
109.31
119.89
122.58
116.51
102.48
82.55
59.38
35.44
13.24
-5.31
-18.85
-26.17
-26.30
-18.71
-4.22
13.88
30.57
42.35
47.75
46.74
39.95
28.48
13.99
-1.28
-13.48
-21.66
-25.06
-24.02
-20.00
-14.78
-9.71
-5.25
-1.08
3.59
7.22
9.56
10.34
9.25
6.32
2.04
-2.70
-7.01
-10.36
-12.82
-14.28
-15.05
-15.66
-16.46
-17.55
-18.75
-19.84
-20.68
-21.42
-21.95
-22.40
-23.07
-24.35
-26.49
-29.59
-33.48
-37.70
-41.48
-43.53
-42.60
-37.79
-28.94
-16.78
-2.83
11.03
23.08
32.20
38.26
41.75
43.45
44.06
43.92
43.06
41.36
38.71
35.11
30.75
25.84
20.66
15.41
10.32
5.53
1.23
-2.39
-5.14
-6.85
-7.58
-7.67
-7.77
-8.64
-10.90
-14.70
-19.62
-24.68
-28.71
-30.61
-29.67
-25.59
-18.48
-8.69
3.07
15.68
27.56
36.84
41.85
41.70
36.76
28.54
19.22
10.84
4.61
0.74
-1.27
-2.11
-2.22
-1.72
-0.56
1.12
3.01
4.72
6.11
7.47
9.40
12.42
16.59
21.34
25.65
28.51
29.30
28.04
25.43
22.61
20.92
21.64
25.70
33.37
44.15
56.88
70.05
82.27
92.51
99.94
103.76
103.00
96.80
84.97
68.48
49.56
31.15
15.96
5.58
0.12
-1.52
-1.04
-0.16
-0.28
-2.48
-7.57
-16.05
-27.96
-42.68
-58.89
-74.70
-88.09
-97.43
-101.83
-101.27
-96.35
-87.89
-76.63
-63.18
-48.21
-32.74
-18.14
-5.85
3.12
8.54
10.96
11.36
10.58
8.96
6.35
2.46
-2.74
-8.76
-14.69
-19.53
-22.56
-23.60
-22.97
-21.32
-19.29
-17.37
-15.79
-14.56
-13.65
-12.99
-12.54
-12.17
-11.70
-10.92
-9.63
-7.73
-5.21
-2.07
1.65
5.88
10.39
14.79
18.57
21.33
22.96
23.72
24.15
24.82
26.05
27.77
29.64
31.22
32.18
32.36
31.81
30.63
28.92
26.70
23.94
20.56
16.61
12.24
7.82
3.90
1.15
0.16
1.30
4.49
9.22
14.54
19.36
22.73
24.09
23.41
21.18
18.18
15.23
12.91
11.34
10.28
9.32
8.07
6.36
4.21
1.66
-1.32
-4.85
-9.00
-13.62
-18.20
-21.99
-24.31
-24.78
-23.54
-21.16
-18.41
-15.92
-13.97
-12.36
-10.59
-8.05
-4.24
1.03
7.54
14.68
21.60
27.42
31.49
33.53
33.72
32.63
31.05
29.71
29.12
29.44
30.56
32.19
33.95
35.32
35.73
34.70
32.13
28.66
25.60
24.58
26.75
32.15
39.45
46.37
50.60
50.66
46.36
38.61
28.84
18.37
8.18
-1.01
-8.54
-13.68
-15.87
-15.04
-11.76
-7.06
-2.02
2.69
7.00
11.19
15.48
19.59
22.66
23.62
21.67
16.74
9.55
1.33
-6.72
-13.79
-19.60
-24.13
-27.37
-29.05
-28.81
-26.45
-22.22
-16.87
-11.49
-7.11
-4.31
-3.16
-3.31
-4.32
-5.89
-8.01
-10.76
-14.11
-17.74
-21.06
-23.37
-24.12
-23.16
-20.85
-17.95
-15.41
-14.09
-14.45
-16.42
-19.43
-22.64
-25.17
-26.42
-26.21
-24.81
-22.71
-20.46
-18.47
-16.90
-15.72
-14.79
-13.94
-13.07
-12.11
-11.08
-10.03
-9.08
-8.42
-8.35
-9.17
-11.02
-13.77
-16.92
-19.67
-21.18
-20.87
-18.63
-14.82
-10.14
-5.35
-1.05
2.45
5.07
6.85
7.91
8.34
8.24
7.65
6.55
4.88
2.56
-0.38
-3.72
-7.05
-9.82
-11.51
-11.81
-10.67
-8.37
-5.35
-2.17
0.65
2.71
3.80
3.92
3.22
1.96
0.40
-1.21
-2.58
-3.36
-3.15
-1.68
1.08
4.78
8.82
12.53
15.46
17.45
18.66
19.37
19.82
20.19
20.61
21.26
22.37
24.07
26.24
28.37
29.66
29.23
26.46
21.32
14.42
6.93
0.22
-4.59
-6.96
-6.99
-5.24
-2.42
0.97
4.75
9.02
13.85
19.09
24.31
28.89
32.26
34.00
33.85
31.57
26.92
19.65
9.81
-2.13
-15.13
-27.86
-38.98
-47.51
-53.09
-55.86
-56.39
-55.45
-53.85
-52.31
-51.31
-50.97
-50.94
-50.51
-48.93
-45.71
-40.82
-34.68
-27.89
-20.98
-14.30
-8.08
-2.60
1.84
4.93
6.63
7.28
7.61
8.49
10.53
13.80
17.76
21.57
24.40
25.74
25.56
24.28
22.58
21.11
20.21
19.86
19.87
19.93
19.84
19.60
19.54
20.21
22.17
25.79
31.09
38.18
46.60
55.25
62.43
66.37
65.86
60.72
51.88
41.16
31.52
25.22
22.92
23.56
25.29
26.54
26.58
25.53
23.94
23.92
26.89
32.94
40.83
48.97
56.34
62.65
68.00
72.54
78.37
86.96
98.46
111.60
124.69
136.60
146.86
155.39
151.02
127.95
88.04
40.36
-5.33
-43.52
-72.76
-93.38
-105.90
-112.73
-113.48
-107.89
-97.01
-83.41
-70.18
-59.65
-52.53
-49.19
-50.47
-55.02
-60.86
-66.14
-69.90
-71.94
-72.34
-71.32
-69.54
-69.46
-72.00
-76.75
-82.27
-87.13
-90.51
-92.27
-93.08
-94.45
-100.22
-112.68
-131.53
-154.06
-176.68
-196.30
-210.85
-219.19
-208.99
-174.86
-121.37
-60.34
-2.85
45.04
81.24
105.74
119.68
124.94
121.89
111.50
96.09
78.99
63.36
51.54
44.87
43.71
47.40
53.06
57.95
61.19
63.84
67.43
73.01
80.15
87.30
92.56
93.83
90.33
83.35
75.39
68.58
63.71
60.22
57.02
53.33
48.82
43.58
38.10
32.56
26.66
19.93
12.02
2.97
-7.19
-16.41
-24.18
-31.44
-40.10
-52.08
-68.15
-87.74
-109.52
-132.20
-155.04
-178.20
-202.26
-227.24
-251.43
-271.02
-281.56
-279.72
-264.24
-235.15
-193.01
-138.90
-75.11
-5.72
63.09
123.39
167.10
186.50
177.49
146.20
107.65
76.33
58.91
54.21
57.46
64.55
74.12
87.36
105.73
128.23
150.51
166.74
172.57
166.79
151.51
130.95
109.83
91.21
75.70
61.75
47.42
32.44
18.97
10.38
9.67
18.40
35.88
59.97
87.41
114.83
138.88
156.31
164.09
160.38
145.85
123.58
99.14
78.58
66.46
64.72
72.52
86.94
103.85
123.28
142.34
157.81
166.93
168.27
162.18
150.56
135.92
120.26
104.47
87.88
69.86
50.33
29.86
9.05
-11.93
-33.48
-56.21
-80.13
-104.68
-127.89
-147.03
-159.27
-162.39
-155.16
-137.71
-111.71
-80.20
-47.51
-17.75
5.98
22.30
31.58
35.50
36.06
34.89
32.66
28.98
22.86
13.09
-1.45
-21.43
-46.74
-76.44
-108.83
-141.80
-173.47
-202.59
-229.08
-254.13
-280.18
-310.21
-346.56
-389.52
-436.06
-479.86
-512.69
-527.14
-519.01
-488.63
-440.54
-381.31
-317.03
-250.77
-182.29
-109.37
-30.59
52.23
133.06
202.60
251.08
271.17
261.41
226.97
178.42
128.17
86.80
60.49
49.82
50.50
53.97
51.53
37.12
9.19
-28.54
-67.54
-96.47
-104.93
-87.57
-49.10
-1.17
41.74
67.03
67.85
44.95
5.65
-40.20
-84.36
-125.49
-163.75
-198.03
-225.32
-242.55
-248.61
-245.38
-237.72
-231.38
-233.92
-245.94
-260.23
-266.02
-255.21
-226.24
-183.71
-135.70
-65.83
24.17
117.96
196.70
252.52
288.03
309.15
320.83
326.51
328.79
325.60
317.66
306.24
292.75
277.05
258.20
236.60
214.99
197.70
185.61
176.66
170.15
164.73
157.99
147.99
134.01
116.22
94.69
67.26
33.92
-2.89
-37.20
-62.37
-73.09
-67.39
-46.77
-15.34
20.81
51.10
69.21
76.03
76.00
73.09
67.12
54.35
30.81
-4.91
-48.19
-91.93
-126.95
-147.28
-152.77
-150.80
-151.58
-160.81
-177.23
-193.81
-201.85
-196.41
-181.28
-162.71
-151.23
-153.70
-165.77
-175.23
-169.26
-141.18
-93.07
-35.59
20.55
67.52
103.87
136.66
173.80
217.81
264.96
308.90
342.66
365.22
378.63
366.12
321.45
252.49
176.12
106.76
61.25
32.63
15.68
9.13
15.10
34.54
68.56
113.16
159.56
197.66
218.20
218.86
201.58
170.86
134.07
97.36
62.83
29.85
-2.19
-33.33
-60.50
-81.46
-96.81
-108.33
-118.80
-131.23
-147.21
-166.22
-187.37
-209.07
-231.02
-253.53
-275.08
-291.79
-298.92
-292.48
-270.78
-235.39
-189.65
-137.98
-84.72
-33.43
13.10
52.11
81.02
98.15
103.05
97.05
82.66
62.92
40.78
18.86
-0.82
-17.00
-29.21
-37.72
-43.18
-46.06
-46.24
-42.99
-35.42
-23.09
-6.40
13.40
34.64
55.82
76.04
95.24
113.92
132.69
151.77
170.74
188.39
202.88
212.21
214.94
210.80
200.85
187.03
171.50
155.84
140.49
124.70
107.06
86.35
62.39
36.00
8.63
-17.78
-41.05
-59.05
-70.11
-73.39
-69.08
-58.31
-43.23
-26.94
-12.15
-0.47
7.63
12.20
13.11
9.72
1.38
-12.58
-32.66
-57.98
-86.17
-114.11
-139.21
-160.28
-177.74
-192.66
-201.56
-201.42
-191.50
-174.01
-152.41
-129.59
-107.36
-88.46
-71.06
-53.31
-34.73
-15.83
2.19
18.05
29.86
36.87
40.16
42.80
48.13
58.21
73.43
92.36
112.20
129.63
141.87
147.56
147.54
143.73
138.13
132.03
125.33
116.43
102.60
81.21
50.93
12.94
-29.30
-70.46
-104.30
-125.24
-130.03
-119.08
-96.53
-69.42
-45.36
-30.43
-27.42
-35.24
-49.73
-65.45
-77.69
-83.95
-84.58
-82.13
-80.06
-80.89
-84.97
-90.37
-93.74
-91.80
-82.81
-67.27
-47.58
-26.97
-8.41
6.12
15.74
20.37
20.35
16.24
8.93
-0.26
-9.63
-17.37
-21.98
-23.02
-21.20
-18.29
-16.37
-17.00
-20.49
-25.71
-30.62
-33.11
-31.83
-26.69
-18.82
-10.02
-2.10
3.77
7.33
9.14
10.16
11.29
13.03
15.36
17.93
20.38
22.51
24.41
26.28
28.22
30.12
31.67
32.61
32.92
32.89
33.03
33.70
34.81
35.71
35.51
33.59
30.03
25.93
23.03
23.06
27.01
34.78
45.20
56.70
67.87
77.99
87.09
95.64
104.23
113.27
122.98
133.30
143.85
153.74
161.59
165.91
165.78
161.49
154.74
148.12
144.03
143.60
146.06
149.03
149.42
144.57
132.91
114.19
89.00
58.32
23.28
-14.79
-54.14
-92.51
-127.58
-157.54
-181.77
-201.07
-217.20
-231.90
-245.97
-258.72
-268.37
-273.07
-271.96
-265.81
-256.69
-247.09
-238.84
-232.39
-226.76
-219.97
-209.92
-195.16
-175.60
-152.81
-129.91
-110.80
-98.92
-95.91
-100.66
-109.32
-116.35
-116.28
-105.35
-82.49
-49.36
-9.65
32.09
71.36
104.47
128.99
143.91
149.55
147.43
139.79
129.07
117.41
106.34
96.67
88.61
81.96
76.30
71.20
66.28
61.30
56.22
51.12
46.20
41.71
37.88
34.90
32.90
31.92
31.95
32.94
34.83
37.52
40.85
44.58
48.41
51.93
54.67
56.12
55.78
53.19
48.05
40.31
30.34
19.06
7.91
-1.35
-7.09
-8.31
-5.02
1.74
10.27
18.67
25.23
28.74
28.50
24.47
17.37
8.74
0.79
-4.29
-5.17
-1.98
3.66
9.36
13.02
13.71
11.96
9.24
7.22
6.93
8.54
11.46
14.70
17.12
17.71
15.67
10.68
3.15
-5.77
-14.41
-21.22
-25.45
-27.48
-28.74
-30.98
-35.41
-42.12
-49.91
-56.90
-61.22
-61.79
-58.52
-52.19
-43.93
-34.74
-25.25
-15.82
-6.78
1.27
7.48
11.02
11.51
9.29
5.46
1.54
-1.05
-1.52
0.16
3.34
7.12
10.75
13.95
16.91
20.02
23.66
27.96
32.90
38.47
44.91
52.75
62.63
74.86
89.17
104.58
119.69
133.00
143.13
148.79
148.65
141.34
125.92
102.64
73.56
42.61
14.89
-4.73
-12.93
-8.78
6.17
28.39
53.16
75.27
89.79
92.83
82.31
58.53
24.17
-16.22
-57.33
-94.21
-123.24
-142.58
-152.30
-154.12
-150.93
-146.17
-142.98
-143.44
-148.05
-155.79
-164.46
-171.54
-174.86
-172.95
-165.16
-151.58
-132.89
-110.27
-85.35
-60.15
-36.77
-17.03
-2.04
8.12
14.29
17.96
20.67
23.52
26.87
30.49
33.82
36.47
38.46
40.26
42.60
46.13
51.18
57.65
65.04
72.55
79.29
84.43
87.42
88.11
86.68
83.50
78.84
72.76
65.17
56.10
45.96
35.66
26.50
19.68
15.73
14.39
14.77
15.87
16.96
17.74
18.27
18.79
19.28
19.44
18.83
17.25
15.01
12.91
11.89
12.62
15.54
20.35
26.15
31.71
36.01
38.57
39.48
39.20
38.31
38.25
40.02
43.75
48.63
53.48
57.41
60.04
61.39
61.71
63.07
66.94
73.31
80.59
86.83
90.86
92.56
92.48
91.28
92.45
98.33
108.96
121.88
134.03
143.56
150.23
154.91
158.78
166.72
182.14
205.22
232.68
259.98
283.83
302.80
316.79
302.32
246.99
155.11
47.21
-53.99
-135.38
-194.32
-233.95
-259.07
-274.06
-278.33
-272.26
-257.70
-238.80
-220.17
-204.85
-193.88
-186.99
-183.49
-179.88
-172.95
-162.09
-149.43
-137.98
-129.74
-125.16
-123.56
-123.76
-122.78
-118.54
-110.94
-101.92
-94.15
-89.58
-88.89
-91.65
-96.68
-101.56
-104.14
-103.29
-99.05
-92.24
-83.85
-74.76
-65.66
-57.05
-48.84
-40.81
-32.89
-25.22
-18.10
-11.80
-6.42
-1.90
1.99
5.58
9.25
13.23
17.59
22.23
27.00
31.75
36.41
40.85
44.84
48.05
50.06
50.61
49.68
47.71
45.35
43.23
41.66
40.54
39.35
37.44
34.18
29.28
22.93
15.63
7.97
0.33
-7.11
-14.39
-21.49
-28.34
-34.62
-39.59
-42.54
-43.02
-41.14
-37.36
-32.31
-26.36
-19.80
-12.56
-4.16
5.59
16.39
27.27
37.13
45.19
51.38
55.78
57.80
56.92
52.81
45.88
36.78
26.52
14.53
0.32
-16.61
-35.89
-54.87
-70.35
-79.36
-80.32
-73.26
-60.02
-41.01
-20.19
-2.75
7.94
11.20
9.75
5.95
1.24
-3.18
-6.42
-8.31
-8.66
-7.23
-4.21
-0.24
3.50
6.03
6.86
6.15
4.30
2.31
1.37
2.26
4.97
8.57
11.90
14.03
14.63
13.88
12.63
11.96
12.59
14.73
17.87
21.19
23.87
25.39
25.60
24.87
23.71
22.58
21.94
21.78
21.91
21.92
21.19
19.53
17.19
14.81
13.18
13.47
16.50
22.92
32.72
44.96
58.15
70.43
79.72
83.25
79.24
67.98
52.28
35.65
19.20
3.40
-10.44
-20.63
-26.25
-24.80
-16.47
-3.17
12.23
25.94
35.90
42.33
47.01
51.90
58.41
66.72
76.31
86.06
92.32
92.87
88.33
81.51
75.02
69.68
63.92
55.06
40.67
16.05
-19.49
-61.28
-101.43
-133.66
-156.07
-171.20
-183.87
-199.25
-226.47
-270.90
-331.17
-399.92
-467.62
-525.28
-565.46
-582.73
-544.02
-438.55
-286.18
-126.20
8.97
106.22
167.09
199.16
210.87
209.59
196.44
173.49
146.16
121.73
105.26
97.55
96.47
98.88
102.60
102.47
95.56
82.87
68.34
55.74
46.87
41.86
40.14
40.94
40.98
37.94
31.87
24.95
19.75
18.08
20.43
26.58
35.63
44.84
51.56
54.36
53.41
49.82
44.94
39.90
35.37
31.42
27.17
21.80
15.21
8.05
1.32
-4.26
-8.47
-11.56
-14.02
-16.24
-18.37
-20.27
-21.75
-22.78
-23.57
-24.42
-25.43
-26.29
-26.35
-24.92
-21.61
-16.60
-10.63
-4.77
-0.00
3.04
4.27
4.07
3.03
1.75
0.64
-0.17
-0.71
-1.09
-1.40
-1.62
-1.70
-1.59
-1.31
-0.89
-0.37
0.33
1.31
2.66
4.38
6.32
8.27
10.05
11.64
13.14
14.69
16.38
18.22
20.14
22.09
24.00
25.81
27.35
28.42
28.79
28.38
27.28
25.69
23.85
21.87
19.78
17.52
15.09
12.58
10.11
7.81
5.73
3.86
2.15
0.53
-1.08
-2.83
-4.90
-7.43
-10.42
-13.63
-16.58
-18.68
-19.39
-18.41
-15.77
-11.86
-7.28
-2.70
1.29
4.26
6.06
6.73
6.47
5.56
4.29
2.92
1.65
0.59
-0.22
-0.75
-1.04
-1.09
-0.91
-0.51
0.08
0.78
1.45
1.93
2.03
1.67
0.86
-0.24
-1.31
-1.97
-1.85
-0.68
1.63
4.94
8.90
13.05
16.85
19.87
21.79
22.54
22.25
21.20
19.73
18.09
16.46
14.93
13.57
12.49
11.85
11.76
12.23
13.02
13.69
13.68
12.48
9.82
5.72
0.55
-5.09
-10.51
-15.05
-18.22
-19.74
-19.56
-17.84
-14.94
-11.35
-7.62
-4.26
-1.63
0.20
1.43
2.47
3.81
5.82
8.62
12.01
15.54
18.63
20.69
21.29
20.19
17.45
13.36
8.48
3.44
-1.13
-4.75
-7.20
-8.51
-8.98
-8.97
-8.90
-8.99
-9.28
-9.51
-9.25
-8.07
-5.84
-2.79
0.46
3.18
4.80
5.13
4.33
2.77
0.81
-1.31
-3.43
-5.35
-6.80
-7.47
-7.16
-5.89
-3.84
-1.32
1.47
4.44
7.60
10.93
14.27
17.37
19.93
21.72
22.68
22.88
22.46
21.60
20.52
19.52
18.94
19.15
20.28
22.19
24.39
26.35
27.70
28.45
28.99
29.83
31.31
33.38
35.64
37.61
38.95
39.65
39.98
40.28
40.76
41.38
41.93
42.12
41.73
40.68
39.04
36.93
34.48
31.77
28.89
25.97
23.28
21.18
20.03
20.06
21.24
23.31
25.90
28.69
31.52
34.39
37.37
40.47
43.63
46.59
49.03
50.61
51.07
50.35
48.54
45.84
42.48
38.68
34.64
30.54
26.62
23.16
20.49
18.82
18.00
17.50
16.59
14.63
11.32
6.88
1.93
-2.70
-6.33
-8.94
-10.93
-12.84
-15.03
-17.60
-20.48
-23.45
-26.23
-28.50
-30.73
-33.58
-37.59
-42.93
-49.35
-56.36
-63.35
-69.68
-74.90
-79.99
-86.21
-94.52
-104.95
-116.70
-128.52
-139.14
-147.47
-152.70
-155.83
-158.05
-160.17
-162.32
-164.58
-167.65
-172.85
-181.30
-184.17
-173.62
-145.62
-102.89
-53.08
-4.55
36.23
65.71
83.40
91.42
91.77
86.49
77.29
65.91
54.28
44.28
37.53
34.92
36.36
39.67
42.32
42.69
40.93
38.60
37.40
38.11
40.17
42.38
42.78
40.28
35.13
28.77
22.82
18.18
14.80
12.15
9.94
8.05
6.69
6.06
6.03
6.10
5.68
4.44
2.49
0.32
-1.69
-3.43
-5.09
-6.99
-9.43
-12.56
-15.98
-19.35
-22.32
-24.64
-26.16
-26.79
-26.52
-25.44
-23.71
-21.53
-19.10
-16.52
-13.77
-10.83
-7.77
-4.78
-2.15
-0.12
1.24
2.06
2.61
3.16
3.85
4.59
5.17
5.32
4.91
3.99
2.65
1.05
-0.71
-2.56
-4.36
-5.89
-6.83
-6.88
-5.90
-4.08
-1.93
-0.06
0.95
0.86
-0.17
-1.61
-2.78
-3.04
-2.03
0.25
3.53
7.32
11.11
14.47
17.07
18.79
19.62
19.67
19.02
17.75
15.91
13.62
11.11
8.79
7.08
6.29
6.44
7.29
8.41
9.40
9.95
9.98
9.47
8.50
7.12
5.41
3.51
1.57
-0.19
-1.59
-2.53
-2.93
-2.80
-2.23
-1.34
-0.33
0.60
1.29
1.68
1.83
1.78
1.60
1.29
0.80
0.07
-0.96
-2.31
-3.91
-5.62
-7.22
-8.47
-9.22
-9.47
-9.37
-9.20
-9.20
-9.45
-9.87
-10.32
-10.69
-11.05
-11.59
-12.54
-13.96
-15.63
-17.14
-17.96
-17.63
-15.98
-13.14
-9.56
-5.78
-2.35
0.40
2.34
3.55
4.17
4.35
4.14
3.61
2.82
1.84
0.78
-0.29
-1.32
-2.31
-3.26
-4.19
-5.08
-5.92
-6.68
-7.32
-7.78
-8.00
-7.97
-7.77
-7.49
-7.20
-6.90
-6.53
-5.92
-4.90
-3.28
-0.85
2.49
6.75
11.78
17.21
22.59
27.45
31.41
34.28
35.99
36.60
36.26
35.15
33.50
31.60
29.72
28.07
26.78
25.90
25.37
25.08
24.89
24.69
24.46
24.26
24.25
24.60
25.44
26.76
28.45
30.34
32.28
34.20
36.23
38.66
41.92
46.42
52.45
60.08
69.12
79.20
89.89
100.81
111.64
122.15
132.12
141.31
149.58
156.91
163.43
169.40
175.12
180.82
186.63
192.57
198.60
204.64
210.67
216.66
222.68
228.82
235.31
242.45
250.50
259.49
268.89
277.54
283.75
285.76
282.29
273.08
258.95
241.46
222.36
202.99
183.98
165.45
147.29
129.50
112.30
95.97
80.55
65.78
51.19
36.27
20.83
5.02
-10.72
-25.91
-40.28
-53.92
-67.19
-80.60
-94.57
-109.37
-125.05
-141.51
-158.44
-175.30
-191.28
-205.40
-216.76
-224.94
-230.13
-233.08
-234.77
-236.01
-237.22
-238.44
-239.57
-240.56
-241.38
-241.90
-241.70
-240.23
-237.12
-232.57
-227.55
-223.53
-221.94
-223.53
-228.07
-234.42
-241.18
-247.25
-252.38
-257.15
-262.64
-269.86
-279.23
-290.39
-302.42
-314.18
-324.61
-332.87
-338.39
-340.85
-340.32
-337.37
-333.04
-328.50
-324.45
-320.73
-316.32
-309.89
-300.58
-288.51
-274.71
-260.37
-246.02
-231.04
-213.86
-192.78
-166.87
-136.57
-103.48
-69.75
-37.12
-6.32
23.02
51.71
80.12
107.51
132.02
151.37
163.90
169.35
168.92
164.52
157.85
149.80
140.48
129.67
117.41
104.20
90.74
77.59
64.91
52.58
40.56
29.07
18.71
10.32
4.76
2.81
5.01
11.55
22.14
35.92
51.52
67.30
81.63
93.22
101.26
105.49
106.10
103.64
98.88
92.69
85.89
79.25
73.25
68.13
63.77
59.89
56.19
52.67
49.68
47.85
47.76
49.60
52.88
56.50
59.10
59.40
56.66
50.85
42.59
33.07
23.81
16.42
12.21
11.99
15.74
22.68
31.42
40.37
48.14
53.76
56.72
56.83
54.04
48.42
40.23
30.08
19.04
8.47
-0.33
-6.54
-10.05
-11.46
-11.73
-11.72
-11.91
-12.30
-12.62
-12.65
-12.43
-12.32
-12.89
-14.66
-17.92
-22.48
-27.73
-32.61
-35.84
-36.14
-32.61
-24.93
-13.44
0.99
17.12
33.61
49.13
62.56
72.94
79.63
82.36
81.28
76.98
70.32
62.33
53.94
45.93
38.75
32.55
27.20
22.34
17.62
12.83
8.08
3.81
0.59
-1.12
-1.29
-0.41
0.72
1.24
0.63
-1.01
-2.99
-4.24
-3.71
-0.75
4.71
12.13
20.62
29.21
37.06
43.57
48.36
51.14
51.75
50.15
46.58
41.53
35.72
29.85
24.41
19.55
15.18
11.14
7.35
3.82
0.63
-2.18
-4.67
-6.94
-9.09
-11.16
-13.22
-15.45
-18.11
-21.40
-25.22
-29.02
-31.83
-32.54
-30.28
-24.79
-16.49
-6.43
4.09
13.77
21.60
26.94
29.63
29.87
28.21
25.36
22.04
18.81
15.99
13.67
11.82
10.44
9.52
9.13
9.27
9.88
10.75
11.61
12.17
12.21
11.62
10.39
8.64
6.59
4.63
3.30
3.28
5.18
9.41
15.96
24.43
34.11
44.30
54.50
64.41
73.76
81.96
88.01
90.78
89.38
83.65
74.23
62.31
49.01
35.03
20.55
5.59
-9.52
-23.84
-36.01
-44.70
-49.23
-49.85
-47.67
-44.25
-41.04
-38.92
-38.01
-37.75
-37.16
-35.15
-30.88
-23.97
-14.62
-3.49
8.48
20.38
31.53
41.48
49.90
56.42
60.56
61.88
60.33
56.45
51.42
46.72
43.60
42.69
43.84
46.42
49.65
52.99
56.27
59.54
62.83
66.03
68.83
70.82
71.71
71.44
70.40
69.40
69.71
72.67
79.41
90.36
105.17
122.77
141.75
160.83
179.10
196.15
211.86
226.16
238.95
249.98
259.01
265.90
270.61
273.10
273.25
270.77
265.23
256.16
243.21
226.20
205.31
181.14
154.66
127.04
99.32
72.09
45.38
18.77
-8.05
-34.74
-59.94
-81.63
-97.79
-107.25
-110.27
-108.41
-103.89
-98.73
-94.24
-90.93
-88.74
-87.39
-86.43
-85.11
-82.29
-76.64
-67.24
-54.18
-38.84
-23.56
-10.81
-2.32
1.48
1.20
-2.01
-7.14
-13.60
-21.01
-28.96
-36.78
-43.75
-49.47
-54.10
-58.21
-62.32
-66.36
-69.48
-70.33
-67.71
-61.25
-51.68
-40.85
-31.13
-24.94
-24.18
-29.75
-41.34
-57.35
-75.26
-92.17
-105.50
-113.69
-116.41
-114.55
-109.66
-103.41
-97.08
-91.31
-86.20
-81.61
-77.44
-73.95
-71.70
-71.41
-73.62
-78.41
-85.28
-93.25
-101.18
-108.00
-112.92
-115.33
-114.86
-111.54
-106.03
-99.64
-94.02
-90.59
-89.82
-91.09
-92.98
-94.00
-93.33
-91.01
-87.80
-84.64
-82.24
-80.97
-81.00
-82.36
-85.00
-88.63
-92.73
-96.81
-100.72
-104.73
-109.32
-114.70
-120.60
-126.38
-131.55
-136.06
-140.32
-144.60
-148.41
-150.60
-150.05
-146.87
-142.87
-140.90
-143.26
-150.21
-159.72
-168.86
-175.98
-182.04
-190.00
-202.61
-219.95
-238.41
-252.20
-256.06
-247.97
-229.79
-205.87
-180.45
-155.66
-130.98
-104.28
-73.31
-36.95
4.23
48.24
91.98
131.81
163.96
185.21
193.51
188.60
172.23
148.09
121.05
96.18
77.30
65.74
59.79
55.32
47.53
33.39
13.42
-8.12
-24.85
-31.13
-24.67
-7.55
14.79
36.05
51.72
60.47
63.88
64.72
65.12
65.51
64.90
62.11
57.04
51.17
46.95
46.68
51.37
60.26
71.35
82.49
92.20
100.12
106.82
113.14
119.60
126.19
132.30
137.00
139.34
138.38
133.26
123.24
107.74
86.42
59.39
27.16
-9.26
-48.37
-88.14
-126.15
-159.86
-187.19
-207.09
-219.99
-227.88
-233.51
-239.54
-247.18
-255.42
-261.28
-261.03
-251.74
-232.54
-205.07
-172.81
-139.80
-109.26
-82.98
-61.32
-44.01
-30.48
-20.86
-16.14
-17.67
-26.52
-42.90
-66.09
-94.30
-125.08
-155.23
-181.87
-202.87
-216.99
-223.57
-222.29
-213.24
-196.94
-174.56
-147.15
-116.59
-85.39
-56.08
-30.25
-8.28
10.16
25.81
39.06
52.30
66.87
82.27
96.85
109.35
119.65
127.93
135.09
141.45
151.86
169.11
191.99
216.43
238.75
257.54
272.31
284.78
296.08
314.69
345.82
388.03
435.00
480.74
522.75
560.39
596.37
631.89
676.24
732.88
795.85
853.43
896.08
921.30
931.10
932.80
866.14
705.17
472.95
225.85
10.92
-153.55
-257.15
-320.22
-355.66
-371.95
-365.24
-334.20
-288.28
-241.04
-204.45
-190.00
-202.09
-233.91
-274.72
-306.78
-319.03
-311.04
-289.82
-263.92
-239.22
-219.43
-204.02
-192.37
-179.04
-160.14
-136.70
-112.20
-90.42
-73.21
-61.02
-52.11
-45.35
-38.25
-29.65
-21.43
-16.22
-15.53
-19.06
-25.73
-34.24
-42.85
-50.64
-57.55
-65.60
-76.02
-88.21
-100.20
-110.24
-117.54
-122.55
-126.69
-131.19
-138.81
-150.76
-166.04
-182.14
-196.42
-206.62
-210.79
-207.49
-183.61
-136.02
-73.63
-11.58
38.82
73.69
94.67
105.96
111.95
116.32
118.76
117.75
112.10
101.53
86.51
68.61
51.44
36.84
26.64
20.13
16.22
14.38
14.61
16.67
19.94
23.30
25.43
25.76
23.46
19.21
15.24
14.16
16.88
23.51
32.89
43.14
52.47
58.65
60.16
56.24
46.61
31.66
12.79
-7.94
-28.05
-45.07
-57.36
-63.87
-63.12
-55.67
-44.97
-35.66
-31.30
-32.60
-36.10
-38.89
-38.69
-34.51
-27.12
-18.16
-8.67
-0.42
6.22
11.62
16.22
20.49
24.44
27.42
28.57
27.48
24.39
20.39
16.77
14.34
13.35
13.32
13.14
11.78
8.93
5.10
1.50
-0.76
-1.28
-0.36
1.18
2.29
2.24
0.83
-1.72
-4.92
-8.39
-11.90
-15.22
-17.95
-19.60
-19.73
-18.14
-15.04
-10.89
-6.28
-1.74
2.41
5.98
8.86
10.88
11.88
11.84
10.96
9.56
8.05
6.70
5.63
4.78
4.07
3.40
2.76
2.12
1.52
0.99
0.56
0.22
-0.11
-0.57
-1.35
-2.61
-4.46
-6.87
-9.67
-12.56
-15.11
-16.82
-17.19
-15.87
-12.76
-8.08
-2.32
3.84
9.70
14.71
18.51
20.97
22.14
22.21
21.45
20.17
18.70
17.33
16.23
15.35
14.48
13.26
11.46
9.06
6.32
3.66
1.52
0.10
-0.66
-1.03
-1.37
-1.99
-3.06
-4.66
-6.75
-9.25
-11.92
-14.37
-16.07
-16.47
-15.18
-12.10
-7.50
-1.96
3.80
9.09
13.40
16.48
18.26
18.80
18.25
16.78
14.67
12.23
9.84
7.78
6.25
5.22
4.55
4.02
3.44
2.75
2.00
1.27
0.60
-0.09
-0.97
-2.19
-3.85
-5.89
-8.21
-10.66
-13.10
-15.34
-17.11
-18.02
-17.65
-15.67
-12.08
-7.27
-1.92
3.21
7.54
10.82
13.10
14.61
15.51
15.84
15.49
14.42
12.74
10.79
9.00
7.70
7.02
6.78
6.66
6.35
5.73
4.84
3.85
2.90
2.04
1.24
0.42
-0.47
-1.48
-2.66
-4.09
-5.86
-7.99
-10.31
-12.40
-13.73
-13.76
-12.15
-8.89
-4.34
0.92
6.21
10.94
14.72
17.38
18.96
19.62
19.57
19.00
18.05
16.86
15.56
14.31
13.27
12.63
12.47
12.73
13.28
13.89
14.37
14.61
14.62
14.42
14.06
13.49
12.62
11.38
9.76
7.81
5.69
3.56
1.55
-0.31
-2.07
-3.86
-5.78
-7.88
-10.15
-12.51
-14.92
-17.31
-19.57
-21.48
-22.66
-22.73
-21.39
-18.58
-14.58
-9.87
-5.04
-0.59
3.10
5.84
7.59
8.38
8.37
7.75
6.82
5.82
4.99
4.43
4.15
4.08
4.13
4.22
4.29
4.29
4.23
4.07
3.81
3.41
2.86
2.17
1.38
0.54
-0.32
-1.16
-2.01
-2.88
-3.80
-4.81
-5.95
-7.27
-8.73
-10.21
-11.45
-12.12
-11.90
-10.58
-8.17
-4.88
-1.09
2.75
6.15
8.77
10.39
11.02
10.83
10.13
9.25
8.45
7.93
7.73
7.87
8.27
8.76
9.07
8.86
7.85
6.01
3.56
0.95
-1.34
-3.02
-4.05
-4.62
-4.98
-5.30
-5.65
-6.04
-6.50
-7.11
-7.99
-9.12
-10.30
-11.13
-11.19
-10.17
-8.02
-4.99
-1.56
1.75
4.57
6.71
8.18
9.12
9.63
9.77
9.56
9.05
8.35
7.66
7.15
6.91
6.91
6.96
6.84
6.38
5.52
4.30
2.82
1.20
-0.50
-2.18
-3.73
-5.00
-5.79
-5.98
-5.61
-4.93
-4.30
-4.10
-4.50
-5.44
-6.57
-7.39
-7.45
-6.49
-4.50
-1.71
1.51
4.74
7.62
9.86
11.29
11.88
11.71
11.00
9.98
8.87
7.80
6.81
5.92
5.19
4.68
4.42
4.34
4.24
3.94
3.28
2.30
1.16
0.10
-0.75
-1.38
-1.92
-2.47
-3.07
-3.66
-4.16
-4.60
-5.11
-5.89
-7.01
-8.33
-9.43
-9.82
-9.09
-7.11
-4.12
-0.61
2.81
5.62
7.51
8.45
8.59
8.16
7.40
6.49
5.48
4.41
3.32
2.34
1.60
1.19
1.03
0.96
0.73
0.23
-0.51
-1.27
-1.81
-2.01
-1.99
-1.99
-2.29
-3.02
-4.18
-5.59
-7.08
-8.52
-9.78
-10.73
-11.17
-10.84
-9.55
-7.31
-4.37
-1.17
1.80
4.21
5.95
7.10
7.79
8.14
8.15
7.78
7.02
6.00
4.95
4.13
3.73
3.75
4.03
4.33
4.40
4.11
3.49
2.67
1.82
1.04
0.35
-0.34
-1.11
-2.01
-3.04
-4.14
-5.24
-6.31
-7.32
-8.20
-8.79
-8.85
-8.18
-6.63
-4.27
-1.35
1.76
4.67
7.06
8.78
9.80
10.17
10.00
9.41
8.53
7.51
6.48
5.59
4.89
4.39
4.05
3.80
3.61
3.48
3.45
3.57
3.81
4.10
4.25
4.06
3.34
2.00
0.04
-2.49
-5.48
-8.81
-12.31
-15.74
-18.75
-20.90
-21.82
-21.25
-19.18
-15.86
-11.70
-7.23
-2.89
0.93
4.03
6.29
7.68
8.24
8.03
7.21
6.01
4.68
3.51
2.69
2.32
2.38
2.75
3.25
3.74
4.10
4.28
4.27
4.07
3.71
3.21
2.62
1.97
1.32
0.70
0.12
-0.45
-1.09
-1.88
-2.90
-4.13
-5.41
-6.49
-7.02
-6.69
-5.33
-3.02
-0.07
3.05
5.86
7.99
9.31
9.87
9.84
9.42
8.74
7.92
7.02
6.11
5.30
4.72
4.46
4.55
4.86
5.18
5.25
4.85
3.93
2.59
1.04
-0.52
-1.97
-3.36
-4.82
-6.50
-8.48
-10.73
-13.17
-15.64
-17.90
-19.65
-20.52
-20.23
-18.64
-15.88
-12.32
-8.45
-4.73
-1.43
1.38
3.72
5.63
7.09
8.02
8.38
8.25
7.81
7.32
6.96
6.83
6.90
7.06
7.22
7.29
7.24
7.05
6.68
6.08
5.24
4.16
2.92
1.65
0.45
-0.61
-1.54
-2.40
-3.26
-4.11
-4.86
-5.29
-5.14
-4.22
-2.50
-0.12
2.60
5.30
7.68
9.54
10.78
11.44
11.56
11.26
10.64
9.85
9.01
8.22
7.52
6.85
6.13
5.25
4.15
2.78
1.12
-0.82
-2.95
-5.12
-7.12
-8.75
-9.91
-10.58
-10.82
-10.73
-10.35
-9.76
-9.03
-8.31
-7.75
-7.49
-7.57
-7.90
-8.34
-8.74
-9.05
-9.31
-9.62
-10.01
-10.49
-10.90
-11.02
-10.57
-9.34
-7.23
-4.36
-1.07
2.25
5.21
7.57
9.27
10.35
10.90
10.96
10.53
9.69
8.59
7.47
6.59
6.13
6.14
6.52
7.10
7.69
8.13
8.30
8.07
7.32
6.00
4.09
1.74
-0.84
-3.33
-5.50
-7.22
-8.54
-9.67
-10.87
-12.38
-14.33
-16.69
-19.25
-21.69
-23.59
-24.58
-24.38
-22.91
-20.32
-16.89
-13.05
-9.20
-5.67
-2.63
-0.17
1.78
3.28
4.41
5.22
5.80
6.22
6.58
6.99
7.53
8.23
9.06
9.95
10.81
11.59
12.23
12.72
13.01
13.06
12.83
12.29
11.45
10.37
9.12
7.82
6.59
5.51
4.58
3.76
2.93
2.02
1.05
0.09
-0.68
-1.14
-1.27
-1.21
-1.18
-1.39
-1.94
-2.78
-3.85
-5.10
-6.59
-8.38
-10.42
-12.46
-14.09
-14.91
-14.74
-13.68
-12.05
-10.23
-8.46
-6.85
-5.35
-3.97
-2.74
-1.74
-1.00
-0.46
0.02
0.59
1.27
1.94
2.43
2.56
2.27
1.64
0.87
0.23
-0.02
0.33
1.32
2.89
4.82
6.81
8.60
10.00
10.95
11.51
11.79
11.85
11.68
11.24
10.47
9.39
8.09
6.74
5.51
4.53
3.84
3.44
3.26
3.21
3.18
3.07
2.80
2.29
1.56
0.63
-0.42
-1.55
-2.72
-3.93
-5.16
-6.37
-7.48
-8.39
-9.03
-9.39
-9.53
-9.54
-9.48
-9.31
-8.85
-7.89
-6.25
-3.91
-1.02
2.16
5.36
8.39
11.13
13.48
15.30
16.43
16.81
16.45
15.52
14.19
12.62
10.90
9.08
7.27
5.56
4.02
2.55
0.92
-1.20
-4.01
-7.49
-11.32
-15.10
-18.44
-21.19
-23.46
-25.48
-27.53
-29.78
-32.23
-34.71
-36.91
-38.50
-39.16
-38.63
-36.81
-33.71
-29.53
-24.56
-19.19
-13.82
-8.80
-4.39
-0.73
2.12
4.24
5.73
6.78
7.58
8.30
9.05
9.84
10.60
11.27
11.84
12.36
12.93
13.60
14.29
14.87
15.18
15.14
14.80
14.27
13.64
13.00
12.32
11.54
10.59
9.43
8.03
6.37
4.39
2.13
-0.29
-2.63
-4.60
-5.95
-6.54
-6.37
-5.49
-3.94
-1.71
1.26
5.02
9.46
14.34
19.29
23.90
27.83
30.86
32.95
34.27
35.25
36.47
38.45
41.36
44.76
47.62
48.55
46.29
40.29
30.94
19.50
7.67
-3.00
-11.58
-17.90
-22.38
-25.66
-28.29
-30.57
-32.61
-34.46
-36.26
-38.11
-40.04
-41.85
-43.22
-43.81
-43.52
-42.54
-41.29
-40.12
-39.21
-38.43
-37.48
-36.03
-33.89
-31.02
-27.51
-23.55
-19.39
-15.34
-11.67
-8.60
-6.14
-4.15
-2.38
-0.62
1.21
3.03
4.73
6.18
7.35
8.27
8.97
9.48
9.81
9.94
9.92
9.79
9.59
9.33
9.00
8.60
8.14
7.67
7.25
6.92
6.63
6.30
5.82
5.07
4.02
2.73
1.35
0.10
-0.77
-1.02
-0.48
0.90
3.02
5.62
8.31
10.64
12.25
12.93
12.73
11.84
10.56
9.10
7.54
5.87
4.04
2.10
0.17
-1.62
-3.23
-4.75
-6.36
-8.15
-10.05
-11.77
-12.96
-13.40
-13.13
-12.45
-11.75
-11.28
-11.03
-10.80
-10.31
-9.42
-8.23
-6.97
-5.90
-5.17
-4.75
-4.41
-3.90
-2.95
-1.38
0.83
3.60
6.69
9.79
12.59
14.82
16.37
17.27
17.65
17.64
17.34
16.73
15.79
14.52
13.02
11.47
10.06
8.92
8.04
7.24
6.33
5.17
3.80
2.40
1.21
0.38
-0.09
-0.38
-0.70
-1.17
-1.81
-2.51
-3.14
-3.62
-4.02
-4.46
-5.03
-5.67
-6.18
-6.26
-5.62
-4.12
-1.78
1.17
4.39
7.48
10.09
11.94
12.83
12.73
11.72
10.02
7.85
5.51
3.22
1.19
-0.48
-1.77
-2.68
-3.27
-3.61
-3.76
-3.77
-3.63
-3.35
-3.02
-2.79
-2.84
-3.25
-3.97
-4.83
-5.63
-6.15
-6.29
-6.16
-6.04
-6.23
-6.88
-7.92
-9.07
-10.00
-10.24
-9.45
-7.57
-4.83
-1.64
1.65
4.83
7.76
10.24
12.31
14.10
15.89
18.03
20.89
24.70
29.34
34.31
37.61
37.66
34.34
29.26
24.52
21.18
18.98
17.02
14.57
11.50
8.55
6.22
4.64
3.58
2.67
1.78
1.06
0.78
1.05
1.80
3.14
4.78
6.27
7.22
7.36
6.55
4.72
1.99
-1.18
-4.05
-5.91
-6.35
-5.45
-3.78
-2.16
-1.35
-1.73
-3.19
-5.20
-7.20
-8.76
-9.86
-10.80
-12.10
-14.25
-17.50
-21.67
-26.16
-30.12
-32.73
-33.44
-32.22
-29.46
-25.90
-22.31
-19.37
-17.50
-16.91
-17.56
-19.22
-21.46
-23.70
-25.30
-25.77
-24.95
-23.02
-20.44
-17.62
-14.83
-12.13
-9.53
-7.18
-5.45
-4.77
-5.37
-7.11
-9.42
-11.57
-12.88
-13.06
-12.20
-10.65
-8.78
-6.81
-4.71
-2.29
0.66
4.20
8.15
12.07
15.29
17.10
16.99
14.72
10.42
4.51
-2.36
-9.38
-15.75
-20.67
-23.49
-23.80
-21.54
-17.03
-10.97
-4.27
2.12
7.43
11.21
13.40
14.26
14.24
13.82
13.36
13.01
12.82
12.79
12.90
13.16
13.49
13.67
13.37
12.36
10.61
8.38
6.11
4.22
2.89
1.98
1.11
-0.11
-1.85
-4.00
-6.21
-8.05
-9.15
-9.27
-8.34
-6.39
-3.60
-0.22
3.41
7.05
10.66
14.47
18.90
24.22
30.24
36.12
40.44
41.61
38.45
30.55
18.54
3.92
-11.29
-24.96
-35.32
-41.26
-42.53
-39.76
-34.26
-27.65
-21.41
-16.48
-13.19
-11.34
-10.55
-10.48
-11.04
-12.21
-13.92
-15.82
-17.31
-17.63
-16.13
-12.56
-7.17
-0.60
6.29
12.71
18.10
22.22
25.03
26.70
27.47
27.69
27.73
27.94
28.50
29.31
29.93
29.78
28.29
25.22
20.75
15.50
10.29
5.89
2.73
0.85
-0.05
-0.47
-0.88
-1.61
-2.74
-4.11
-5.35
-5.91
-5.22
-2.82
1.42
7.15
13.56
19.51
23.88
25.85
25.26
22.61
18.97
15.54
13.33
12.79
13.82
15.98
18.83
22.28
26.51
31.81
38.22
45.39
52.64
59.22
64.58
68.35
70.31
70.27
68.14
64.19
59.27
54.81
52.39
53.18
57.38
64.03
71.38
77.64
81.64
83.24
83.20
82.44
81.44
79.88
76.84
71.24
62.40
50.08
34.32
15.13
-7.44
-32.90
-59.75
-85.32
-106.43
-120.44
-126.32
-125.14
-119.42
-112.06
-105.12
-99.36
-94.46
-89.73
-84.70
-79.36
-74.09
-69.33
-65.33
-62.16
-59.75
-58.07
-57.10
-56.82
-57.16
-57.95
-58.96
-59.99
-60.93
-61.84
-62.96
-64.53
-66.68
-69.17
-71.36
-72.30
-70.97
-66.68
-59.26
-49.08
-36.88
-23.45
-9.46
4.56
18.12
30.65
41.49
50.02
55.88
59.02
59.76
58.60
56.06
52.63
48.73
44.82
41.29
38.22
35.02
30.37
22.55
10.32
-6.31
-25.62
-44.71
-60.52
-71.13
-76.45
-78.08
-78.40
-79.38
-81.86
-85.45
-88.98
-91.29
-91.67
-89.94
-86.33
-81.21
-74.99
-68.13
-61.02
-53.98
-46.94
-39.34
-30.10
-18.08
-2.65
15.74
35.31
53.46
67.55
75.97
78.65
76.95
72.90
68.25
63.82
59.42
54.39
48.25
41.06
33.42
26.01
19.19
12.84
6.50
-0.15
-6.96
-13.30
-18.39
-21.72
-23.36
-23.90
-24.04
-24.27
-24.66
-24.98
-24.95
-24.47
-23.79
-23.34
-23.59
-24.59
-25.98
-27.05
-27.10
-25.68
-22.84
-19.04
-15.02
-11.45
-8.56
-6.14
-3.84
-1.43
1.07
3.55
5.96
8.39
10.98
13.91
17.16
20.34
22.87
24.32
24.88
25.13
25.61
26.41
27.74
29.78
32.61
36.21
40.45
45.63
51.70
57.96
62.88
65.81
66.78
66.19
64.42
61.83
59.50
58.26
58.13
57.74
56.88
55.89
55.27
55.25
56.00
58.85
64.82
73.87
83.91
93.87
102.91
109.86
112.90
103.40
76.92
36.58
-2.98
-37.35
-65.97
-89.61
-107.99
-121.17
-129.38
-131.84
-128.10
-118.92
-107.21
-94.85
-83.10
-72.83
-64.63
-58.51
-53.05
-46.87
-39.55
-32.49
-26.33
-21.24
-17.06
-13.56
-10.35
-6.55
-1.65
4.05
9.21
13.12
15.68
17.18
17.95
18.32
18.79
19.63
20.73
21.51
21.68
21.26
20.41
19.40
18.65
18.72
20.04
22.67
26.20
30.06
33.67
36.56
38.42
39.13
38.66
37.03
34.31
30.64
26.28
21.56
16.79
12.17
7.73
3.48
-0.59
-4.37
-7.68
-10.37
-12.40
-13.89
-15.05
-16.10
-17.26
-18.70
-20.56
-22.97
-25.92
-29.26
-32.55
-35.24
-36.80
-36.88
-35.46
-32.74
-29.07
-24.79
-20.18
-15.51
-11.03
-7.06
-3.84
-1.51
-0.02
0.88
1.47
2.02
2.61
3.13
3.32
2.95
1.85
0.05
-2.25
-4.72
-6.93
-8.51
-9.18
-8.89
-7.81
-6.33
-4.88
-3.84
-3.33
-3.23
-3.23
-2.97
-2.20
-0.80
1.25
3.85
6.90
10.21
13.51
16.45
18.66
19.84
19.88
18.88
17.06
14.75
12.20
9.61
7.12
4.80
2.75
1.01
-0.40
-1.51
-2.37
-3.02
-3.47
-3.69
-3.74
-3.72
-3.81
-4.25
-5.19
-6.68
-8.52
-10.36
-11.75
-12.26
-11.65
-9.94
-7.36
-4.33
-1.29
1.39
3.46
4.82
5.45
5.37
4.67
3.52
2.11
0.70
-0.53
-1.48
-2.17
-2.64
-2.91
-2.96
-2.74
-2.23
-1.51
-0.76
-0.16
0.14
0.12
-0.20
-0.75
-1.46
-2.32
-3.33
-4.50
-5.79
-7.13
-8.36
-9.28
-9.63
-9.15
-7.67
-5.20
-1.94
1.72
5.40
8.75
11.59
13.84
15.52
16.61
17.11
17.05
16.58
15.97
15.48
15.27
15.29
15.33
15.16
14.69
14.04
13.52
13.36
13.62
14.09
14.45
14.41
13.82
12.73
11.28
9.60
7.87
6.29
5.20
5.01
6.10
8.59
12.29
16.63
20.86
24.16
25.88
25.66
23.49
19.76
15.06
10.17
5.76
2.25
-0.24
-1.88
-3.01
-3.98
-5.06
-6.40
-8.01
-9.81
-11.63
-13.21
-14.30
-14.74
-14.53
-13.84
-12.96
-12.21
-11.78
-11.67
-11.68
-11.46
-10.61
-8.86
-6.19
-2.88
0.52
3.37
5.16
5.80
5.55
4.97
4.55
4.56
4.99
5.60
6.18
6.64
7.05
7.47
7.94
8.41
8.86
9.38
10.15
11.33
12.88
14.56
15.99
16.87
17.14
17.05
17.15
17.98
19.91
22.98
26.87
31.03
34.77
37.58
39.24
40.00
40.32
40.61
41.08
41.72
42.37
42.76
42.70
42.18
41.49
40.82
40.14
39.26
38.10
36.85
35.90
35.70
36.56
38.73
41.81
44.84
46.86
47.35
46.59
45.15
43.55
41.97
40.62
39.18
37.08
33.87
29.48
24.24
18.24
11.43
1.56
-10.81
-22.79
-30.76
-33.02
-30.44
-25.19
-19.69
-15.37
-12.27
-8.90
-3.91
3.37
12.66
22.05
31.40
40.91
51.22
63.09
77.32
93.36
109.54
123.54
133.18
137.23
135.12
126.79
112.04
92.85
70.30
45.12
17.91
-10.72
-40.05
-69.86
-100.27
-131.29
-162.14
-191.37
-216.90
-236.78
-250.12
-257.47
-260.84
-262.67
-264.67
-266.95
-268.62
-268.24
-264.83
-258.22
-248.81
-237.08
-223.09
-206.54
-187.16
-165.46
-142.74
-120.76
-101.30
-85.59
-74.00
-65.93
-59.96
-54.23
-46.99
-36.93
-23.53
-7.21
10.90
29.38
46.96
62.79
76.48
87.86
96.86
103.37
107.38
109.12
109.14
108.24
107.29
106.87
107.13
107.65
107.59
105.90
101.70
94.57
84.64
72.54
59.21
45.65
32.72
20.99
10.86
2.63
-3.45
-7.18
-8.55
-7.90
-5.93
-3.58
-1.77
-1.08
-1.57
-2.73
-3.80
-4.06
-3.17
-1.25
1.18
3.49
5.16
6.09
6.61
7.29
8.65
10.93
14.04
17.73
21.61
25.43
29.16
32.96
36.99
41.25
45.48
49.32
52.43
54.38
54.88
53.90
51.94
49.81
48.47
48.52
50.01
52.39
54.41
54.57
51.75
45.66
36.65
25.49
12.90
-0.19
-11.06
-16.38
-14.46
-6.60
3.82
12.83
17.41
16.24
10.19
1.75
-6.42
-12.59
-16.33
-18.01
-19.26
-20.08
-20.36
-20.04
-19.14
-17.93
-16.71
-15.74
-14.96
-14.34
-13.97
-14.54
-17.05
-22.56
-32.24
-45.51
-62.20
-81.83
-103.83
-127.61
-152.89
-179.33
-206.29
-232.74
-257.20
-278.24
-294.52
-305.24
-310.25
-310.13
-305.79
-298.13
-287.73
-274.68
-258.77
-239.42
-216.04
-188.44
-157.03
-122.77
-86.82
-50.21
-13.50
23.15
60.08
97.91
137.13
177.70
218.59
257.61
291.71
317.73
333.40
338.17
333.37
321.51
305.29
286.86
267.41
247.61
228.06
209.46
192.39
176.95
162.62
148.66
134.77
121.58
110.67
103.87
102.42
106.26
113.96
123.26
132.01
138.71
142.79
144.30
143.44
140.32
134.95
127.55
118.71
109.24
99.93
91.11
82.60
73.88
64.40
54.03
43.13
32.37
22.49
13.87
6.40
-0.64
-8.39
-17.98
-29.95
-43.85
-58.19
-70.78
-79.60
-83.57
-83.04
-79.53
-75.13
-71.63
-69.89
-69.62
-69.43
-67.22
-60.88
-49.08
-32.37
-13.83
0.97
5.68
-4.72
-31.96
-73.13
-121.25
-167.33
-203.02
-223.10
-226.80
-217.64
-201.83
-185.81
-173.69
-165.96
-159.22
-148.00
-127.02
-93.00
-45.54
13.68
82.32
158.29
239.69
324.05
407.48
484.78
550.45
599.89
630.65
642.65
637.86
619.10
589.63
552.59
510.65
466.09
420.83
376.47
334.38
295.68
261.03
230.52
203.53
178.85
155.32
132.03
108.90
86.40
65.18
45.66
27.74
10.84
-5.84
-22.89
-40.54
-58.57
-76.60
-94.31
-111.65
-128.85
-146.24
-164.02
-182.14
-200.32
-218.13
-235.29
-251.76
-267.82
-284.05
-301.23
-320.13
-341.09
-363.60
-386.05
-405.84
-420.07
-426.48
-424.34
-414.72
-400.05
-383.06
-365.70
-348.47
-330.51
-310.26
-286.39
-258.48
-227.18
-194.01
-160.96
-129.98
-102.77
-80.49
-63.67
-52.09
-44.78
-40.14
-36.47
-32.48
-27.81
-23.12
-19.53
-17.95
-18.38
-19.80
-20.70
-20.00
-17.79
-15.38
-14.80
-17.77
-25.04
-36.26
-50.43
-66.62
-84.42
-103.88
-125.04
-147.41
-169.76
-190.28
-207.23
-219.39
-226.32
-228.20
-225.56
-219.16
-210.13
-200.19
-191.32
-184.84
-180.19
-174.20
-161.52
-136.26
-94.39
-36.06
33.45
104.93
167.87
214.04
240.32
249.51
248.85
246.67
248.77
256.10
265.29
271.41
271.73
267.95
265.28
268.98
280.67
296.87
310.87
316.53
311.49
297.77
279.57
259.93
238.63
212.66
178.90
136.90
89.96
43.89
4.54
-24.65
-43.64
-55.07
-62.64
-69.52
-77.20
-85.40
-92.64
-97.24
-98.31
-96.19
-92.29
-88.36
-85.93
-85.67
-87.42
-90.86
-95.09
-98.64
-99.89
-97.74
-92.03
-83.54
-73.63
-63.70
-55.23
-49.06
-45.31
-43.74
-44.16
-46.38
-49.89
-53.70
-56.68
-59.24
-62.01
-65.15
-68.17
-70.30
-70.85
-69.29
-65.49
-59.79
-56.02
-56.48
-60.10
-63.51
-64.11
-61.72
-58.32
-56.84
-59.79
-74.67
-104.29
-144.00
-184.83
-220.02
-247.81
-269.47
-286.06
-296.60
-308.62
-325.20
-342.23
-352.58
-353.97
-350.31
-347.72
-350.75
-361.43
-393.59
-454.37
-537.56
-626.77
-705.98
-765.21
-800.46
-812.64
-722.58
-506.04
-210.75
78.56
306.74
465.89
572.37
644.36
693.23
723.65
724.32
690.90
633.53
571.93
520.00
481.79
454.95
435.82
421.54
400.17
365.12
319.37
271.98
229.78
194.61
166.03
146.46
138.40
137.14
139.13
144.70
156.42
174.35
192.55
201.06
195.11
178.74
157.27
135.70
117.64
104.97
96.81
90.55
84.34
78.73
75.12
73.36
72.38
70.47
65.47
54.84
37.07
13.44
-11.57
-32.74
-45.17
-46.24
-36.64
-18.96
2.29
22.09
36.43
43.62
43.17
36.80
26.99
15.62
3.64
-8.85
-21.76
-34.03
-43.99
-51.50
-56.70
-60.35
-63.39
-65.88
-66.70
-63.76
-54.87
-33.39
-3.04
27.41
48.87
56.44
51.05
37.85
23.86
14.68
11.78
12.01
12.66
13.01
14.95
21.14
32.37
46.35
58.61
65.22
64.39
59.37
54.82
53.14
52.19
46.94
33.14
10.37
-17.54
-45.57
-68.27
-82.78
-89.13
-89.42
-85.97
-80.51
-74.83
-67.13
-62.23
-63.28
-70.35
-80.24
-89.68
-96.06
-97.94
-94.83
-86.32
-72.75
-54.45
-34.55
-13.60
6.37
23.62
37.34
47.65
55.05
59.42
60.79
59.30
56.05
52.27
49.41
48.29
48.85
50.27
51.14
50.59
48.19
44.19
38.79
33.42
29.30
27.00
26.25
25.93
25.17
23.80
22.43
21.89
23.13
26.53
31.91
38.73
46.40
54.75
63.81
73.42
83.03
91.99
99.57
104.94
107.78
108.52
108.19
107.91
108.53
110.37
113.18
116.18
118.03
117.73
115.10
110.71
105.42
99.91
94.30
88.10
80.28
69.08
53.70
34.96
15.04
-3.51
-18.37
-27.94
-31.45
-29.13
-24.12
-19.11
-15.17
-12.15
-9.72
-7.53
-4.96
-1.28
3.44
3.92
-3.98
-21.04
-45.52
-75.52
-109.59
-146.36
-184.39
-222.70
-267.11
-320.24
-379.01
-437.60
-492.29
-541.92
-586.52
-625.75
-659.11
-694.32
-734.37
-774.43
-805.15
-819.26
-813.47
-788.69
-748.80
-647.13
-477.36
-276.81
-97.32
33.74
117.44
167.48
196.73
217.15
233.67
239.88
233.44
220.08
210.50
206.45
208.22
214.74
225.86
241.55
255.36
263.74
268.30
273.42
281.88
294.74
311.63
332.78
357.72
381.59
401.61
418.61
434.81
450.59
464.46
474.36
481.78
489.62
498.43
507.40
514.20
514.32
502.19
472.93
424.75
363.14
295.87
229.27
167.68
114.47
71.86
41.70
23.65
15.22
15.74
22.22
29.43
32.31
29.48
23.73
21.20
25.59
14.28
-25.16
-88.01
-156.14
-212.26
-243.01
-252.23
-244.83
-227.73
-208.29
-188.51
-169.64
-153.25
-141.71
-138.27
-143.89
-155.00
-167.32
-177.31
-180.17
-174.37
-162.76
-151.17
-143.89
-142.16
-142.49
-140.59
-133.83
-120.82
-103.44
-85.91
-73.83
-67.52
-64.73
-60.83
-51.66
-34.81
-9.11
23.66
57.87
83.93
92.02
75.74
36.25
-17.33
-70.69
-109.47
-125.43
-113.95
-79.40
-32.08
16.14
56.48
84.51
100.11
106.39
107.91
109.41
113.52
120.22
126.62
127.89
118.64
95.14
57.15
8.17
-44.97
-94.51
-133.26
-156.32
-161.98
-152.23
-131.95
-107.29
-83.51
-63.98
-50.20
-42.12
-38.70
-38.63
-40.27
-41.58
-40.55
-35.95
-27.54
-16.40
-4.34
6.81
15.86
22.57
27.51
31.40
34.62
36.94
37.58
35.70
31.04
24.19
16.56
10.01
6.13
5.62
8.16
12.56
17.31
21.06
23.06
23.11
21.42
18.40
14.64
10.81
7.62
5.80
5.84
7.93
11.87
17.19
23.30
29.62
35.68
41.03
45.20
47.74
48.33
46.95
44.00
40.20
36.44
33.50
31.79
31.29
31.61
32.23
32.75
32.95
32.71
31.97
30.62
28.68
26.43
24.59
24.26
26.57
32.36
41.70
53.81
67.27
80.46
91.99
101.10
107.78
112.62
116.43
119.75
122.59
124.56
125.23
124.52
122.89
121.31
120.93
122.63
126.35
130.66
132.96
130.05
118.78
96.92
63.90
21.13
-28.13
-79.40
-128.15
-170.00
-201.32
-220.01
-226.04
-221.49
-210.12
-196.44
-184.72
-178.65
-179.57
-186.56
-197.36
-209.39
-220.24
-227.83
-230.56
-227.63
-220.39
-210.50
-199.77
-190.17
-183.48
-180.30
-179.44
-178.28
-173.94
-166.00
-154.32
-138.70
-119.12
-95.89
-69.55
-41.42
-14.21
17.45
49.80
74.99
88.28
91.37
89.37
86.77
85.32
84.90
85.23
85.63
87.07
90.93
96.03
98.40
94.73
84.46
70.49
57.49
48.19
42.21
37.78
31.76
21.80
9.45
-1.03
-5.14
-0.92
9.18
21.04
31.42
38.14
40.56
41.05
42.79
48.48
59.81
77.71
99.90
126.98
159.60
187.45
201.69
199.15
184.21
164.08
143.37
124.59
108.96
96.41
85.47
74.83
63.41
51.55
44.10
42.24
47.53
59.22
72.16
77.88
69.39
44.93
9.37
-29.21
-64.83
-95.12
-121.99
-145.30
-163.84
-175.43
-177.51
-169.33
-154.13
-139.22
-131.33
-133.29
-142.33
-143.91
-127.43
-93.89
-54.12
-18.66
7.30
24.73
37.90
51.17
65.70
78.71
86.07
85.27
76.79
61.23
42.80
27.02
18.47
18.79
24.74
29.16
26.37
16.55
4.15
-5.29
-8.90
-6.43
-0.87
5.09
10.64
16.55
23.14
27.88
28.81
24.55
16.09
5.28
-2.80
-0.91
17.19
51.79
96.06
138.18
165.25
168.17
141.28
83.80
4.56
-82.00
-161.61
-224.22
-265.41
-286.85
-277.84
-244.35
-205.93
-181.26
-174.49
-176.41
-174.28
-160.15
-134.41
-103.41
-81.05
-67.68
-58.68
-48.17
-33.34
-15.92
-0.53
8.24
9.06
2.27
-7.08
-13.39
-12.78
-5.36
5.52
16.01
23.94
29.33
32.52
35.53
40.14
47.31
56.21
64.76
70.99
74.33
75.85
76.81
79.06
83.47
89.76
96.34
100.94
101.82
98.67
92.49
84.69
76.88
70.03
64.57
60.46
57.50
55.60
54.73
54.84
55.58
56.46
56.88
56.50
55.28
53.30
50.62
47.22
43.03
38.24
33.38
29.27
26.68
25.97
26.85
28.53
30.09
30.73
30.07
28.04
24.82
20.66
15.87
10.83
6.04
1.99
-0.95
-2.73
-3.60
-3.92
-3.90
-3.46
-2.33
-0.34
2.40
5.39
7.88
9.19
9.07
8.08
7.47
8.59
12.33
18.88
27.54
36.69
44.17
47.81
46.43
39.98
29.18
15.16
-0.48
-15.79
-28.78
-37.74
-41.91
-41.82
-39.65
-39.54
-46.10
-61.66
-84.76
-110.46
-132.19
-144.43
-144.01
-130.55
-106.54
-76.30
-43.45
-10.84
18.78
43.66
57.84
57.05
44.06
25.88
6.55
-12.63
-31.77
-51.58
-73.81
-97.41
-121.81
-145.73
-169.48
-196.56
-229.63
-269.26
-312.66
-354.64
-388.40
-406.58
-402.36
-373.52
-325.27
-265.28
-201.30
-138.69
-80.91
-30.98
2.15
14.93
21.75
30.75
46.72
66.82
90.70
117.53
145.25
171.87
197.48
222.69
245.96
266.83
286.11
306.45
330.39
358.85
392.43
432.82
480.70
532.44
581.91
621.31
643.16
641.13
610.17
550.18
467.42
371.61
270.94
171.43
76.68
-11.22
-91.50
-166.06
-235.84
-298.83
-351.53
-392.66
-423.09
-444.70
-458.02
-446.08
-398.00
-318.91
-227.22
-141.67
-74.91
-32.19
-12.00
-7.25
-9.50
-14.44
-20.76
-28.15
-35.29
-41.60
-45.68
-45.82
-40.63
-31.02
-21.68
-17.80
-22.26
-34.52
-52.23
-71.80
-90.47
-100.94
-99.61
-88.24
-71.15
-52.18
-33.47
-16.91
-4.75
1.42
2.11
-0.01
-1.46
1.30
9.14
19.89
29.04
32.44
29.02
20.85
10.88
0.98
-8.48
-18.22
-28.87
-40.34
-51.43
-60.17
-64.48
-62.92
-55.28
-42.13
-25.34
-6.41
12.55
29.46
42.94
52.62
58.76
62.00
62.36
59.58
53.28
43.77
32.05
20.17
9.91
2.23
-2.74
-5.87
-8.15
-10.26
-12.31
-13.79
-13.84
-11.66
-7.24
-1.64
3.33
5.83
4.88
0.90
-4.18
-8.60
-10.04
-7.18
-0.19
9.38
19.41
27.92
33.67
36.27
36.13
34.36
31.97
29.71
27.93
26.68
25.74
24.92
24.20
23.83
24.23
25.40
27.03
28.57
29.59
29.91
29.74
29.52
29.76
30.86
32.55
34.41
36.14
37.81
39.62
41.80
44.33
46.96
49.20
49.69
47.50
42.79
36.86
31.23
27.05
24.79
24.46
25.84
27.08
26.63
24.14
20.50
16.62
12.99
9.85
7.61
7.01
6.14
3.39
-1.15
-5.76
-9.25
-12.19
-16.97
-26.54
-43.02
-70.28
-109.51
-157.62
-208.28
-255.60
-296.31
-329.98
-357.31
-357.55
-318.98
-247.60
-164.07
-87.71
-28.05
13.59
39.26
52.40
57.88
56.87
49.78
36.70
20.12
2.06
-16.77
-37.29
-60.70
-85.49
-111.35
-137.31
-161.22
-179.91
-191.85
-191.96
-180.93
-163.40
-141.86
-118.52
-93.86
-66.76
-35.04
2.75
46.35
94.40
134.50
155.61
153.99
135.80
109.88
81.69
52.57
22.13
-1.64
-21.07
-34.71
-40.39
-37.34
-26.69
-9.68
14.49
38.60
61.37
82.19
103.74
128.51
157.16
188.06
218.74
246.81
270.77
291.89
311.52
333.24
360.38
394.48
434.30
475.64
511.22
532.04
531.25
504.61
453.20
382.20
299.23
212.22
127.64
48.82
-23.65
-89.17
-147.11
-196.53
-236.99
-269.01
-293.71
-307.46
-305.37
-288.18
-262.35
-234.52
-208.19
-184.59
-164.54
-148.85
-138.14
-132.84
-132.08
-133.76
-132.64
-124.53
-108.06
-85.69
-62.22
-43.07
-32.62
-32.70
-41.66
-55.54
-71.24
-85.48
-97.64
-108.53
-119.08
-129.19
-137.77
-142.73
-142.36
-137.05
-129.29
-122.18
-117.56
-115.42
-114.22
-112.55
-109.99
-106.99
-104.14
-100.73
-93.42
-77.37
-49.49
-10.92
32.83
73.09
101.96
114.74
111.96
99.73
85.06
72.15
61.78
53.36
46.79
43.38
45.26
54.23
72.00
96.58
121.56
139.17
144.94
139.44
127.33
114.38
105.37
105.82
117.79
139.13
165.29
192.84
220.23
246.46
268.66
262.52
214.46
132.98
42.64
-36.53
-97.27
-141.38
-174.20
-200.78
-222.42
-233.41
-227.04
-201.71
-162.87
-120.29
-84.14
-61.69
-55.11
-61.03
-70.34
-75.31
-73.17
-66.49
-59.17
-52.77
-46.29
-37.17
-23.37
-3.61
20.19
43.38
59.88
66.10
62.57
52.83
41.22
31.21
24.77
19.63
15.22
10.00
3.09
-5.07
-13.06
-19.76
-24.53
-27.32
-28.64
-28.93
-29.01
-29.22
-29.24
-28.63
-27.12
-24.72
-21.64
-18.15
-14.24
-9.67
-5.02
-0.48
3.66
7.21
10.14
12.62
14.90
17.36
19.98
22.44
24.75
26.67
28.08
29.03
29.76
30.70
32.52
35.90
41.17
48.33
55.92
61.31
61.60
54.79
40.78
21.53
0.28
-21.66
-41.51
-57.29
-68.06
-73.62
-74.13
-70.09
-62.56
-53.24
-44.26
-37.22
-33.19
-32.23
-33.55
-35.90
-38.07
-39.32
-39.46
-38.87
-37.99
-37.68
-38.63
-41.10
-44.71
-48.61
-51.89
-54.05
-55.22
-55.76
-56.24
-56.92
-57.70
-58.40
-58.92
-59.44
-60.09
-60.75
-60.89
-59.92
-57.59
-54.17
-50.27
-46.43
-42.72
-38.76
-34.13
-28.67
-22.74
-16.85
-11.25
-5.67
0.59
8.12
17.02
26.74
36.30
44.72
51.31
55.83
58.37
59.20
58.70
57.35
55.72
54.36
53.59
53.42
53.45
53.22
52.37
50.94
49.27
47.85
47.02
46.76
46.67
46.08
44.27
40.67
35.01
27.59
19.24
11.29
5.15
1.83
1.57
3.70
6.96
10.00
11.92
12.46
11.91
10.79
9.57
8.57
8.03
8.22
9.36
11.56
14.55
17.79
20.54
22.16
22.41
21.42
19.67
17.69
15.82
14.11
12.36
10.35
8.03
5.61
3.52
2.23
2.05
3.02
4.92
7.32
9.73
11.70
12.88
13.16
12.68
11.84
11.14
10.84
10.69
9.74
6.66
0.28
-9.70
-22.25
-35.12
-45.51
-50.99
-50.33
-43.88
-33.32
-20.93
-8.98
0.92
7.90
11.77
12.81
11.63
9.15
6.42
4.48
4.09
5.51
8.38
11.88
15.01
16.89
17.06
15.55
12.89
9.87
7.29
5.83
5.79
7.11
9.46
12.29
15.03
17.23
18.62
19.16
19.01
18.45
17.74
17.10
16.56
16.05
15.45
14.70
13.79
12.72
11.47
9.91
7.93
5.55
2.99
0.70
-0.86
-1.47
-1.24
-0.61
-0.10
0.00
-0.29
-0.63
-0.66
-0.22
0.47
0.93
0.69
-0.51
-2.48
-4.73
-6.66
-7.79
-7.92
-7.14
-5.71
-3.92
-2.05
-0.33
0.99
1.66
1.49
0.47
-1.16
-3.01
-4.60
-5.69
-6.34
-6.99
-8.22
-10.49
-13.87
-17.99
-22.11
-25.37
-27.12
-27.00
-25.07
-21.75
-17.75
-13.81
-10.63
-8.62
-7.82
-7.98
-8.71
-9.61
-10.40
-10.92
-11.03
-10.56
-9.30
-7.11
-4.03
-0.30
3.74
7.76
11.60
15.20
18.57
21.63
24.16
25.89
26.63
26.38
25.37
24.03
22.77
21.92
21.65
21.98
22.80
23.87
24.89
25.49
25.35
24.32
22.47
20.00
17.23
14.40
11.67
9.10
6.70
4.49
2.47
0.56
-1.43
-3.77
-6.73
-10.37
-14.52
-18.78
-22.66
-25.73
-27.68
-28.33
-27.60
-25.41
-21.70
-16.50
-10.07
-2.88
4.39
11.05
16.48
20.36
22.56
23.23
22.57
20.82
18.15
14.65
10.28
4.97
-1.35
-8.54
-16.15
-23.33
-28.98
-32.00
-31.64
-27.83
-21.15
-12.69
-3.79
4.36
10.87
15.36
17.87
18.88
19.11
19.35
20.21
21.98
24.60
27.72
30.84
33.53
35.38
36.12
35.61
33.87
31.14
27.90
24.64
21.70
19.15
16.75
14.14
11.12
7.74
4.27
1.07
-1.68
-4.00
-6.07
-8.07
-10.01
-11.74
-12.95
-13.35
-12.69
-10.76
-7.48
-2.86
2.79
8.86
14.42
18.47
20.22
19.40
16.41
12.19
7.86
4.41
2.40
1.92
2.76
4.63
7.37
10.90
15.19
20.05
25.18
30.23
34.97
39.28
43.12
46.29
48.30
48.45
46.07
40.82
32.73
22.09
9.15
-6.03
-23.31
-42.07
-60.81
-77.26
-89.02
-94.55
-93.79
-88.30
-80.55
-72.90
-66.75
-62.25
-58.58
-54.70
-49.87
-43.94
-37.15
-29.90
-22.43
-14.85
-7.22
0.26
7.18
13.06
17.51
20.50
22.40
23.87
25.63
28.14
31.43
35.09
38.40
40.63
41.39
40.75
39.22
37.49
36.11
35.17
34.34
33.07
30.92
27.87
24.38
21.17
18.99
18.33
19.36
21.97
25.77
30.18
34.42
37.74
39.56
39.72
38.44
36.28
33.72
31.03
28.19
25.04
21.43
17.38
13.05
8.70
4.63
1.22
-1.12
-1.96
-1.07
1.44
5.05
9.02
12.60
15.36
17.32
18.96
21.05
24.39
29.54
36.60
45.04
53.81
61.60
67.34
70.61
71.88
72.31
73.20
75.40
78.82
82.47
84.87
84.76
81.66
76.09
69.24
62.41
56.38
51.07
45.63
38.94
30.08
18.82
5.62
-8.50
-22.40
-35.07
-45.87
-54.49
-60.89
-65.20
-67.72
-69.03
-69.82
-70.81
-72.34
-74.17
-75.42
-74.88
-71.51
-64.98
-55.82
-45.20
-34.45
-24.44
-15.37
-6.85
1.70
10.66
20.06
29.65
39.19
48.63
58.19
68.13
78.66
89.88
101.88
114.89
129.13
144.61
160.76
176.27
189.22
197.56
199.64
194.54
182.12
162.74
136.99
105.69
70.33
33.49
-1.23
-30.04
-50.39
-62.04
-67.25
-69.50
-71.68
-74.56
-76.70
-75.78
-70.48
-61.63
-52.22
-46.00
-45.99
-53.68
-69.20
-92.20
-122.43
-159.63
-202.73
-249.21
-295.02
-335.26
-365.39
-382.30
-384.86
-373.79
-351.08
-319.12
-280.11
-235.83
-187.72
-137.33
-86.56
-37.62
7.37
46.80
79.91
106.64
127.39
142.67
152.93
158.65
160.47
159.18
155.59
150.48
144.57
138.74
133.98
131.14
130.29
130.31
128.99
123.84
113.29
97.60
78.69
59.16
40.77
23.58
6.07
-13.64
-36.38
-61.23
-85.88
-107.88
-126.00
-140.50
-152.45
-162.42
-169.68
-172.32
-168.25
-156.44
-137.68
-114.49
-90.23
-67.85
-49.02
-34.05
-22.35
-13.13
-5.84
-0.38
2.87
3.61
2.00
-1.02
-3.90
-4.89
-2.48
4.15
14.80
27.64
40.11
49.71
54.79
54.88
50.42
42.62
33.15
23.77
14.99
6.89
-0.39
-6.10
-9.10
-8.52
-4.31
2.47
9.42
11.04
1.77
-21.14
-55.42
-94.49
-130.52
-157.60
-173.19
-177.58
-174.97
-169.40
-163.42
-158.34
-155.90
-159.61
-173.68
-200.03
-220.05
-215.22
-175.04
-105.05
-22.35
56.00
120.11
167.60
201.23
225.86
243.26
253.49
256.01
250.80
239.45
224.52
208.21
192.51
179.14
167.24
155.19
141.67
125.96
108.88
91.86
76.14
62.60
51.30
39.88
24.55
6.19
-14.93
-37.15
-58.08
-75.42
-87.57
-93.97
-95.65
-94.01
-89.91
-83.68
-74.54
-61.51
-44.40
-24.05
-2.22
18.64
36.25
49.10
56.25
57.90
55.09
49.37
42.61
36.48
32.19
30.17
29.98
30.10
28.75
24.25
15.57
2.55
-14.25
-33.70
-54.40
-74.96
-94.29
-111.52
-126.15
-137.72
-145.84
-150.59
-152.49
-152.35
-151.09
-149.50
-147.91
-146.56
-145.16
-143.17
-140.81
-138.60
-136.73
-134.66
-131.13
-124.73
-115.35
-103.30
-88.96
-73.79
-58.57
-42.18
-21.85
5.59
42.03
85.64
132.73
178.89
217.52
242.48
249.76
237.49
205.40
154.37
85.69
4.59
-78.65
-153.37
-209.57
-240.31
-244.11
-225.21
-183.55
-129.06
-80.27
-38.11
1.01
38.06
71.09
95.81
107.72
104.71
87.20
60.24
32.14
8.23
-9.15
-20.76
-29.61
-39.32
-52.45
-70.47
-92.02
-113.20
-131.57
-144.64
-150.94
-150.22
-143.11
-130.20
-112.42
-90.16
-63.29
-33.21
0.75
38.88
80.49
124.10
168.47
212.37
254.49
293.05
325.15
351.98
374.44
391.95
402.92
406.42
403.00
394.30
382.40
369.40
362.61
366.98
382.30
403.36
423.41
437.32
442.81
440.37
399.99
311.58
188.58
59.56
-52.27
-138.39
-200.63
-244.44
-275.18
-297.08
-307.92
-306.34
-294.02
-275.49
-255.38
-236.84
-221.95
-212.29
-208.90
-207.91
-205.75
-200.65
-193.02
-183.74
-172.91
-160.30
-146.26
-131.84
-115.79
-97.40
-76.84
-55.70
-35.73
-18.24
-4.33
5.27
10.57
13.66
14.77
15.24
15.12
13.64
10.49
6.25
2.23
-0.28
-0.43
1.37
4.09
6.62
8.56
10.47
12.53
13.85
12.22
5.27
-8.40
-27.58
-48.99
-68.28
-80.97
-84.03
-76.30
-58.98
-35.50
-10.72
10.46
24.41
30.24
30.60
29.03
29.33
33.89
42.58
53.09
61.99
65.82
61.38
48.60
28.95
5.46
-17.69
-36.45
-47.79
-50.78
-46.83
-38.98
-30.16
-22.89
-18.09
-15.54
-14.72
-15.10
-16.31
-17.55
-17.71
-15.58
-10.75
-3.78
3.61
9.28
11.63
10.39
6.75
2.68
-0.01
-0.58
0.60
2.53
4.23
5.12
5.07
4.28
3.01
1.47
-0.08
-1.32
-1.87
-1.43
-0.16
1.14
1.49
0.30
-2.26
-4.92
-5.86
-3.63
2.16
10.29
18.53
24.59
27.19
25.95
21.94
17.11
13.47
12.59
14.98
20.22
27.52
35.65
42.77
47.64
50.01
49.12
45.28
39.59
33.43
27.12
19.77
7.63
-11.89
-38.90
-71.56
-104.96
-133.96
-154.50
-164.51
-158.03
-135.10
-101.75
-66.67
-36.61
-14.07
1.46
11.72
18.52
23.28
25.90
26.60
26.61
27.59
30.95
37.09
45.24
54.15
62.58
69.27
72.00
70.50
65.56
58.23
49.30
39.18
28.43
18.06
8.90
2.00
-1.44
-0.75
3.28
10.05
18.23
26.15
32.24
35.30
35.02
32.25
28.42
24.98
23.15
23.50
26.70
32.60
39.86
46.27
49.40
47.32
39.54
27.80
15.26
5.42
0.42
-0.09
1.68
2.97
1.98
-1.34
-5.44
-8.45
-9.14
-7.60
-5.23
-3.43
-2.83
-3.28
-4.30
-5.27
-5.68
-4.78
-1.59
3.76
11.14
20.29
30.54
40.79
50.42
59.21
67.99
77.98
87.88
96.43
102.74
105.79
103.93
95.76
79.60
55.07
23.15
-17.38
-65.18
-116.00
-164.68
-207.95
-244.53
-276.53
-306.27
-334.60
-364.22
-393.11
-414.79
-422.40
-413.21
-388.96
-356.96
-324.89
-271.63
-193.60
-103.51
-19.33
48.98
93.88
124.77
147.56
165.76
181.69
193.39
198.98
198.98
195.18
188.59
180.29
169.34
155.48
139.22
117.98
91.00
60.44
30.06
3.32
-16.55
-28.78
-33.31
-30.84
-24.90
-18.27
-11.88
-5.36
1.69
9.66
17.64
24.80
30.70
34.38
35.84
36.07
36.20
36.68
37.42
37.65
36.99
35.71
34.13
32.84
32.39
33.05
34.64
36.82
39.01
40.72
41.56
41.24
39.67
37.06
33.81
30.36
26.94
23.48
19.73
15.49
10.81
6.01
1.44
-2.67
-6.32
-9.73
-13.06
-16.36
-19.51
-22.34
-24.78
-26.97
-29.17
-31.59
-34.25
-36.89
-39.06
-40.24
-40.05
-38.33
-35.20
-30.97
-26.03
-20.81
-15.68
-10.96
-6.89
-3.64
-1.25
0.26
0.93
0.83
0.02
-1.35
-3.05
-4.76
-6.13
-6.88
-6.89
-6.17
-4.80
-2.90
-0.60
1.90
4.26
6.04
6.83
6.45
5.09
3.28
1.67
0.74
0.57
0.99
1.77
2.87
4.49
6.81
9.72
12.61
14.60
14.92
13.40
10.59
7.48
5.03
3.65
3.11
2.81
2.18
1.03
-0.39
-1.68
-2.54
-2.96
-3.19
-3.53
-4.20
-5.18
-6.33
-7.43
-8.35
-9.01
-9.39
-9.52
-9.38
-8.93
-8.11
-6.87
-5.23
-3.31
-1.29
0.56
2.02
2.92
3.18
2.88
2.17
1.30
0.50
-0.07
-0.45
-0.82
-1.47
-2.68
-4.55
-6.90
-9.28
-11.08
-11.72
-10.90
-8.76
-5.84
-2.94
-0.79
0.27
0.38
0.15
0.40
1.87
4.88
9.31
14.56
19.81
24.24
27.26
28.70
28.77
27.94
26.75
25.54
24.40
23.22
21.88
20.36
18.83
17.49
16.42
15.49
14.40
12.83
10.61
7.78
4.54
1.15
-2.21
-5.43
-8.48
-11.24
-13.56
-15.21
-16.03
-15.97
-15.13
-13.71
-11.99
-10.18
-8.43
-6.74
-5.05
-3.31
-1.56
0.03
1.28
2.03
2.30
2.21
1.94
1.64
1.34
1.10
0.96
0.95
1.21
1.87
2.91
4.18
5.42
6.42
7.09
7.49
7.78
8.18
8.99
10.35
12.32
14.82
17.69
20.89
24.37
27.98
31.66
35.34
38.81
41.77
43.94
45.23
46.04
46.68
47.11
47.50
48.11
49.00
50.15
51.45
52.84
54.92
57.81
60.81
63.76
66.95
70.56
74.72
79.50
84.96
92.14
101.24
110.93
120.49
129.73
138.36
146.34
153.98
161.61
170.18
178.47
182.18
177.52
162.38
136.47
101.98
62.88
15.67
-35.81
-77.96
-109.80
-135.64
-157.48
-175.99
-191.02
-202.57
-211.68
-219.20
-227.50
-235.27
-239.15
-235.32
-222.84
-203.91
-182.15
-160.69
-139.82
-118.79
-97.09
-74.21
-50.30
-27.10
-7.21
7.29
15.27
18.62
19.32
18.65
17.31
15.95
14.85
13.90
12.91
11.54
9.74
7.29
3.94
-0.82
-7.29
-14.00
-20.06
-24.95
-28.53
-30.66
-31.34
-27.82
-19.85
-9.82
-1.86
0.59
-3.18
-11.08
-19.57
-25.40
-26.94
-25.02
-21.66
-18.72
-17.20
-16.95
-17.35
-17.85
-18.33
-18.84
-19.49
-19.56
-17.67
-12.55
-3.93
7.03
18.06
26.88
32.24
34.09
33.68
32.41
31.18
30.03
28.44
25.97
22.80
19.80
17.94
17.87
19.52
22.17
24.76
26.37
26.62
25.67
24.12
22.59
21.53
21.06
21.04
21.21
21.27
21.11
20.85
20.71
20.95
21.68
22.77
23.85
24.66
25.21
25.84
26.81
27.89
28.15
26.26
21.34
13.59
4.50
-3.77
-9.51
-12.41
-13.74
-15.57
-19.61
-26.27
-34.50
-42.42
-48.39
-51.69
-52.66
-52.28
-51.36
-50.13
-48.18
-44.70
-39.10
-31.36
-22.10
-12.39
-3.37
4.14
9.73
13.44
15.59
16.73
17.65
19.39
23.16
30.01
40.27
53.17
66.67
78.05
84.68
84.99
78.97
68.03
54.36
40.17
27.08
16.00
7.29
0.99
-3.03
-5.16
-5.98
-6.18
-6.30
-6.53
-6.76
-6.76
-6.51
-6.41
-7.11
-9.32
-13.42
-19.28
-26.26
-33.35
-39.45
-43.61
-45.23
-44.07
-40.33
-34.53
-27.43
-19.96
-13.20
-7.92
-4.39
-2.38
-1.35
-0.69
0.11
1.34
2.92
4.44
5.60
6.50
7.45
8.71
10.31
12.03
13.50
14.39
14.12
12.60
10.39
8.26
6.74
6.09
6.42
7.82
10.37
12.88
14.91
17.06
20.05
23.66
26.75
27.95
26.20
21.22
11.28
-2.92
-17.83
-29.54
-36.51
-39.75
-41.47
-43.73
-47.63
-56.83
-71.42
-87.05
-98.57
-103.95
-104.49
-103.37
-104.51
-111.95
-134.07
-174.01
-226.47
-280.96
-327.13
-357.01
-365.98
-353.50
-292.00
-183.83
-61.94
38.58
105.57
144.92
166.91
179.09
185.35
187.34
181.22
166.81
149.43
135.57
127.87
125.19
124.89
124.67
123.36
117.23
106.11
94.01
85.28
80.65
77.38
71.91
62.14
48.53
31.38
13.41
-0.99
-8.72
-10.01
-7.38
-3.41
0.61
4.68
7.91
9.82
10.58
10.57
9.75
7.99
5.34
2.02
-1.74
-6.22
-11.55
-17.38
-23.02
-27.83
-31.35
-33.33
-33.77
-33.02
-31.52
-29.84
-28.47
-27.54
-26.87
-26.09
-24.88
-23.25
-21.61
-20.42
-20.33
-21.86
-25.12
-29.64
-34.60
-38.92
-41.54
-43.52
-45.07
-46.30
-47.13
-47.08
-45.47
-41.57
-34.94
-25.56
-13.83
-0.23
14.28
28.35
40.40
49.02
53.33
53.29
49.63
43.42
35.85
27.62
19.04
10.42
2.39
-4.13
-8.18
-9.18
-7.31
-3.20
2.06
7.43
12.14
15.77
18.18
19.44
19.77
19.48
19.02
18.73
18.78
19.13
19.48
19.43
18.66
17.08
14.87
12.49
10.49
9.30
9.11
9.74
10.57
10.67
9.01
4.91
-1.56
-9.23
-16.07
-19.79
-18.64
-12.22
-1.69
10.56
21.79
29.82
33.71
33.85
31.48
28.14
25.01
22.69
21.24
20.42
19.94
19.58
19.17
18.51
17.32
15.29
12.22
8.17
3.45
-1.42
-5.89
-9.59
-12.40
-14.43
-15.95
-17.17
-18.23
-19.09
-19.63
-19.79
-19.66
-19.40
-19.11
-18.61
-17.35
-14.59
-9.68
-2.52
6.28
15.43
23.35
28.71
30.76
29.54
25.75
20.53
15.15
10.76
8.21
7.88
9.62
12.74
16.22
18.92
19.93
18.76
15.48
10.68
5.29
0.36
-3.18
-4.73
-4.09
-1.54
2.28
6.53
10.36
13.13
14.49
14.45
13.29
11.40
9.06
6.38
3.27
-0.30
-4.09
-7.46
-9.50
-9.40
-6.83
-2.08
4.00
10.36
16.02
20.19
22.30
21.88
18.74
13.13
5.97
-1.29
-7.12
-10.36
-10.69
-8.56
-4.87
-0.51
3.91
8.05
11.68
14.49
16.18
16.55
15.66
13.85
11.58
9.24
7.04
5.07
3.32
1.85
0.67
-0.34
-1.39
-2.76
-4.58
-6.70
-8.79
-10.50
-11.64
-12.29
-12.66
-12.88
-12.91
-12.48
-11.29
-9.19
-6.23
-2.66
1.30
5.49
9.89
14.48
19.16
23.68
27.67
30.73
32.52
32.91
31.91
29.71
26.58
22.76
18.45
13.78
8.86
3.88
-0.91
-5.24
-8.84
-11.59
-13.52
-14.79
-15.62
-16.22
-16.77
-17.39
-18.11
-18.86
-19.36
-19.16
-17.73
-14.68
-10.00
-4.19
1.89
7.31
11.45
14.23
16.05
17.54
19.16
20.95
22.51
23.23
22.58
20.36
16.78
12.36
7.69
3.26
-0.66
-3.96
-6.64
-8.75
-10.28
-11.28
-11.81
-12.00
-11.96
-11.77
-11.43
-10.90
-10.19
-9.30
-8.31
-7.24
-6.05
-4.59
-2.69
-0.25
2.71
5.96
9.18
12.00
14.22
15.79
16.91
17.87
19.06
20.77
23.18
26.24
29.66
32.89
35.24
35.99
34.60
30.84
24.80
16.91
7.81
-1.76
-11.02
-19.15
-25.41
-29.20
-30.25
-28.75
-25.34
-20.97
-16.67
-13.28
-11.25
-10.61
-10.92
-11.41
-11.21
-9.58
-6.20
-1.39
3.96
8.69
11.81
13.02
12.85
12.46
13.10
15.53
19.62
24.40
28.44
30.39
29.41
25.31
18.48
9.68
-0.16
-10.05
-19.00
-26.09
-30.63
-32.29
-31.24
-28.12
-23.84
-19.41
-15.64
-13.03
-11.67
-11.36
-11.64
-12.02
-12.08
-11.54
-10.30
-8.41
-6.08
-3.61
-1.34
0.41
1.47
1.91
2.07
2.51
3.81
6.32
10.12
14.84
19.75
23.97
26.68
27.39
25.95
22.56
17.66
11.88
5.87
0.16
-4.85
-8.88
-11.72
-13.27
-13.61
-12.97
-11.62
-9.96
-8.56
-7.94
-8.34
-9.50
-10.76
-11.28
-10.43
-7.58
-2.93
2.39
6.79
9.09
9.10
7.69
6.19
5.82
8.17
13.71
21.48
29.55
36.19
40.53
42.57
42.68
41.27
40.44
41.73
45.53
51.07
57.53
64.56
72.05
79.68
86.68
94.36
103.59
114.13
124.76
134.52
143.50
152.30
161.53
157.31
132.26
89.15
39.01
-8.02
-48.05
-81.58
-109.63
-131.79
-146.39
-149.91
-141.40
-124.08
-104.29
-88.26
-79.20
-76.67
-77.90
-79.75
-78.78
-73.90
-66.26
-58.12
-51.31
-46.12
-41.81
-37.57
-33.30
-28.77
-24.10
-19.74
-15.78
-12.32
-9.22
-6.44
-4.30
-3.52
-4.95
-8.08
-12.04
-15.24
-17.21
-18.13
-18.66
-19.44
-20.95
-24.04
-28.86
-34.70
-39.53
-42.70
-44.08
-43.84
-42.13
-39.51
-38.04
-39.45
-44.43
-51.46
-60.35
-70.57
-80.76
-88.57
-84.74
-65.08
-33.28
-4.37
17.91
32.39
40.57
43.46
42.83
40.37
36.06
29.75
21.56
13.06
3.34
-8.57
-22.66
-37.40
-50.70
-61.51
-69.17
-73.60
-69.28
-56.00
-38.12
-21.16
-7.71
2.63
9.73
14.91
18.74
22.26
24.95
26.57
27.49
28.37
29.60
30.87
31.84
32.10
32.12
31.67
30.77
29.89
29.84
31.18
33.87
37.64
40.51
41.26
39.29
35.37
30.85
26.68
22.94
19.12
15.57
12.06
9.27
7.97
8.65
11.19
14.80
18.49
20.94
21.50
20.10
17.55
14.81
12.56
10.99
9.94
9.18
8.55
8.15
8.04
8.45
9.57
11.44
13.97
16.98
20.14
22.95
24.86
25.34
24.22
21.70
18.15
13.92
9.21
4.04
-1.72
-8.16
-15.27
-22.80
-30.25
-36.81
-41.40
-42.81
-40.03
-32.68
-21.27
-7.25
7.30
20.23
29.77
34.85
35.27
31.56
24.79
16.29
7.39
-0.76
-7.39
-12.14
-14.99
-16.18
-16.08
-15.08
-13.51
-11.58
-9.39
-6.97
-4.36
-1.79
0.37
1.74
2.17
2.04
2.20
3.68
7.13
12.37
18.39
23.75
27.25
28.44
27.79
26.29
24.87
23.93
23.25
22.14
19.87
16.06
10.86
4.90
-0.93
-5.78
-9.09
-10.73
-10.85
-9.58
-6.73
-1.83
5.54
15.22
26.14
36.52
44.53
49.17
50.64
50.31
49.88
50.66
52.99
56.23
59.20
60.69
59.97
56.91
52.12
46.74
42.24
39.71
39.85
42.81
47.91
53.76
58.79
61.95
63.19
63.49
64.11
66.43
71.55
79.76
90.30
101.70
112.40
121.31
127.86
131.14
131.05
128.92
127.33
129.30
137.11
151.21
169.32
186.54
194.44
186.73
162.20
124.33
78.62
30.17
-17.54
-62.73
-104.97
-149.27
-198.31
-250.51
-302.15
-351.24
-398.46
-445.46
-492.69
-538.38
-586.02
-633.91
-673.86
-696.16
-696.53
-677.92
-647.45
-612.27
-577.27
-554.09
-546.74
-549.34
-551.97
-548.83
-540.25
-529.27
-517.49
-441.22
-278.34
-59.41
158.18
334.62
459.05
537.44
581.79
605.61
619.75
622.18
611.04
589.74
564.43
539.14
514.33
489.23
464.37
439.89
407.83
366.08
322.16
286.24
263.86
254.18
248.34
244.72
242.37
234.87
216.82
191.19
161.00
128.65
95.56
62.92
32.74
5.66
-20.94
-49.10
-79.05
-110.48
-142.91
-176.18
-210.19
-243.95
-276.58
-307.08
-332.89
-350.48
-357.69
-354.44
-342.89
-326.22
-306.54
-284.77
-260.30
-232.04
-199.75
-165.22
-131.43
-101.53
-77.80
-60.98
-50.70
-45.65
-44.04
-44.00
-44.34
-44.50
-44.53
-44.84
-45.76
-47.63
-50.83
-55.94
-63.47
-73.12
-82.93
-89.08
-86.90
-72.88
-46.62
-11.53
26.16
59.71
84.34
98.62
104.29
104.81
103.79
103.90
106.57
112.36
121.30
133.03
146.66
160.79
173.73
184.04
191.12
195.39
198.00
200.11
202.11
203.20
201.65
195.62
184.07
167.43
147.53
126.98
108.27
92.97
81.61
73.82
68.83
65.79
63.97
62.81
62.01
61.51
61.51
62.34
64.25
67.18
70.72
74.27
77.30
79.56
81.08
82.08
82.78
83.39
84.05
84.79
85.48
85.61
84.23
80.03
71.65
58.08
39.00
14.98
-12.72
-42.41
-72.37
-101.21
-127.95
-151.99
-173.09
-191.27
-206.99
-221.16
-235.00
-249.69
-265.84
-283.12
-300.12
-314.80
-325.14
-329.88
-328.88
-323.01
-313.48
-301.20
-286.30
-268.07
-245.43
-217.38
-183.35
-143.16
-97.02
-45.58
9.62
65.50
117.39
160.08
189.84
206.46
214.22
220.59
233.29
256.76
289.94
326.40
356.82
372.51
368.39
344.38
304.74
256.22
205.91
159.57
120.65
90.19
67.18
49.27
33.68
18.10
1.28
-16.73
-34.74
-50.85
-63.03
-69.72
-70.17
-64.58
-54.01
-40.03
-24.39
-8.90
4.65
14.68
19.95
19.94
15.02
6.39
-4.28
-15.42
-25.99
-35.51
-43.92
-51.17
-57.16
-61.79
-65.32
-68.47
-72.27
-77.64
-84.83
-93.34
-102.01
-109.50
-114.79
-117.37
-117.22
-114.58
-109.72
-102.75
-93.77
-82.82
-69.95
-55.18
-38.50
-20.03
-0.34
19.42
37.50
52.02
61.69
66.33
67.08
65.99
65.26
66.45
69.92
74.88
79.64
82.28
81.31
76.15
67.45
56.94
46.93
39.44
35.45
34.63
35.51
36.29
35.73
33.66
30.98
28.95
28.61
30.24
33.43
37.42
41.61
45.75
49.73
53.25
55.56
55.60
52.50
46.08
37.09
26.96
17.31
9.35
3.45
-0.89
-4.77
-9.45
-15.83
-23.97
-32.79
-40.29
-44.15
-42.77
-36.09
-26.00
-15.78
-9.02
-8.25
-14.12
-25.31
-39.22
-52.99
-64.43
-72.49
-77.09
-78.69
-77.67
-73.98
-67.23
-57.04
-43.53
-27.56
-10.58
5.90
20.90
34.22
46.20
57.07
66.40
73.03
75.52
72.87
65.04
53.03
38.58
23.61
9.81
-1.58
-9.79
-14.58
-16.22
-15.49
-13.56
-11.59
-10.43
-10.37
-11.08
-11.90
-12.04
-10.91
-8.10
-3.43
3.08
11.29
20.96
31.73
43.06
54.16
64.04
71.67
76.20
77.33
75.57
72.17
68.85
67.03
67.28
68.80
69.63
67.28
59.75
46.43
28.55
8.86
-9.33
-23.27
-31.73
-35.23
-35.68
-35.40
-36.34
-39.45
-44.68
-51.20
-57.82
-63.27
-66.36
-66.07
-61.63
-52.67
-39.44
-22.77
-4.01
15.24
33.45
49.39
62.30
71.85
78.10
81.33
81.90
80.22
76.69
71.74
65.69
58.53
49.78
38.65
24.44
7.31
-11.38
-29.20
-43.47
-52.27
-55.29
-53.75
-49.64
-44.81
-40.25
-36.12
-32.26
-28.67
-25.56
-23.12
-20.99
-18.23
-13.54
-5.94
4.74
17.69
31.34
43.82
53.43
58.93
59.80
56.30
49.55
41.35
33.88
29.03
27.69
29.28
31.66
31.65
25.97
12.50
-8.76
-35.33
-62.82
-86.12
-100.96
-105.11
-98.76
-84.04
-63.97
-41.41
-18.42
3.95
25.41
46.15
66.56
87.05
107.90
129.14
150.47
171.26
190.72
208.02
222.41
233.37
240.63
244.26
244.71
242.56
238.29
231.91
222.80
209.99
192.65
170.55
144.06
113.89
80.80
45.61
9.64
-24.82
-54.59
-76.41
-87.69
-87.08
-74.42
-50.61
-17.77
20.20
57.30
86.03
99.44
93.85
70.76
36.70
0.72
-29.34
-49.67
-61.30
-68.51
-76.11
-87.27
-102.82
-121.90
-143.19
-165.70
-188.79
-211.75
-233.29
-251.56
-264.88
-272.73
-276.42
-278.79
-283.24
-292.07
-305.18
-319.72
-330.89
-333.64
-324.43
-302.48
-269.91
-230.89
-190.23
-151.97
-118.46
-90.22
-66.37
-45.34
-25.57
-5.81
14.64
36.00
57.96
79.64
99.65
116.32
128.20
134.26
134.02
127.26
113.75
93.35
66.40
34.24
-0.51
-34.23
-63.21
-84.70
-97.73
-103.22
-103.43
-100.83
-97.19
-93.17
-88.43
-82.15
-73.62
-62.75
-50.10
-36.63
-23.30
-10.81
0.20
8.88
14.11
14.71
9.95
0.12
-13.33
-27.78
-40.38
-49.19
-53.92
-55.87
-57.17
-59.74
-64.39
-70.80
-77.35
-82.45
-85.94
-89.17
-93.90
-101.01
-109.94
-118.97
-126.69
-131.50
-132.89
-132.28
-132.36
-135.37
-142.20
-152.37
-164.32
-176.56
-185.69
-187.85
-181.02
-165.81
-144.57
-120.65
-97.43
-77.21
-61.02
-45.21
-23.43
9.52
55.72
114.51
182.41
254.18
328.27
387.87
415.46
408.03
376.61
334.83
292.18
252.12
214.73
178.98
143.71
111.12
84.87
66.47
53.23
43.11
34.22
26.04
18.64
11.39
5.16
1.63
1.79
5.91
15.98
30.60
46.76
60.35
67.49
67.63
63.26
57.65
52.95
49.62
46.44
42.14
36.29
29.15
22.51
18.10
16.42
16.70
17.55
17.52
16.16
13.85
11.37
9.70
9.40
10.46
12.85
15.48
17.59
19.03
20.19
21.70
24.26
28.23
33.25
38.05
40.52
38.56
30.97
18.32
2.65
-13.26
-26.99
-37.33
-44.42
-49.20
-52.47
-54.43
-54.48
-52.15
-47.59
-41.73
-35.88
-31.03
-27.36
-23.96
-21.11
-18.27
-15.13
-11.78
-8.65
-6.26
-4.94
-4.71
-5.27
-6.20
-6.86
-6.94
-6.48
-5.77
-5.17
-4.87
-4.80
-4.68
-4.17
-2.97
-1.20
0.65
1.88
1.90
0.50
-2.11
-5.34
-8.38
-10.38
-10.75
-9.32
-6.27
-2.07
2.76
7.72
12.46
16.72
20.40
23.40
25.66
27.19
28.06
28.38
28.19
27.43
25.95
23.63
20.43
16.40
11.71
6.56
1.25
-3.83
-8.16
-11.21
-12.58
-12.23
-10.58
-8.41
-6.64
-5.95
-6.54
-8.05
-9.68
-10.49
-9.70
-6.90
-2.21
3.82
10.36
16.49
21.45
24.70
26.04
25.57
23.62
20.76
17.62
14.80
12.77
11.66
11.31
11.30
11.15
10.50
9.28
7.73
6.25
5.20
4.74
4.70
4.66
4.09
2.60
0.06
-3.31
-6.98
-10.27
-12.57
-13.54
-13.29
-12.31
-11.31
-10.90
-11.31
-12.28
-13.21
-13.50
-12.81
-11.28
-9.34
-7.54
-6.19
-5.32
-4.71
-4.11
-3.40
-2.64
-1.95
-1.40
-0.88
-0.15
1.04
2.79
4.96
7.15
8.87
9.65
9.28
7.91
6.01
4.24
3.28
3.57
5.18
7.79
10.75
13.22
14.43
13.83
11.29
7.18
2.40
-1.86
-4.38
-4.32
-1.54
3.34
9.14
14.54
18.47
20.47
20.66
19.66
18.16
16.79
15.84
15.38
15.26
15.23
15.08
14.59
13.65
12.19
10.23
7.92
5.52
3.44
2.20
2.29
4.00
7.18
11.17
14.91
17.22
17.29
14.91
10.57
5.30
0.23
-3.71
-6.03
-6.63
-5.75
-3.78
-1.20
1.43
3.54
4.70
4.73
3.77
2.28
0.81
-0.18
-0.47
-0.12
0.70
1.82
3.20
4.84
6.64
8.29
9.34
9.38
8.32
6.49
4.51
3.00
2.23
2.00
1.68
0.56
-1.87
-5.75
-10.80
-16.45
-21.92
-26.32
-28.80
-28.72
-25.90
-20.74
-14.23
-7.60
-1.96
2.00
4.15
4.74
4.23
3.03
1.50
-0.09
-1.39
-2.05
-1.75
-0.33
2.11
5.24
8.57
11.58
13.89
15.38
16.16
16.56
16.88
17.26
17.53
17.37
16.42
14.48
11.64
8.12
4.18
0.08
-3.94
-7.57
-10.52
-12.59
-13.89
-14.90
-16.25
-18.41
-21.37
-24.54
-26.97
-27.80
-26.61
-23.56
-19.25
-14.41
-9.62
-5.19
-1.21
2.33
5.45
8.10
10.19
11.64
12.45
12.73
12.68
12.56
12.62
12.96
13.56
14.21
14.64
14.55
13.65
11.76
8.75
4.68
-0.12
-5.06
-9.33
-12.17
-13.18
-12.45
-10.53
-8.23
-6.17
-4.64
-3.48
-2.31
-0.81
1.11
3.23
5.21
6.77
7.84
8.56
9.18
9.87
10.69
11.46
11.94
11.90
11.21
9.94
8.27
6.47
4.78
3.38
2.34
1.66
1.22
0.78
0.06
-1.26
-3.41
-6.41
-9.92
-13.30
-15.67
-16.21
-14.51
-10.72
-5.64
-0.45
3.66
5.86
5.94
4.35
1.90
-0.52
-2.23
-2.95
-2.71
-1.78
-0.42
1.15
2.79
4.35
5.66
6.44
6.45
5.52
3.75
1.48
-0.79
-2.60
-3.71
-4.13
-4.11
-3.96
-3.94
-4.15
-4.61
-5.21
-5.83
-6.33
-6.51
-6.14
-4.99
-3.03
-0.42
2.45
5.07
7.01
8.04
8.22
7.80
7.09
6.33
5.61
4.93
4.27
3.66
3.19
2.98
3.08
3.38
3.65
3.59
3.02
1.96
0.67
-0.39
-0.79
-0.28
1.08
2.94
4.80
6.22
6.97
7.12
6.97
6.85
6.95
7.27
7.53
7.35
6.28
4.01
0.44
-4.16
-9.17
-13.71
-16.90
-18.11
-17.26
-14.81
-11.64
-8.70
-6.65
-5.67
-5.55
-5.82
-6.06
-6.01
-5.57
-4.72
-3.45
-1.72
0.52
3.17
5.96
8.46
10.19
10.82
10.30
8.88
7.02
5.23
3.87
3.04
2.57
2.16
1.50
0.43
-1.02
-2.67
-4.27
-5.55
-6.31
-6.41
-5.84
-4.67
-3.15
-1.58
-0.26
0.67
1.26
1.79
2.56
3.78
5.39
7.13
8.63
9.65
10.15
10.29
10.29
10.31
10.32
10.25
9.99
9.51
8.89
8.22
7.53
6.82
6.04
5.15
4.16
3.10
2.07
1.17
0.51
0.13
-0.05
-0.24
-0.79
-2.05
-4.16
-6.91
-9.66
-11.60
-12.04
-10.80
-8.30
-5.39
-2.95
-1.51
-1.04
-1.08
-1.07
-0.70
-0.00
0.72
1.18
1.34
1.36
1.53
1.99
2.65
3.20
3.29
2.68
1.39
-0.35
-2.24
-4.04
-5.68
-7.22
-8.79
-10.38
-11.77
-12.60
-12.49
-11.24
-9.01
-6.27
-3.62
-1.53
-0.17
0.67
1.40
2.40
3.84
5.68
7.76
9.90
12.04
14.16
16.23
18.12
19.59
20.39
20.33
19.38
17.66
15.41
12.95
10.63
8.75
7.54
7.10
7.38
8.18
9.28
10.45
11.53
12.40
12.91
12.91
12.30
11.14
9.61
8.04
6.69
5.65
4.76
3.69
2.06
-0.28
-3.22
-6.34
-9.04
-10.71
-10.91
-9.57
-6.97
-3.75
-0.69
1.50
2.36
1.87
0.40
-1.46
-3.08
-4.03
-4.21
-3.77
-3.02
-2.22
-1.49
-0.83
-0.14
0.63
1.50
2.36
3.09
3.52
3.52
2.96
1.78
0.03
-2.19
-4.66
-7.19
-9.57
-11.64
-13.31
-14.56
-15.42
-16.00
-16.43
-16.83
-17.20
-17.45
-17.41
-16.93
-15.94
-14.48
-12.60
-10.31
-7.46
-3.83
0.78
6.32
12.45
18.46
23.52
26.82
27.78
26.23
22.35
16.63
9.77
2.56
-4.21
-9.87
-14.01
-16.59
-17.92
-18.55
-19.02
-19.69
-20.60
-21.52
-22.10
-22.11
-21.48
-20.39
-19.15
-18.09
-17.41
-17.22
-17.46
-18.06
-18.85
-19.69
-20.36
-20.65
-20.38
-19.54
-18.35
-17.22
-16.58
-16.60
-17.11
-17.59
-17.49
-16.47
-14.64
-12.49
-10.63
-9.54
-9.34
-9.76
-10.37
-10.72
-10.53
-9.67
-8.17
-6.15
-3.78
-1.27
1.11
3.15
4.67
5.59
5.95
5.95
5.88
6.05
6.68
7.84
9.41
11.14
12.74
13.99
14.81
15.23
15.30
14.97
14.05
12.27
9.43
5.58
1.12
-3.25
-6.76
-8.78
-9.10
-7.91
-5.70
-3.00
-0.26
2.24
4.29
5.69
6.19
5.59
3.89
1.39
-1.33
-3.58
-4.71
-4.38
-2.56
0.40
3.93
7.40
10.22
12.05
12.81
12.67
12.00
11.21
10.56
10.16
9.91
9.66
9.25
8.59
7.73
6.78
5.87
5.09
4.44
3.82
3.03
1.70
-0.54
-4.02
-8.71
-14.12
-19.39
-23.42
-25.33
-24.69
-21.74
-17.22
-12.10
-7.20
-2.96
0.51
3.27
5.52
7.42
9.12
10.69
12.26
14.01
16.12
18.57
21.03
23.18
24.74
25.57
25.73
25.53
25.52
26.30
28.08
30.56
33.35
36.05
38.33
39.85
40.49
40.27
39.35
37.59
34.62
30.22
24.45
17.52
9.48
0.37
-10.39
-21.74
-31.66
-39.44
-45.26
-49.36
-50.74
-49.24
-45.38
-40.15
-34.50
-29.35
-25.31
-22.38
-20.22
-18.52
-17.26
-16.46
-15.97
-15.46
-14.78
-13.99
-13.20
-12.49
-11.94
-11.70
-11.76
-11.91
-11.83
-11.35
-10.46
-9.20
-7.65
-5.93
-4.33
-3.13
-2.56
-2.71
-3.55
-4.93
-6.53
-7.97
-8.87
-9.05
-8.46
-7.16
-5.29
-3.12
-0.94
1.07
2.88
4.57
6.33
8.22
10.13
11.72
12.56
12.34
11.07
9.10
6.93
5.01
3.53
2.32
1.05
-0.56
-2.62
-4.95
-7.27
-9.26
-10.71
-11.45
-11.35
-10.29
-8.18
-5.13
-1.52
2.04
4.88
6.52
6.82
6.06
4.70
3.19
1.65
-0.14
-2.62
-6.07
-10.34
-14.67
-17.90
-18.89
-17.05
-12.60
-6.49
-0.12
5.25
8.78
10.26
9.95
8.44
6.42
4.56
3.36
3.14
3.89
5.31
6.91
8.16
8.64
8.17
6.78
4.61
1.86
-1.26
-4.52
-7.67
-10.42
-12.54
-13.87
-14.40
-14.21
-13.42
-12.18
-10.61
-8.88
-7.21
-5.88
-5.15
-5.19
-5.93
-7.08
-8.20
-8.84
-8.68
-7.58
-5.60
-3.02
-0.21
2.47
4.69
6.27
7.26
7.85
8.38
9.09
10.08
11.26
12.48
13.63
14.69
15.78
17.13
18.92
21.22
23.97
26.99
30.16
33.34
36.19
38.30
39.26
38.82
36.93
33.71
29.34
24.17
18.54
12.62
6.63
0.95
-3.89
-7.47
-9.74
-10.99
-11.37
-10.94
-9.93
-8.58
-6.98
-5.11
-2.98
-0.60
2.05
5.50
10.43
16.84
24.22
31.73
38.48
43.53
46.10
43.31
34.13
20.57
6.18
-6.18
-15.40
-21.58
-25.27
-27.03
-27.49
-27.67
-27.35
-26.89
-26.92
-27.79
-29.65
-32.63
-37.04
-43.39
-51.76
-59.71
-65.48
-67.63
-65.16
-57.97
-47.10
-34.50
-22.52
-12.89
-6.12
-2.41
-1.62
-3.32
-6.99
-12.17
-17.65
-22.16
-26.22
-29.52
-31.08
-30.58
-28.27
-24.95
-21.76
-19.78
-19.84
-22.15
-25.97
-30.43
-34.73
-38.16
-40.13
-40.14
-37.80
-32.93
-25.62
-16.08
-5.07
6.28
16.83
25.72
32.57
37.43
40.60
42.41
43.30
43.55
43.30
42.73
42.01
41.25
40.43
39.38
37.94
36.16
34.22
32.40
30.91
29.80
28.87
27.77
26.24
24.25
22.13
20.40
19.55
19.82
21.15
23.18
25.33
26.98
27.58
26.83
24.79
21.93
19.08
17.14
16.88
18.61
22.14
26.79
31.49
35.06
36.44
34.94
30.55
23.93
16.24
8.80
2.65
-1.84
-4.87
-7.01
-8.74
-10.22
-11.25
-11.58
-11.11
-10.03
-8.67
-7.25
-5.72
-3.69
-0.72
3.47
8.73
14.51
20.00
24.55
27.88
30.16
31.85
33.37
34.87
36.03
36.28
34.96
31.66
26.35
19.43
11.56
3.51
-3.99
-10.33
-15.17
-18.44
-20.49
-22.05
-24.08
-27.42
-32.44
-38.75
-45.29
-50.65
-53.67
-53.95
-51.93
-48.69
-45.35
-42.56
-40.28
-37.95
-34.95
-30.98
-26.18
-20.91
-15.51
-10.06
-4.45
1.36
7.11
12.17
15.72
17.11
16.20
13.47
9.93
6.70
4.70
4.34
5.40
7.23
9.02
10.08
10.05
8.99
7.23
5.20
3.21
1.37
-0.40
-2.17
-3.88
-5.26
-5.98
-5.78
-4.69
-3.02
-1.25
0.18
1.08
1.51
1.66
1.73
1.81
1.89
1.90
1.80
1.60
1.36
1.15
1.04
1.12
1.44
2.03
2.85
3.80
4.75
5.62
6.38
7.06
7.67
8.13
8.37
8.31
8.01
7.64
7.46
7.64
8.20
9.01
9.83
10.44
10.74
10.70
10.37
9.77
8.94
7.92
6.77
5.63
4.65
3.87
3.22
2.49
1.41
-0.18
-2.29
-4.69
-7.01
-8.89
-10.14
-10.77
-10.99
-11.16
-11.58
-12.46
-13.86
-15.68
-17.72
-19.72
-21.33
-22.20
-22.09
-20.92
-18.85
-16.25
-13.54
-11.11
-9.19
-7.89
-7.22
-7.18
-7.78
-8.96
-10.57
-12.33
-13.91
-15.02
-15.54
-15.59
-15.42
-15.30
-15.34
-15.47
-15.49
-15.17
-14.38
-13.17
-11.71
-10.14
-8.49
-6.63
-4.34
-1.41
2.29
6.67
11.58
16.78
22.08
27.28
32.18
36.52
39.99
42.26
43.02
42.06
39.32
34.93
29.22
22.68
15.94
9.63
4.28
0.19
-2.62
-4.34
-5.27
-5.72
-5.88
-5.87
-5.76
-5.63
-5.57
-5.62
-5.84
-6.21
-6.70
-7.28
-7.90
-8.49
-8.93
-9.08
-8.83
-8.16
-7.12
-5.83
-4.44
-3.02
-1.66
-0.43
0.55
1.18
1.41
1.32
1.07
0.84
0.69
0.53
0.16
-0.57
-1.64
-2.81
-3.73
-4.11
-3.83
-2.97
-1.79
-0.54
0.52
1.16
1.13
0.26
-1.50
-3.87
-6.33
-8.22
-8.99
-8.51
-7.07
-5.28
-3.81
-3.15
-3.45
-4.60
-6.32
-8.23
-9.98
-11.25
-11.80
-11.46
-10.23
-8.22
-5.66
-2.82
-0.03
2.39
4.12
4.94
4.84
3.98
2.73
1.51
0.66
0.42
0.85
1.93
3.63
5.85
8.37
10.88
12.96
14.29
14.67
14.15
12.91
11.20
9.19
6.95
4.51
1.93
-0.70
-3.23
-5.50
-7.37
-8.80
-9.77
-10.36
-10.71
-10.98
-11.37
-11.97
-12.84
-13.91
-15.13
-16.51
-18.10
-19.94
-21.96
-23.89
-25.29
-25.68
-24.77
-22.62
-19.68
-16.63
-14.13
-12.61
-12.11
-12.31
-12.75
-12.99
-12.77
-12.07
-10.99
-9.72
-8.42
-7.21
-6.20
-5.46
-5.07
-5.03
-5.27
-5.63
-5.93
-6.02
-5.82
-5.35
-4.74
-4.16
-3.80
-3.81
-4.19
-4.81
-5.38
-5.55
-4.99
-3.53
-1.20
1.78
5.10
8.47
11.67
14.57
17.07
19.06
20.38
20.90
20.53
19.37
17.66
15.74
13.92
12.35
11.03
9.83
8.60
7.31
6.03
4.90
3.99
3.23
2.45
1.41
-0.04
-1.89
-4.01
-6.16
-8.04
-9.39
-9.98
-9.61
-8.23
-5.92
-2.93
0.33
3.43
6.01
7.86
8.96
9.38
9.28
8.81
8.11
7.28
6.43
5.62
4.91
4.27
3.68
3.09
2.49
1.90
1.39
1.00
0.77
0.68
0.68
0.71
0.65
0.40
-0.11
-0.84
-1.58
-1.98
-1.66
-0.36
1.90
4.77
7.74
10.33
12.27
13.54
14.31
14.76
14.98
14.93
14.53
13.72
12.55
11.16
9.71
8.32
6.99
5.66
4.22
2.66
1.01
-0.59
-2.03
-3.25
-4.27
-5.19
-6.14
-7.22
-8.51
-10.03
-11.71
-13.35
-14.63
-15.17
-14.66
-13.03
-10.51
-7.55
-4.74
-2.53
-1.16
-0.63
-0.81
-1.47
-2.39
-3.32
-4.07
-4.52
-4.71
-4.82
-5.21
-6.23
-8.11
-10.76
-13.85
-16.78
-18.91
-19.70
-18.94
-16.75
-13.55
-9.97
-6.66
-4.12
-2.68
-2.37
-2.98
-4.08
-5.13
-5.55
-4.88
-2.95
0.10
3.82
7.58
10.78
12.99
14.09
14.22
13.68
12.80
11.85
10.99
10.21
9.43
8.51
7.38
6.05
4.67
3.44
2.53
2.01
1.80
1.75
1.72
1.63
1.48
1.31
1.16
1.01
0.82
0.57
0.25
-0.12
-0.50
-0.80
-0.91
-0.63
0.25
1.87
4.23
7.20
10.51
13.89
17.11
20.04
22.58
24.64
26.07
26.75
26.65
25.82
24.47
22.85
21.23
19.80
18.63
17.66
16.69
15.45
13.73
11.43
8.70
5.87
3.35
1.51
0.54
0.46
1.15
2.43
4.05
5.73
7.23
8.41
9.25
9.89
10.56
11.39
12.39
13.40
14.23
14.74
14.90
14.75
14.33
13.64
12.66
11.41
9.98
8.50
7.00
5.42
3.60
1.48
-0.84
-3.07
-4.87
-6.05
-6.68
-7.12
-7.77
-8.93
-10.70
-12.99
-15.62
-18.40
-21.10
-23.40
-24.88
-25.08
-23.71
-20.82
-16.88
-12.61
-8.77
-5.89
-4.10
-3.18
-2.75
-2.47
-2.20
-2.02
-2.12
-2.64
-3.63
-4.93
-6.31
-7.50
-8.25
-8.38
-7.80
-6.47
-4.44
-1.91
0.77
3.13
4.63
4.82
3.50
0.77
-2.94
-6.99
-10.71
-13.60
-15.38
-15.97
-15.44
-13.95
-11.70
-9.00
-6.17
-3.60
-1.60
-0.30
0.35
0.53
0.43
0.21
-0.12
-0.56
-1.09
-1.57
-1.80
-1.57
-0.74
0.71
2.65
4.87
7.15
9.34
11.32
13.03
14.39
15.31
15.67
15.34
14.23
12.36
9.78
6.64
3.19
-0.31
-3.54
-6.29
-8.48
-10.22
-11.74
-13.34
-15.17
-17.21
-19.27
-21.08
-22.48
-23.51
-24.34
-25.14
-25.92
-26.47
-26.46
-25.67
-24.10
-22.04
-19.95
-18.23
-17.08
-16.47
-16.16
-15.95
-15.69
-15.39
-15.12
-14.96
-14.93
-15.01
-15.09
-15.09
-14.97
-14.73
-14.42
-14.03
-13.40
-12.23
-10.22
-7.23
-3.40
0.81
4.82
8.11
10.42
11.77
12.36
12.41
12.06
11.37
10.40
9.23
8.05
7.04
6.33
5.91
5.66
5.40
4.99
4.39
3.68
3.02
2.56
2.44
2.66
3.17
3.82
4.46
5.01
5.44
5.83
6.33
7.15
8.43
10.18
12.27
14.45
16.42
17.95
18.95
19.49
19.71
19.73
19.64
19.41
18.96
18.26
17.33
16.30
15.33
14.60
14.22
14.19
14.43
14.78
15.10
15.31
15.45
15.58
15.72
15.83
15.73
15.17
13.92
11.83
8.80
4.81
-0.06
-5.59
-11.40
-16.96
-21.80
-25.61
-28.44
-30.67
-32.80
-35.22
-38.01
-40.94
-43.62
-45.70
-47.04
-47.71
-47.94
-47.89
-47.60
-46.97
-45.87
-44.31
-42.50
-40.83
-39.65
-39.10
-38.98
-38.81
-38.00
-36.13
-33.05
-28.87
-23.87
-18.38
-12.72
-7.22
-2.16
2.29
6.20
9.89
13.86
18.50
23.94
29.91
35.85
41.22
45.77
49.68
53.45
57.70
62.79
68.69
74.89
80.55
84.65
86.26
84.73
79.85
71.95
61.85
50.71
39.78
30.05
22.08
15.92
11.23
7.47
4.11
0.78
-2.73
-6.46
-10.26
-13.83
-16.74
-18.53
-18.89
-17.75
-15.38
-12.29
-9.03
-6.02
-3.49
-1.49
0.04
1.11
1.73
1.83
1.43
0.63
-0.35
-1.23
-1.71
-1.60
-0.82
0.57
2.40
4.42
6.39
8.07
9.22
9.62
9.02
7.19
3.95
-0.67
-6.38
-12.60
-18.56
-23.42
-26.53
-27.57
-26.61
-24.06
-20.53
-16.69
-13.07
-9.99
-7.56
-5.71
-4.32
-3.30
-2.58
-2.14
-1.95
-1.97
-2.24
-2.75
-3.51
-4.42
-5.25
-5.71
-5.59
-4.82
-3.58
-2.21
-1.12
-0.57
-0.63
-1.16
-1.94
-2.78
-3.53
-4.13
-4.48
-4.49
-4.10
-3.28
-2.13
-0.79
0.61
2.06
3.65
5.53
7.82
10.43
13.13
15.61
17.60
19.01
19.88
20.35
20.53
20.50
20.30
20.01
19.66
19.23
18.54
17.29
15.18
12.09
8.14
3.71
-0.69
-4.67
-8.01
-10.73
-12.95
-14.79
-16.29
-17.36
-17.87
-17.62
-16.49
-14.44
-11.54
-7.96
-3.95
0.24
4.42
8.50
12.47
16.29
19.88
23.09
25.81
28.00
29.70
31.03
32.10
32.97
33.62
33.93
33.70
32.66
30.57
27.23
22.56
16.66
9.74
2.17
-5.66
-13.31
-20.40
-26.50
-31.23
-34.26
-35.39
-34.61
-32.09
-28.17
-23.31
-17.98
-12.61
-7.53
-2.95
1.06
4.52
7.44
9.74
11.17
11.33
9.78
6.29
1.03
-5.42
-12.17
-18.33
-23.28
-26.85
-29.17
-30.50
-31.04
-30.79
-29.75
-28.04
-26.03
-24.26
-23.21
-23.08
-23.68
-24.47
-24.73
-23.83
-21.46
-17.65
-12.84
-7.70
-2.90
1.04
3.91
5.81
6.98
7.75
8.38
9.06
9.90
10.93
12.09
13.24
14.16
14.66
14.70
14.38
13.91
13.48
13.19
13.02
12.86
12.58
12.08
11.33
10.36
9.31
8.37
7.80
7.87
8.70
10.12
11.70
12.93
13.42
13.07
12.14
11.07
10.58
11.12
12.70
14.69
16.11
16.03
13.89
9.76
4.31
-1.20
-5.53
-7.98
-8.55
-7.73
-6.06
-3.89
-1.43
1.26
4.41
8.19
12.53
17.16
21.87
26.71
31.81
37.07
39.87
37.84
30.23
18.47
4.91
-8.59
-20.87
-31.35
-39.87
-46.51
-51.16
-53.70
-54.21
-52.96
-50.28
-46.29
-41.03
-34.59
-27.29
-19.47
-11.64
-4.43
1.50
5.82
8.57
10.10
10.78
10.87
10.46
9.53
7.97
5.63
2.55
-0.99
-4.48
-7.30
-8.82
-8.62
-6.57
-2.98
1.44
5.89
9.66
12.38
14.00
14.67
14.48
13.40
11.25
7.86
3.20
-2.54
-8.99
-15.82
-22.03
-26.78
-29.41
-29.59
-27.39
-23.28
-18.04
-12.60
-7.86
-4.52
-3.08
-3.51
-5.35
-7.72
-9.63
-10.28
-9.30
-6.81
-3.37
0.17
2.84
3.79
2.53
-0.90
-5.85
-11.14
-15.47
-17.82
-17.86
-15.97
-13.00
-9.92
-7.41
-5.83
-5.26
-5.69
-7.05
-9.20
-11.88
-14.68
-17.15
-18.98
-20.12
-20.70
-20.95
-20.98
-20.72
-19.92
-18.29
-15.71
-12.33
-8.50
-4.64
-1.09
1.99
4.59
6.76
8.48
9.63
10.08
9.72
8.57
6.74
4.41
1.75
-1.15
-4.19
-7.24
-10.08
-12.47
-14.15
-14.99
-15.03
-14.42
-13.41
-12.21
-10.91
-9.45
-7.61
-5.14
-1.82
2.39
7.33
12.66
17.88
22.53
26.21
28.66
29.74
29.41
27.73
24.90
21.32
17.63
14.52
12.61
12.18
13.11
14.91
16.96
18.73
19.96
20.69
21.13
21.54
22.06
22.60
22.86
22.30
20.29
16.30
10.15
2.23
-6.47
-14.58
-20.74
-24.10
-24.50
-22.44
-18.83
-14.57
-10.35
-6.46
-2.94
0.33
3.48
6.65
9.92
13.40
17.08
20.86
24.44
27.34
29.06
29.25
27.84
25.04
21.15
16.44
11.04
4.99
-1.57
-8.24
-14.39
-19.23
-22.13
-22.76
-21.21
-17.92
-13.51
-8.67
-4.09
-0.42
1.87
2.59
1.99
0.67
-0.56
-0.99
-0.29
1.40
3.55
5.50
6.73
7.01
6.39
5.12
3.45
1.58
-0.31
-2.08
-3.60
-4.77
-5.55
-5.97
-6.09
-5.91
-5.40
-4.37
-2.66
-0.16
3.00
6.50
9.86
12.60
14.36
14.95
14.40
12.78
10.25
6.99
3.29
-0.48
-3.90
-6.60
-8.39
-9.30
-9.55
-9.43
-9.24
-9.15
-9.24
-9.45
-9.64
-9.57
-8.92
-7.45
-5.06
-1.93
1.48
4.57
6.79
7.87
7.92
7.35
6.74
6.59
7.17
8.53
10.48
12.76
15.05
17.03
18.40
18.95
18.60
17.48
15.92
14.39
13.35
13.11
13.77
15.19
17.11
19.28
21.54
23.91
26.53
29.48
32.70
35.81
38.14
38.95
37.68
34.29
29.35
23.99
19.58
17.26
17.60
20.31
24.35
28.24
30.49
29.93
26.03
18.93
9.39
-1.38
-11.97
-20.98
-27.30
-30.38
-30.34
-27.89
-24.16
-20.29
-17.20
-15.41
-15.08
-16.13
-18.40
-21.63
-25.43
-29.30
-32.71
-35.23
-36.63
-36.81
-35.75
-33.36
-29.53
-24.26
-17.81
-10.71
-3.65
2.74
8.07
12.22
15.23
17.13
17.88
17.46
15.94
13.63
10.94
8.27
5.79
3.45
1.04
-1.57
-4.34
-7.01
-9.17
-10.52
-10.95
-10.66
-10.07
-9.66
-9.83
-10.78
-12.45
-14.53
-16.59
-18.17
-18.91
-18.62
-17.28
-15.04
-12.16
-9.00
-5.96
-3.44
-1.76
-1.06
-1.27
-2.15
-3.36
-4.58
-5.52
-5.98
-5.86
-5.12
-3.83
-2.19
-0.45
1.17
2.58
3.82
5.06
6.41
7.92
9.47
10.81
11.72
12.02
11.69
10.91
10.02
9.46
9.64
10.77
12.67
14.83
16.46
16.83
15.44
12.23
7.56
2.13
-3.25
-7.84
-11.10
-12.78
-12.92
-11.85
-10.04
-7.94
-5.96
-4.30
-3.02
-2.08
-1.32
-0.53
0.55
2.19
4.58
7.73
11.35
14.89
17.62
18.83
18.11
15.53
11.68
7.48
3.91
1.64
0.88
1.32
2.35
3.37
3.95
3.93
3.31
2.15
0.53
-1.42
-3.51
-5.45
-6.96
-7.82
-7.98
-7.54
-6.70
-5.63
-4.49
-3.34
-2.16
-0.93
0.35
1.65
2.87
3.90
4.61
4.98
5.09
5.23
5.77
7.16
9.76
13.81
19.39
26.37
34.42
42.94
51.03
57.62
61.63
62.25
59.17
52.68
43.55
32.80
21.50
10.56
0.75
-7.30
-13.12
-16.50
-17.63
-17.05
-15.56
-13.97
-12.92
-12.78
-13.67
-15.57
-18.43
-22.10
-26.27
-30.48
-34.07
-36.41
-37.07
-35.90
-33.14
-29.26
-24.88
-20.57
-16.80
-13.87
-11.94
-11.01
-10.96
-11.59
-12.66
-13.97
-15.39
-16.89
-18.46
-20.05
-21.49
-22.56
-23.04
-22.86
-22.13
-21.14
-20.29
-19.81
-19.72
-19.83
-19.93
-19.93
-19.96
-20.28
-21.13
-22.56
-24.21
-25.34
-25.13
-22.89
-18.29
-11.53
-3.20
5.76
14.22
21.24
26.34
29.39
30.62
30.40
29.18
27.52
25.82
23.95
21.82
19.41
16.53
12.93
8.52
3.51
-1.12
-4.49
-6.66
-7.71
-7.64
-6.69
-5.15
-3.21
-1.03
1.79
5.22
7.87
9.24
9.96
11.08
13.76
18.86
26.54
37.04
49.56
61.41
70.88
77.63
81.64
83.08
82.10
73.59
56.12
38.92
24.81
12.17
0.70
-10.00
-20.26
-30.21
-39.53
-46.64
-50.32
-51.48
-50.67
-47.95
-43.75
-38.57
-32.72
-26.20
-18.15
-8.09
2.74
13.56
24.08
33.79
42.05
47.99
50.68
50.59
49.40
47.01
43.17
38.32
33.21
28.70
25.53
24.09
24.57
26.50
28.59
29.92
30.14
29.23
27.38
24.90
22.17
19.59
17.35
15.15
12.79
10.22
7.40
4.31
0.98
-2.50
-5.95
-9.15
-11.87
-13.72
-14.35
-13.67
-11.96
-9.83
-7.99
-7.02
-7.18
-8.40
-10.38
-12.80
-15.51
-18.59
-22.20
-26.39
-31.02
-35.72
-40.09
-43.76
-46.59
-48.55
-49.59
-49.59
-48.31
-45.58
-41.52
-36.50
-31.06
-25.67
-20.47
-15.35
-10.05
-4.47
1.20
6.59
11.35
15.43
19.04
22.50
25.88
28.79
30.51
30.24
27.54
22.52
15.81
8.20
0.30
-7.81
-16.57
-26.65
-38.58
-52.44
-67.79
-83.75
-99.30
-113.46
-125.45
-134.74
-141.08
-144.44
-145.07
-143.42
-140.11
-135.66
-130.46
-124.70
-118.37
-111.47
-104.05
-96.28
-88.35
-80.28
-71.91
-62.91
-52.91
-41.70
-29.43
-16.54
-3.67
8.58
19.89
30.32
40.21
49.99
59.98
70.18
80.25
89.50
97.07
102.08
103.78
101.80
96.25
87.81
77.60
66.94
57.06
48.78
42.42
37.82
34.56
32.15
30.12
28.18
26.13
24.02
22.08
20.77
20.63
22.04
25.01
29.02
33.16
36.42
38.07
37.89
36.20
33.62
30.85
28.47
26.78
25.79
25.24
24.57
23.05
19.98
14.97
8.22
0.53
-6.93
-13.01
-16.93
-18.41
-17.69
-15.31
-12.04
-8.73
-6.24
-5.29
-6.17
-8.67
-12.03
-15.24
-17.35
-17.86
-16.75
-14.46
-11.57
-8.65
-6.12
-4.31
-3.41
-3.47
-4.30
-5.50
-6.55
-7.00
-6.67
-5.66
-4.29
-2.85
-1.47
-0.04
1.58
3.46
5.45
7.27
8.66
9.55
10.09
10.50
11.00
11.62
12.21
12.55
12.37
11.58
10.29
8.85
7.79
7.72
9.07
11.89
15.82
20.20
24.30
27.57
29.75
30.85
31.01
30.39
29.08
27.21
24.91
22.41
19.93
17.58
15.39
13.22
10.88
8.21
5.11
1.62
-2.10
-5.80
-9.21
-12.10
-14.45
-16.40
-18.25
-20.34
-22.84
-25.64
-28.30
-30.15
-30.50
-28.90
-25.30
-20.07
-13.95
-7.73
-2.15
2.28
5.30
6.84
6.98
5.92
3.96
1.50
-1.03
-3.24
-4.90
-6.01
-6.72
-7.27
-7.83
-8.43
-8.96
-9.22
-9.09
-8.58
-7.84
-7.10
-6.62
-6.56
-7.00
-7.90
-9.09
-10.25
-10.87
-10.44
-8.52
-5.01
-0.17
5.40
10.96
15.90
19.79
22.45
23.80
23.82
22.56
20.18
17.05
13.72
10.81
8.76
7.73
7.52
7.66
7.64
7.12
5.99
4.45
2.80
1.36
0.27
-0.59
-1.52
-2.95
-5.22
-8.48
-12.55
-16.95
-20.96
-23.81
-24.89
-23.84
-20.70
-15.85
-9.94
-3.71
2.08
6.87
10.29
12.29
13.04
12.90
12.28
11.50
10.77
10.13
9.55
8.98
8.37
7.69
6.90
5.98
4.91
3.77
2.66
1.70
0.89
0.12
-0.80
-2.03
-3.61
-5.44
-7.32
-9.04
-10.35
-11.03
-10.80
-9.34
-6.45
-2.13
3.31
9.27
15.05
20.02
23.76
26.12
27.11
26.78
25.20
22.48
18.82
14.62
10.34
6.44
3.19
0.61
-1.40
-2.98
-4.17
-4.91
-5.14
-4.93
-4.62
-4.67
-5.54
-7.46
-10.42
-14.14
-18.22
-22.18
-25.49
-27.58
-27.96
-26.37
-22.91
-18.12
-12.83
-7.91
-4.09
-1.70
-0.76
-0.98
-1.99
-3.38
-4.75
-5.72
-5.99
-5.40
-3.97
-2.01
0.03
1.68
2.60
2.73
2.30
1.66
1.09
0.65
0.13
-0.84
-2.64
-5.46
-9.28
-13.80
-18.52
-22.69
-25.58
-26.51
-25.14
-21.57
-16.31
-10.16
-3.97
1.55
5.93
9.00
10.80
11.52
11.48
11.07
10.68
10.59
10.91
11.51
12.08
12.25
11.73
10.41
8.51
6.46
4.86
4.25
4.94
6.81
9.35
11.75
13.14
12.97
11.17
8.33
5.45
3.68
3.88
6.28
10.43
15.34
19.88
23.14
24.70
24.58
23.11
20.72
17.76
14.56
11.48
8.97
7.55
7.63
9.23
11.93
14.87
17.01
17.56
16.26
13.48
10.08
7.11
5.41
5.35
6.76
9.05
11.37
12.80
12.42
9.50
3.62
-5.08
-15.74
-26.85
-36.52
-43.07
-45.56
-44.06
-39.64
-33.86
-28.27
-23.94
-21.33
-20.40
-20.84
-22.31
-24.44
-26.84
-29.12
-30.91
-32.05
-32.69
-33.32
-34.53
-36.75
-40.03
-44.01
-47.97
-51.21
-53.19
-53.74
-53.05
-51.58
-49.89
-48.40
-47.30
-46.34
-44.96
-42.38
-37.84
-30.86
-21.47
-10.17
2.12
14.35
25.58
35.12
42.56
47.74
50.64
51.32
49.94
46.81
42.43
37.40
32.40
27.89
24.10
20.94
18.14
15.41
12.60
9.78
7.17
4.98
3.26
1.79
0.11
-2.32
-5.93
-10.83
-16.73
-22.90
-28.30
-31.82
-32.50
-29.83
-23.92
-15.46
-5.53
4.58
13.78
21.23
26.49
29.44
30.20
29.10
26.67
23.59
20.61
18.39
17.35
17.52
18.61
20.12
21.50
22.32
22.34
21.46
19.69
17.07
13.71
9.68
5.11
0.09
-5.34
-11.11
-17.13
-23.10
-28.52
-32.61
-34.56
-33.70
-29.80
-23.22
-14.89
-6.12
1.77
7.79
11.48
12.97
12.81
11.67
10.21
8.86
7.84
7.19
6.85
6.78
7.01
7.58
8.52
9.69
10.79
11.34
10.91
9.28
6.56
3.14
-0.47
-3.85
-6.82
-9.39
-11.66
-13.74
-15.71
-17.71
-19.89
-22.35
-24.96
-27.29
-28.56
-27.90
-24.70
-18.83
-10.80
-1.56
7.83
16.51
24.01
30.20
35.11
38.80
41.20
42.15
41.64
39.82
37.13
34.22
31.70
30.01
29.19
28.96
28.84
28.43
27.56
26.29
24.80
23.13
21.01
17.96
13.43
7.11
-0.82
-9.66
-18.30
-25.38
-29.64
-30.07
-26.19
-18.19
-6.98
5.86
18.37
28.66
35.38
38.04
37.09
33.73
29.38
25.26
22.04
19.86
18.46
17.50
16.75
16.15
15.70
15.39
15.11
14.72
14.06
13.03
11.62
9.85
7.80
5.52
3.07
0.51
-2.11
-4.75
-7.46
-10.41
-13.89
-18.22
-23.53
-29.49
-35.21
-39.39
-40.75
-38.58
-33.01
-25.02
-16.11
-7.75
-1.09
3.26
5.03
4.29
1.29
-3.38
-8.89
-14.20
-18.37
-20.84
-21.52
-20.82
-19.41
-17.93
-16.86
-16.41
-16.65
-17.48
-18.79
-20.41
-22.20
-23.97
-25.56
-26.83
-27.75
-28.41
-29.03
-29.99
-31.63
-34.05
-36.94
-39.50
-40.55
-38.88
-33.66
-24.78
-12.98
0.37
13.65
25.45
34.83
41.39
45.23
46.69
46.27
44.55
42.16
39.72
37.76
36.58
36.19
36.37
36.74
36.88
36.43
35.11
32.76
29.39
25.19
20.50
15.73
11.22
7.12
3.42
-0.03
-3.43
-6.91
-10.44
-13.82
-16.69
-18.54
-18.78
-16.98
-13.00
-7.22
-0.43
6.31
12.00
16.02
18.25
19.00
18.83
18.28
17.69
17.19
16.79
16.48
16.28
16.25
16.33
16.29
15.75
14.35
11.91
8.58
4.89
1.48
-1.09
-2.65
-3.40
-3.84
-4.57
-6.02
-8.45
-11.95
-16.47
-21.88
-27.85
-33.82
-39.01
-42.52
-43.56
-41.67
-36.82
-29.44
-20.27
-10.27
-0.36
8.62
16.11
21.80
25.63
27.74
28.30
27.49
25.44
22.25
18.13
13.29
7.99
2.43
-3.28
-9.10
-14.94
-20.60
-25.76
-30.00
-32.94
-34.39
-34.39
-33.27
-31.54
-29.85
-28.77
-28.72
-29.87
-32.02
-34.66
-36.93
-37.82
-36.42
-32.13
-24.99
-15.68
-5.35
4.71
13.48
20.38
25.37
28.59
30.22
30.25
28.62
25.42
21.06
16.39
12.39
9.90
9.31
10.46
12.70
15.23
17.39
18.84
19.56
19.64
19.16
17.95
15.67
11.84
6.11
-1.63
-11.12
-21.78
-32.70
-42.80
-50.91
-55.94
-56.99
-53.61
-45.96
-34.87
-21.76
-8.32
3.90
13.76
20.76
24.92
26.61
26.30
24.43
21.39
17.66
13.78
10.37
7.94
6.75
6.69
7.32
8.04
8.31
7.90
6.87
5.54
4.28
3.33
2.65
2.03
1.17
-0.20
-2.23
-4.94
-8.17
-11.56
-14.47
-16.05
-15.48
-12.23
-6.35
1.47
10.06
18.20
24.94
29.85
32.89
34.22
33.99
32.32
29.38
25.51
21.27
17.31
14.12
11.86
10.33
9.11
7.74
5.94
3.62
0.93
-1.88
-4.59
-7.03
-9.22
-11.33
-13.60
-16.28
-19.50
-23.27
-27.43
-31.65
-35.36
-37.78
-38.04
-35.39
-29.52
-20.81
-10.28
0.66
10.65
18.70
24.38
27.72
28.99
28.56
26.73
23.86
20.31
16.54
12.94
9.79
7.15
4.85
2.59
0.10
-2.75
-5.82
-8.78
-11.19
-12.70
-13.20
-12.82
-11.93
-11.01
-10.54
-10.92
-12.39
-14.97
-18.35
-21.87
-24.57
-25.37
-23.42
-18.43
-10.79
-1.47
8.26
17.27
24.82
30.64
34.75
37.25
38.25
37.82
36.08
33.35
30.09
26.75
23.67
20.93
18.43
15.95
13.30
10.39
7.24
4.02
0.93
-1.81
-4.05
-5.73
-6.93
-7.92
-9.03
-10.65
-13.09
-16.46
-20.64
-25.14
-29.23
-31.98
-32.55
-30.36
-25.37
-18.07
-9.39
-0.46
7.68
14.25
18.81
21.17
21.40
19.72
16.52
12.31
7.71
3.35
-0.35
-3.20
-5.32
-7.03
-8.73
-10.70
-13.05
-15.65
-18.26
-20.61
-22.51
-23.99
-25.18
-26.31
-27.62
-29.32
-31.52
-34.17
-36.96
-39.23
-40.08
-38.58
-34.17
-26.88
-17.50
-7.33
2.26
10.26
16.24
20.30
22.72
23.73
23.35
21.57
18.55
14.78
10.94
7.72
5.45
4.00
2.84
1.27
-1.24
-4.85
-9.33
-14.18
-18.87
-23.03
-26.56
-29.62
-32.56
-35.83
-39.84
-44.79
-50.55
-56.44
-61.26
-63.50
-61.75
-55.20
-43.98
-29.10
-12.18
5.09
21.31
35.52
47.02
55.28
59.84
60.40
57.12
50.72
42.38
33.41
24.93
17.51
11.13
5.36
-0.36
-6.42
-12.92
-19.57
-25.90
-31.35
-35.55
-38.41
-40.17
-41.39
-42.76
-44.90
-48.16
-52.44
-57.19
-61.50
-64.27
-64.48
-61.36
-54.67
-44.70
-32.31
-18.70
-5.21
6.97
17.01
24.54
29.60
32.59
34.07
34.65
34.85
35.04
35.41
36.07
37.09
38.51
40.34
42.46
44.55
46.14
46.77
46.18
44.50
42.13
39.64
37.45
35.67
34.06
32.21
29.70
26.32
22.12
17.49
13.01
9.45
7.59
8.04
11.05
16.42
23.50
31.40
39.20
46.19
51.93
56.23
59.08
60.55
60.78
60.04
58.71
57.24
55.94
54.88
53.81
52.28
49.81
46.14
41.33
35.71
29.73
23.78
18.05
12.59
7.37
2.37
-2.33
-6.61
-10.38
-13.55
-16.02
-17.60
-17.99
-16.83
-13.84
-9.09
-3.03
3.49
9.50
14.22
17.27
18.74
18.96
18.28
16.91
14.81
11.92
8.31
4.27
0.28
-3.18
-5.81
-7.55
-8.53
-8.94
-8.93
-8.60
-8.14
-7.88
-8.34
-10.06
-13.39
-18.40
-24.80
-32.08
-39.68
-47.00
-53.40
-58.14
-60.43
-59.67
-55.68
-48.90
-40.31
-31.19
-22.70
-15.58
-10.08
-6.04
-3.13
-1.00
0.64
2.06
3.49
5.15
7.12
9.31
11.43
13.15
14.11
14.13
13.20
11.48
9.26
6.88
4.68
2.93
1.73
1.02
0.48
-0.32
-1.85
-4.36
-7.78
-11.59
-14.94
-16.90
-16.74
-14.23
-9.67
-3.85
2.20
7.52
11.44
13.64
14.12
13.10
10.90
7.87
4.36
0.67
-2.90
-6.13
-8.86
-11.01
-12.63
-13.92
-15.28
-17.15
-19.94
-23.74
-28.28
-32.90
-36.78
-39.11
-39.39
-37.50
-33.69
-28.37
-22.01
-15.00
-7.68
-0.35
6.68
13.18
19.06
24.38
29.19
33.33
36.24
37.16
35.44
31.00
24.55
17.41
10.91
5.93
2.60
0.63
-0.33
-0.25
1.16
4.13
8.52
13.67
18.76
23.11
26.45
28.87
30.55
31.65
32.24
32.40
32.22
31.67
30.47
28.04
23.77
17.38
9.17
-0.15
-9.72
-18.94
-27.48
-35.07
-41.19
-45.00
-45.69
-43.00
-37.69
-31.49
-26.50
-24.35
-25.56
-29.37
-34.25
-38.58
-41.31
-42.11
-41.22
-38.98
-35.59
-31.04
-25.48
-19.40
-13.70
-9.36
-6.91
-6.06
-5.64
-4.12
-0.36
5.88
13.77
21.91
29.01
34.47
38.55
42.14
46.25
51.60
58.38
66.32
74.76
82.81
89.48
93.91
95.55
94.31
90.46
84.47
76.80
67.89
58.18
48.24
38.73
30.11
22.43
15.27
8.08
0.61
-6.76
-13.16
-17.84
-20.66
-22.32
-24.00
-26.59
-30.17
-33.94
-36.62
-37.11
-34.94
-30.35
-24.03
-16.78
-9.24
-1.95
4.59
9.78
12.90
13.14
9.82
2.65
-7.91
-20.54
-33.31
-44.34
-52.47
-57.75
-61.36
-64.88
-69.53
-75.54
-82.11
-87.97
-92.07
-94.09
-94.48
-94.02
-93.38
-92.77
-91.89
-90.27
-87.57
-83.75
-79.06
-73.76
-67.88
-61.14
-53.13
-43.60
-32.62
-20.75
-8.77
2.49
12.43
20.73
27.34
32.30
35.73
37.71
38.34
37.77
36.28
34.28
32.21
30.48
29.33
28.65
28.11
27.21
25.57
23.05
19.77
16.06
12.22
8.42
4.70
1.05
-2.43
-5.50
-7.83
-9.03
-8.83
-7.03
-3.50
1.88
9.16
18.28
28.92
40.41
51.68
61.40
68.21
70.96
69.09
62.70
52.53
39.82
26.00
12.39
0.06
-10.33
-18.50
-24.51
-28.64
-31.33
-33.10
-34.43
-35.75
-37.35
-39.46
-42.19
-45.60
-49.61
-53.97
-58.16
-61.43
-62.93
-61.95
-58.20
-51.87
-43.67
-34.60
-25.59
-17.30
-10.00
-3.64
1.94
6.89
11.27
15.13
18.61
21.97
25.53
29.55
34.10
38.99
43.81
48.09
51.49
53.92
55.53
56.65
57.59
58.51
59.39
60.06
60.24
59.65
58.05
55.25
51.21
46.19
40.70
35.54
31.49
29.13
28.54
29.39
31.04
32.88
34.45
35.49
35.82
35.26
33.66
31.00
27.48
23.44
19.13
14.58
9.55
3.70
-3.26
-11.35
-20.39
-29.97
-39.55
-48.47
-55.95
-61.32
-64.12
-64.41
-62.75
-60.08
-57.32
-55.08
-53.44
-52.05
-50.28
-47.50
-43.20
-37.15
-29.49
-20.74
-11.73
-3.41
3.49
8.66
12.29
14.91
17.08
19.12
20.92
22.02
21.85
19.92
16.01
10.16
2.65
-6.01
-15.07
-23.57
-30.49
-35.05
-36.97
-36.69
-35.17
-33.61
-33.01
-33.87
-36.06
-38.99
-41.83
-43.70
-43.88
-41.86
-37.47
-30.96
-22.93
-14.22
-5.65
2.20
9.17
15.45
21.37
27.18
32.83
37.86
41.57
43.21
42.32
38.93
33.64
27.44
21.43
16.52
13.19
11.54
11.32
12.15
13.61
15.27
16.72
17.59
17.57
16.57
14.71
12.35
9.99
8.17
7.30
7.51
8.67
10.44
12.41
14.27
15.90
17.35
18.68
19.92
20.92
21.51
21.55
21.04
20.19
19.24
18.48
18.03
17.89
17.93
18.02
18.10
18.13
18.16
18.19
18.19
18.11
17.87
17.41
16.71
15.66
14.06
11.61
8.04
3.31
-2.23
-7.79
-12.38
-15.06
-15.33
-13.29
-9.60
-5.20
-1.00
2.33
4.50
5.52
5.59
4.99
4.08
3.27
3.00
3.58
5.14
7.45
10.01
12.17
13.42
13.53
12.63
11.14
9.57
8.30
7.46
6.86
6.07
4.62
2.14
-1.41
-5.64
-9.82
-13.06
-14.68
-14.45
-12.71
-10.23
-7.89
-6.36
-5.86
-6.28
-7.27
-8.45
-9.56
-10.44
-10.97
-11.11
-10.80
-10.07
-8.92
-7.40
-5.53
-3.33
-0.88
1.60
3.83
5.53
6.54
6.88
6.75
6.39
5.96
5.58
5.30
5.21
5.42
6.00
6.88
7.83
8.53
8.76
8.49
7.92
7.37
7.11
7.21
7.57
7.96
8.18
8.12
7.79
7.23
6.44
5.39
3.98
2.18
0.04
-2.28
-4.56
-6.62
-8.38
-9.89
-11.33
-12.84
-14.42
-15.96
-17.26
-18.13
-18.53
-18.53
-18.26
-17.78
-17.04
-15.85
-14.05
-11.54
-8.39
-4.78
-0.93
2.95
6.64
9.94
12.58
14.32
14.98
14.54
13.19
11.29
9.32
7.72
6.84
6.83
7.70
9.31
11.43
13.82
16.19
18.24
19.63
20.02
19.13
16.79
13.08
8.31
2.98
-2.30
-6.91
-10.41
-12.45
-12.89
-11.73
-9.17
-5.59
-1.55
2.31
5.40
7.26
7.69
6.67
4.33
0.90
-3.32
-7.91
-12.40
-16.28
-19.14
-20.79
-21.27
-20.80
-19.67
-18.07
-16.11
-13.80
-11.17
-8.39
-5.79
-3.78
-2.67
-2.58
-3.32
-4.43
-5.36
-5.58
-4.80
-2.99
-0.40
2.60
5.57
8.12
9.96
10.97
11.18
10.81
10.22
9.74
9.58
9.72
9.87
9.65
8.71
6.92
4.43
1.56
-1.32
-3.91
-6.06
-7.74
-8.98
-9.82
-10.32
-10.55
-10.67
-10.85
-11.24
-11.83
-12.50
-12.95
-12.86
-11.95
-10.17
-7.69
-4.89
-2.28
-0.30
0.80
1.01
0.57
-0.13
-0.74
-1.00
-0.83
-0.26
0.58
1.55
2.48
3.21
3.62
3.66
3.38
2.94
2.57
2.50
2.89
3.79
5.20
7.05
9.25
11.71
14.31
16.95
19.53
21.91
23.95
25.40
26.01
25.50
23.74
20.73
16.65
11.82
6.57
1.17
-4.20
-9.43
-14.41
-19.00
-22.99
-26.10
-28.11
-28.90
-28.50
-27.12
-25.10
-22.87
-20.79
-19.12
-17.96
-17.24
-16.76
-16.19
-15.20
-13.50
-10.94
-7.54
-3.50
0.88
5.26
9.35
12.91
15.80
17.97
19.45
20.41
21.04
21.53
21.92
22.04
21.57
20.10
17.33
13.17
7.83
1.77
-4.45
-10.26
-15.22
-19.00
-21.44
-22.54
-22.45
-21.41
-19.74
-17.76
-15.77
-14.01
-12.65
-11.77
-11.40
-11.51
-12.03
-12.89
-14.04
-15.40
-16.84
-18.05
-18.60
-17.94
-15.63
-11.59
-6.15
-0.05
5.74
10.35
13.22
14.16
13.42
11.49
9.06
6.87
5.54
5.52
6.90
9.40
12.42
15.20
17.10
17.69
16.92
14.97
12.19
8.86
5.18
1.20
-3.06
-7.58
-12.20
-16.62
-20.43
-23.17
-24.49
-24.20
-22.45
-19.64
-16.37
-13.26
-10.75
-8.99
-7.81
-6.83
-5.68
-4.11
-2.14
0.08
2.35
4.51
6.53
8.45
10.26
11.92
13.27
14.16
14.43
14.03
13.02
11.52
9.69
7.64
5.42
3.08
0.71
-1.53
-3.37
-4.51
-4.69
-3.74
-1.66
1.37
5.05
9.02
12.89
16.43
19.52
22.27
24.88
27.53
30.27
32.90
35.06
36.38
36.70
36.20
35.43
35.11
35.89
38.12
41.66
45.99
50.29
53.68
55.44
55.14
52.75
48.63
43.43
37.88
32.55
27.61
22.74
17.29
10.59
2.31
-7.39
-17.83
-28.09
-37.32
-44.91
-50.56
-54.18
-55.86
-55.76
-54.22
-51.68
-48.70
-45.82
-43.47
-41.89
-41.17
-41.30
-42.20
-43.81
-46.13
-49.22
-53.13
-57.75
-62.63
-66.97
-69.75
-70.07
-67.53
-62.38
-55.48
-47.89
-40.52
-33.75
-27.52
-21.47
-15.26
-8.71
-1.87
5.10
11.97
18.46
24.22
28.87
31.99
33.32
32.79
30.70
27.62
24.29
21.47
19.70
19.22
19.92
21.42
23.26
25.02
26.51
27.72
28.75
29.65
30.39
30.85
31.04
31.19
31.79
33.40
36.45
40.99
46.70
52.91
58.81
63.60
66.53
66.99
64.72
59.87
53.23
46.11
40.02
36.21
35.27
36.97
40.37
44.25
47.45
49.10
48.68
45.88
40.53
32.46
21.73
8.73
-5.83
-21.15
-36.45
-51.18
-64.96
-77.63
-89.14
-99.35
-107.89
-114.14
-117.43
-117.13
-112.81
-104.41
-92.33
-77.63
-61.58
-45.30
-29.64
-15.26
-2.66
7.86
16.23
22.67
27.05
29.78
31.93
34.69
38.67
43.65
48.77
52.87
54.89
52.74
45.47
33.87
19.90
5.48
-8.05
-19.92
-29.80
-37.71
-46.04
-56.26
-67.99
-79.73
-90.47
-100.29
-109.73
-119.21
-128.68
-140.35
-154.68
-169.60
-181.81
-189.13
-191.31
-189.24
-184.14
-159.83
-111.92
-50.47
7.84
52.64
82.44
100.34
110.50
116.44
120.62
121.66
118.72
112.92
106.53
101.06
96.49
92.23
87.68
82.63
75.18
64.69
52.57
41.24
32.47
26.71
23.69
22.88
23.67
24.03
22.56
19.21
14.74
10.85
8.17
6.91
6.98
8.07
9.05
9.17
8.53
7.97
8.39
10.04
12.58
15.21
17.00
17.19
15.91
14.16
13.40
14.60
17.71
21.78
25.47
27.61
27.76
26.29
24.24
22.90
23.30
25.93
30.79
37.60
46.02
55.68
65.97
75.72
83.17
86.27
83.40
73.92
58.43
38.46
15.87
-7.76
-31.31
-54.08
-75.47
-94.91
-112.12
-127.54
-142.36
-158.19
-176.06
-195.54
-214.25
-228.32
-233.60
-227.23
-208.73
-180.24
-145.76
-109.76
-75.84
-46.01
-20.81
0.03
17.01
30.40
40.45
47.55
52.49
56.35
60.21
64.84
70.44
76.69
82.95
88.46
92.63
95.16
96.03
95.45
93.66
90.86
87.14
82.59
77.40
71.94
66.75
62.33
58.95
56.52
54.60
52.60
50.14
47.15
43.96
41.06
38.83
37.29
36.12
34.82
33.03
30.65
27.94
25.40
23.55
22.78
23.30
25.09
27.97
31.62
35.63
39.50
42.73
44.90
45.69
44.98
42.84
39.49
35.28
30.55
25.65
20.83
16.28
12.07
8.18
4.47
0.79
-3.04
-7.11
-11.42
-15.90
-20.40
-24.79
-28.91
-32.60
-35.69
-38.01
-39.46
-40.03
-39.79
-38.85
-37.31
-35.23
-32.57
-29.27
-25.25
-20.50
-15.10
-9.28
-3.35
2.31
7.32
11.35
14.09
15.32
14.93
13.01
9.80
5.63
0.75
-4.77
-11.02
-17.96
-25.19
-31.75
-36.28
-37.52
-34.86
-28.75
-20.71
-12.83
-7.20
-5.26
-7.47
-13.34
-21.51
-30.27
-37.95
-43.49
-46.66
-47.99
-48.42
-48.93
-50.25
-52.86
-57.01
-62.62
-68.96
-74.59
-77.60
-76.38
-70.50
-61.18
-50.75
-41.48
-34.45
-29.16
-24.06
-17.95
-10.96
-4.63
-0.99
-0.88
-3.24
-5.66
-5.83
-3.07
1.21
4.19
3.19
-3.00
-12.80
-22.69
-28.73
-28.46
-21.75
-10.72
1.23
10.78
15.47
15.25
11.98
8.55
7.48
9.90
15.27
21.87
27.66
30.87
31.93
32.60
35.25
41.47
51.50
64.36
78.36
94.65
110.85
122.69
126.41
122.01
112.15
99.95
87.71
76.66
67.35
57.68
49.27
44.12
44.07
49.49
59.01
70.02
79.51
84.79
83.62
78.69
71.74
64.72
59.13
55.89
55.42
57.59
61.68
66.23
69.94
70.80
67.24
58.25
43.78
24.67
2.39
-21.74
-46.55
-70.81
-94.09
-116.06
-136.38
-154.64
-170.33
-183.15
-193.44
-201.38
-206.85
-210.55
-213.87
-218.57
-226.28
-238.05
-254.14
-274.48
-297.34
-319.41
-337.68
-349.90
-354.45
-350.14
-336.15
-312.29
-280.08
-240.92
-195.57
-145.72
-93.89
-42.53
6.69
53.02
101.29
146.65
180.40
198.29
201.76
195.06
182.52
167.47
152.16
137.80
126.14
115.84
107.13
100.00
94.17
89.88
88.28
91.08
99.83
114.82
130.77
144.59
153.37
155.32
150.85
142.50
133.88
128.42
128.18
134.48
149.07
171.83
199.93
227.83
248.55
256.20
248.63
228.35
201.56
175.97
156.38
143.01
132.43
120.34
104.04
83.67
61.16
38.60
17.47
-2.19
-21.07
-39.59
-57.38
-73.39
-86.44
-96.05
-102.87
-108.21
-113.82
-121.21
-131.20
-143.63
-157.37
-170.43
-180.93
-188.00
-191.66
-192.48
-191.03
-187.58
-182.01
-173.83
-161.72
-145.21
-125.46
-104.68
-84.81
-66.68
-49.89
-33.33
-15.76
4.88
29.16
55.23
80.02
101.08
117.47
129.64
139.10
147.89
159.73
176.84
197.92
219.33
237.10
248.11
250.48
243.48
216.62
168.74
110.76
58.40
21.89
2.60
-3.68
-2.72
0.66
3.83
7.18
12.32
17.95
21.29
20.21
14.58
6.28
-1.76
-6.71
-5.80
5.33
25.76
51.98
80.07
106.87
130.05
147.93
159.68
166.48
170.67
174.18
178.86
186.04
195.68
205.89
213.42
214.92
208.75
195.20
175.46
151.59
125.68
99.22
72.92
46.97
21.76
-1.68
-21.95
-38.30
-50.71
-60.01
-67.58
-74.90
-82.83
-91.42
-99.90
-107.10
-112.25
-115.17
-116.30
-116.55
-116.84
-117.75
-119.25
-120.82
-121.63
-120.96
-118.63
-115.05
-111.27
-108.74
-108.77
-112.13
-119.07
-129.31
-141.95
-155.10
-165.64
-169.90
-165.13
-151.43
-132.80
-116.22
-108.95
-115.25
-134.34
-160.87
-187.69
-209.21
-223.54
-232.31
-238.61
-244.75
-250.99
-256.10
-258.63
-258.07
-255.03
-250.52
-245.31
-239.20
-231.25
-220.52
-206.93
-191.83
-178.10
-169.39
-168.89
-178.04
-195.78
-218.96
-243.49
-265.86
-284.03
-297.43
-306.16
-309.97
-307.81
-298.27
-280.42
-254.68
-222.95
-187.99
-152.44
-118.04
-85.41
-54.42
-24.54
4.84
34.46
65.45
99.29
137.32
179.84
225.39
270.50
310.49
340.91
359.18
365.51
362.79
355.39
347.56
342.00
339.10
337.06
332.76
323.01
305.96
282.04
254.15
226.76
204.37
189.80
183.17
181.96
181.97
178.62
168.10
148.05
117.76
78.47
33.37
-12.52
-53.35
-84.05
-102.08
-108.30
-106.52
-101.63
-97.44
-95.39
-94.83
-94.47
-93.87
-93.80
-95.29
-98.09
-100.02
-97.80
-88.97
-73.63
-54.73
-36.73
-23.31
-15.79
-12.81
-11.60
-9.70
-5.82
-0.09
6.63
13.50
20.19
26.67
33.07
39.25
44.85
49.59
53.14
55.07
55.03
53.14
50.09
47.03
45.19
45.24
47.46
51.21
54.97
57.01
56.29
52.97
48.61
45.24
44.48
47.97
55.23
63.17
67.44
64.78
54.06
37.22
17.30
-2.75
-18.06
-25.40
-24.50
-17.15
-5.13
9.70
26.66
43.88
58.81
73.98
92.27
114.09
137.49
160.50
180.74
198.36
212.90
223.87
237.47
259.25
289.68
324.22
357.31
383.38
401.58
411.90
379.01
288.50
158.24
26.11
-79.60
-141.72
-176.53
-196.04
-206.97
-212.14
-209.61
-196.80
-176.05
-153.82
-135.91
-126.37
-123.40
-124.39
-126.98
-124.99
-114.29
-96.07
-75.83
-59.19
-50.56
-49.19
-52.64
-57.89
-59.46
-53.87
-42.06
-28.43
-17.70
-13.79
-16.63
-24.24
-33.82
-41.59
-45.17
-44.56
-41.29
-36.84
-32.99
-30.08
-27.84
-25.83
-23.62
-21.36
-19.89
-20.18
-22.86
-29.24
-39.70
-53.43
-68.76
-84.15
-98.62
-111.39
-121.38
-120.57
-104.14
-74.88
-41.63
-12.69
7.56
18.41
21.56
19.83
15.88
10.41
3.51
-4.08
-10.54
-13.98
-13.39
-8.99
-2.10
5.42
11.11
13.57
13.09
11.14
9.31
8.24
7.94
8.06
8.27
7.84
6.39
4.18
1.95
0.40
-0.11
0.39
1.55
2.80
3.19
2.12
-0.46
-4.01
-7.74
-10.95
-13.22
-14.39
-14.48
-14.14
-13.79
-13.69
-13.95
-14.63
-15.78
-17.34
-19.05
-20.52
-21.36
-21.27
-20.25
-18.67
-17.07
-15.98
-15.64
-15.93
-16.34
-16.18
-14.80
-11.93
-7.81
-3.12
1.26
4.60
6.61
7.46
7.64
7.72
7.97
8.36
8.62
8.51
7.97
7.15
6.30
5.56
4.95
4.36
3.75
3.28
3.30
4.18
6.08
8.83
11.86
14.45
15.99
16.18
15.24
13.78
12.58
12.27
13.17
15.13
17.71
20.32
22.53
24.08
24.86
24.87
24.06
22.35
19.78
16.50
12.87
9.32
6.24
3.81
2.02
0.71
-0.28
-1.03
-1.46
-1.45
-0.94
-0.05
0.90
1.49
1.36
0.37
-1.35
-3.42
-5.31
-6.52
-6.71
-5.77
-3.82
-1.19
1.71
4.47
6.80
8.57
9.84
10.81
11.66
12.52
13.40
14.30
15.21
16.19
17.29
18.49
19.63
20.38
20.38
19.29
16.95
13.41
8.89
3.74
-1.58
-6.59
-10.80
-13.78
-15.24
-15.07
-13.35
-10.35
-6.41
-1.92
2.67
6.96
10.57
13.18
14.62
14.86
14.03
12.37
10.18
7.75
5.32
3.02
0.92
-1.05
-2.96
-4.87
-6.78
-8.64
-10.36
-11.86
-13.08
-14.00
-14.62
-14.96
-15.12
-15.25
-15.55
-16.12
-16.81
-17.22
-16.77
-14.97
-11.64
-7.05
-1.86
3.21
7.58
11.04
13.62
15.43
16.54
16.92
16.54
15.51
14.11
12.66
11.39
10.36
9.47
8.67
8.00
7.66
7.85
8.64
9.77
10.81
11.26
10.83
9.55
7.83
6.35
5.85
6.93
9.88
14.59
20.51
26.78
32.45
36.68
38.93
39.06
37.28
34.05
29.88
25.15
20.04
14.52
8.45
1.76
-5.38
-12.51
-18.99
-24.23
-27.86
-29.86
-30.52
-30.29
-29.58
-28.77
-28.13
-27.92
-28.35
-29.48
-31.10
-32.66
-33.41
-32.54
-29.51
-24.25
-17.20
-9.22
-1.43
5.20
10.04
13.01
14.46
15.01
15.28
15.65
16.21
16.85
17.42
17.89
18.38
19.09
20.07
21.15
21.94
22.02
21.13
19.30
16.85
14.19
11.59
9.04
6.30
3.11
-0.54
-4.26
-7.33
-8.97
-8.68
-6.42
-2.67
1.82
6.25
10.03
12.84
14.58
15.28
14.98
13.74
11.72
9.18
6.44
3.83
1.54
-0.48
-2.44
-4.58
-6.98
-9.44
-11.53
-12.87
-13.33
-13.17
-12.92
-13.10
-13.91
-15.07
-15.97
-15.89
-14.39
-11.46
-7.57
-3.51
-0.15
1.74
1.63
-0.77
-5.47
-12.24
-20.55
-29.63
-38.51
-46.21
-51.94
-55.36
-56.70
-56.64
-56.14
-56.00
-56.67
-58.08
-59.75
-61.04
-61.38
-60.47
-58.35
-55.36
-51.97
-48.70
-45.95
-43.84
-42.18
-40.52
-38.29
-35.04
-30.56
-24.98
-18.62
-11.89
-5.10
1.56
7.94
13.86
19.12
23.51
26.94
29.45
31.27
32.67
33.88
35.11
36.47
38.05
39.86
41.79
43.61
45.11
46.11
46.57
46.58
46.45
46.55
47.11
48.11
49.31
50.46
51.32
51.79
51.86
51.74
51.78
52.19
52.92
53.51
53.33
51.48
47.00
39.22
28.41
15.76
2.96
-8.37
-17.19
-22.83
-25.50
-26.14
-26.26
-26.31
-26.04
-24.89
-22.58
-19.20
-14.13
-7.22
1.01
8.81
15.87
22.48
29.17
36.08
43.12
51.56
61.85
72.93
81.40
86.06
87.14
85.92
83.72
81.76
82.93
88.80
98.65
108.49
116.83
123.43
128.64
132.19
120.46
87.54
38.34
-4.23
-36.26
-58.66
-75.64
-88.28
-97.37
-103.70
-105.94
-103.48
-97.34
-91.47
-87.19
-84.58
-83.00
-82.14
-81.71
-79.76
-74.95
-67.44
-59.97
-53.55
-48.41
-44.18
-40.70
-37.79
-34.32
-29.68
-24.38
-20.48
-18.74
-18.99
-20.31
-21.81
-22.75
-22.32
-20.39
-17.55
-15.06
-13.30
-11.99
-10.54
-8.62
-6.23
-3.45
-0.48
2.52
5.33
8.11
10.99
13.99
16.84
19.20
20.83
21.62
21.55
20.62
18.93
16.72
14.25
11.79
9.49
7.40
5.48
3.79
2.60
2.48
4.12
7.88
13.54
20.25
26.72
31.58
33.68
32.34
27.38
19.45
10.10
1.13
-6.27
-11.64
-14.97
-16.47
-16.56
-15.73
-14.68
-13.82
-12.92
-11.28
-8.20
-3.65
1.41
5.39
6.08
3.12
-2.84
-10.45
-18.29
-25.55
-32.20
-38.80
-45.86
-53.41
-61.91
-71.47
-82.00
-93.28
-104.91
-116.46
-127.86
-139.98
-148.21
-151.47
-149.67
-142.89
-131.13
-114.68
-94.59
-72.97
-52.59
-35.76
-24.19
-17.33
-12.91
-8.17
-1.16
8.43
19.40
29.67
37.38
40.91
40.05
35.74
29.70
23.92
20.35
20.64
25.83
36.33
51.42
69.80
89.64
108.91
125.81
139.24
148.88
155.09
158.73
160.61
161.34
160.76
158.18
152.89
144.87
134.96
124.57
115.36
108.54
103.99
99.86
93.17
81.23
62.90
38.91
11.22
-17.61
-45.06
-69.32
-89.40
-104.32
-112.51
-112.11
-100.98
-80.74
-58.17
-41.02
-32.85
-32.30
-35.31
-38.25
-39.80
-41.27
-45.14
-52.56
-61.90
-69.64
-72.63
-69.72
-62.58
-53.72
-45.70
-40.18
-37.35
-36.00
-34.61
-32.27
-28.74
-24.47
-20.06
-16.16
-13.38
-11.83
-11.03
-10.21
-9.80
-10.03
-11.12
-13.09
-15.77
-18.80
-21.64
-23.69
-24.65
-24.63
-23.93
-22.99
-22.10
-21.40
-20.88
-20.50
-20.27
-20.31
-20.84
-21.84
-23.13
-24.23
-24.49
-23.33
-20.43
-15.91
-10.33
-4.48
0.92
5.32
8.44
10.28
11.03
10.99
10.52
9.95
9.65
9.90
10.77
12.04
13.27
13.93
13.67
12.48
10.70
8.88
7.52
6.84
6.74
6.87
6.85
6.41
5.43
3.86
1.73
-0.90
-3.76
-6.38
-8.07
-8.20
-6.40
-2.75
2.29
8.00
13.66
18.75
22.99
26.25
28.52
29.84
30.37
30.39
30.28
30.40
30.97
31.93
32.96
33.57
33.21
31.50
28.26
23.60
17.89
11.69
5.69
0.52
-3.37
-5.81
-6.98
-7.36
-7.58
-8.18
-9.47
-11.39
-13.52
-15.19
-15.76
-14.79
-12.28
-8.63
-4.48
-0.50
2.85
5.38
7.15
8.22
8.58
8.14
6.79
4.61
1.96
-0.60
-2.49
-3.38
-3.29
-2.60
-1.79
-1.25
-1.08
-1.06
-0.82
-0.07
1.21
2.76
4.10
4.80
4.65
3.72
2.39
1.16
0.52
0.81
2.20
4.64
7.90
11.54
14.95
17.51
18.78
18.70
17.68
16.44
15.73
16.03
17.33
19.16
20.88
21.96
22.23
21.92
21.45
21.20
21.22
21.16
20.39
18.29
14.56
9.36
3.27
-2.95
-8.58
-13.12
-16.33
-18.12
-18.50
-17.54
-15.46
-12.63
-9.52
-6.59
-4.12
-2.16
-0.52
1.07
2.83
4.91
7.27
9.76
12.13
14.08
15.30
15.58
14.90
13.42
11.47
9.42
7.54
5.91
4.41
2.84
1.05
-0.93
-2.83
-4.31
-5.12
-5.26
-4.99
-4.74
-4.89
-5.56
-6.67
-8.02
-9.28
-9.93
-9.35
-7.02
-2.77
3.03
9.51
15.52
19.96
22.16
22.13
20.41
17.74
14.77
11.85
9.38
7.61
6.61
6.31
6.54
7.11
7.77
8.31
8.59
9.28
10.95
13.68
17.01
20.38
23.31
25.52
26.75
26.91
27.44
29.47
33.13
37.59
41.94
45.76
49.16
52.39
55.81
61.92
72.30
86.37
101.67
115.46
125.98
132.72
135.88
136.32
138.02
143.94
154.27
166.58
177.89
186.07
190.06
188.99
165.12
111.01
33.81
-48.60
-120.50
-174.78
-211.13
-232.26
-242.35
-245.73
-243.38
-236.01
-224.81
-211.13
-195.12
-177.63
-157.30
-134.69
-111.90
-89.43
-67.89
-48.34
-33.10
-23.22
-18.46
-18.07
-21.78
-28.99
-37.01
-43.05
-45.63
-45.09
-42.88
-40.49
-38.82
-38.33
-38.72
-38.52
-36.42
-32.03
-26.05
-19.62
-13.78
-9.19
-6.18
-4.58
-3.62
-2.50
-0.82
1.48
3.52
4.92
5.69
6.10
6.65
7.77
9.60
11.93
14.30
16.26
17.65
18.47
18.86
18.98
18.90
18.64
18.11
17.21
15.91
14.34
12.66
10.97
9.33
7.73
6.09
4.33
2.39
0.32
-1.71
-3.55
-5.13
-6.48
-7.74
-9.04
-10.45
-11.98
-13.60
-15.24
-16.87
-18.44
-19.81
-20.78
-21.06
-20.43
-18.79
-16.27
-13.18
-9.87
-6.62
-3.56
-0.69
1.95
4.21
5.88
6.74
6.72
6.00
4.95
4.03
3.56
3.66
4.23
5.05
5.89
6.62
7.22
7.75
8.28
8.83
9.33
9.65
9.68
9.30
8.52
7.41
6.10
4.74
3.45
2.31
1.41
0.83
0.68
1.00
1.78
2.91
4.19
5.39
6.35
6.96
7.19
7.06
6.60
5.80
4.64
3.14
1.38
-0.46
-2.17
-3.57
-4.56
-5.19
-5.58
-5.84
-6.02
-6.07
-5.89
-5.40
-4.63
-3.76
-2.98
-2.51
-2.44
-2.72
-3.20
-3.66
-3.86
-3.63
-2.84
-1.50
0.35
2.54
4.89
7.20
9.30
11.08
12.45
13.36
13.74
13.56
12.83
11.66
10.25
8.84
7.63
6.74
6.15
5.75
5.38
4.88
4.21
3.39
2.53
1.74
1.15
0.83
0.80
1.06
1.51
1.94
1.99
1.32
-0.27
-2.64
-5.26
-7.45
-8.58
-8.38
-7.04
-5.08
-3.05
-1.33
-0.01
1.03
1.90
2.58
2.93
2.82
2.20
1.21
0.09
-0.91
-1.65
-2.09
-2.27
-2.27
-2.12
-1.81
-1.34
-0.72
-0.02
0.70
1.35
1.81
1.97
1.73
0.97
-0.33
-2.12
-4.29
-6.65
-8.96
-10.94
-12.26
-12.63
-11.88
-10.05
-7.36
-4.20
-0.91
2.27
5.27
8.17
11.00
13.69
16.07
17.88
18.96
19.26
18.85
17.89
16.59
15.19
13.88
12.86
12.18
11.80
11.56
11.35
11.13
11.05
11.33
12.10
13.31
14.72
16.06
17.19
18.26
19.60
21.60
24.51
28.37
33.02
38.25
43.72
48.85
52.63
53.73
50.97
43.90
33.22
20.66
8.37
-1.99
-9.79
-15.53
-20.25
-24.88
-29.63
-34.05
-37.38
-39.11
-39.17
-37.94
-35.92
-33.42
-30.54
-27.17
-23.31
-19.19
-15.34
-12.41
-10.88
-10.83
-11.87
-13.23
-14.08
-13.76
-12.00
-8.95
-5.00
-0.56
3.99
8.40
12.41
15.81
18.38
19.93
20.36
19.70
18.14
16.02
13.71
11.67
10.43
10.52
12.20
15.31
19.30
23.44
27.15
29.87
31.24
31.09
29.39
26.13
21.32
15.25
8.65
2.61
-2.09
-5.11
-6.48
-6.43
-5.38
-3.86
-2.28
-0.77
0.84
2.29
3.10
2.66
0.53
-3.68
-10.32
-19.33
-29.98
-38.24
-39.80
-32.90
-19.62
-3.62
12.05
25.39
35.34
41.65
44.81
45.07
44.21
44.66
49.29
60.06
76.75
96.47
114.39
125.49
125.97
114.73
94.21
70.38
50.41
39.96
41.38
53.68
73.58
96.97
120.33
141.02
157.02
166.08
165.59
153.27
128.40
92.64
49.98
5.99
-33.91
-66.04
-89.65
-106.66
-120.27
-133.24
-146.65
-160.01
-172.01
-181.77
-189.50
-196.37
-203.62
-211.53
-219.06
-224.29
-225.52
-222.10
-214.65
-204.51
-192.87
-180.33
-166.90
-152.56
-137.70
-123.17
-109.90
-98.42
-88.60
-79.81
-71.29
-62.67
-54.14
-46.31
-39.81
-34.84
-30.93
-27.09
-22.36
-16.46
-10.28
-5.73
-4.85
-8.76
-16.83
-26.81
-35.67
-40.83
-40.90
-35.75
-25.91
-12.00
5.44
25.73
47.64
69.40
89.07
105.25
117.46
126.17
132.50
137.78
143.12
149.07
155.32
160.94
164.81
166.27
165.41
162.89
159.33
154.70
148.21
138.84
126.17
110.90
94.78
79.76
67.26
57.73
50.96
46.71
45.10
46.51
51.09
58.39
67.45
77.23
87.06
96.89
107.23
118.71
131.75
146.34
162.15
178.80
196.10
214.08
232.89
252.48
272.32
291.31
307.91
320.41
327.34
327.76
321.45
309.00
291.66
271.11
249.08
226.96
205.55
185.03
165.13
145.46
125.80
106.22
86.93
68.19
50.16
32.82
16.12
0.02
-15.47
-30.31
-44.49
-58.11
-71.35
-84.40
-97.40
-110.40
-123.32
-136.14
-148.89
-161.79
-175.15
-189.22
-203.95
-218.84
-233.06
-245.58
-255.62
-262.88
-267.58
-270.32
-271.77
-272.41
-272.40
-271.65
-269.91
-267.01
-262.91
-257.77
-251.91
-245.72
-239.56
-233.68
-228.11
-222.81
-217.65
-212.59
-207.72
-203.24
-199.31
-195.96
-193.10
-190.56
-188.17
-185.79
-183.39
-180.93
-178.52
-176.38
-174.86
-174.38
-175.29
-177.71
-181.54
-186.49
-192.31
-198.94
-206.59
-215.63
-226.36
-238.78
-252.39
-266.19
-278.89
-289.29
-296.70
-301.29
-304.13
-306.90
-311.12
-317.48
-325.32
-332.54
-336.12
-333.02
-321.01
-299.28
-268.57
-230.81
-188.62
-144.67
-101.29
-60.27
-22.80
10.54
39.74
65.45
88.95
111.90
135.92
161.80
189.03
215.55
238.35
254.44
262.04
261.18
253.50
241.41
226.99
211.37
194.66
176.47
156.50
134.94
112.42
89.94
68.63
49.61
33.95
22.42
15.38
12.70
13.91
18.51
26.16
36.59
49.34
63.36
77.01
88.42
96.03
99.17
98.15
94.08
88.34
82.11
76.14
70.75
65.94
61.69
57.99
54.85
52.29
50.25
48.64
47.43
46.68
46.54
47.15
48.51
50.32
52.15
53.62
54.64
55.52
56.89
59.31
62.92
67.14
70.74
72.26
70.64
65.73
58.43
50.43
43.55
39.13
37.65
38.77
41.66
45.34
49.02
52.11
54.20
54.96
54.27
52.21
49.20
45.85
42.81
40.57
39.30
38.87
38.85
38.63
37.58
35.20
31.43
26.76
22.20
19.09
18.69
21.75
28.32
37.74
48.90
60.62
71.91
82.10
90.82
97.85
103.03
106.19
107.27
106.33
103.62
99.48
94.29
88.43
82.17
75.78
69.52
63.68
58.46
53.94
50.09
46.78
43.92
41.50
39.63
38.33
37.44
36.58
35.26
33.24
30.70
28.36
27.21
28.05
31.19
36.27
42.43
48.72
54.40
59.32
63.55
67.09
69.71
71.19
71.38
70.37
68.39
65.65
62.42
58.76
54.42
49.12
42.78
35.64
28.17
20.79
13.72
7.27
1.29
-5.00
-12.60
-22.15
-33.49
-45.70
-57.24
-66.45
-70.63
-68.12
-59.25
-45.96
-30.62
-15.20
-1.12
10.73
19.92
29.16
40.57
54.19
68.40
81.79
93.81
104.26
112.71
118.21
124.24
133.22
144.49
154.96
161.79
163.43
159.16
148.93
133.32
119.80
114.86
120.62
135.10
155.85
181.40
210.71
242.25
240.64
188.77
98.59
0.73
-81.50
-140.52
-178.48
-200.91
-211.68
-217.51
-216.66
-207.44
-191.79
-174.92
-161.24
-152.73
-149.38
-149.41
-150.35
-145.79
-132.83
-113.81
-94.57
-79.84
-71.47
-68.55
-68.96
-70.90
-70.49
-66.88
-60.46
-53.26
-46.75
-41.24
-36.00
-30.30
-24.14
-16.76
-8.45
-0.63
4.26
6.81
6.87
4.75
0.70
-4.93
-11.29
-17.92
-24.77
-32.20
-40.25
-48.72
-56.80
-64.08
-70.09
-74.75
-78.64
-82.48
-86.69
-90.72
-93.54
-94.10
-93.01
-91.38
-90.77
-92.79
-98.19
-106.41
-115.45
-122.98
-127.38
-129.07
-128.07
-123.80
-115.38
-102.28
-85.39
-67.32
-52.31
-37.00
-22.76
-10.51
1.42
15.36
30.75
43.24
47.31
42.66
32.03
19.26
8.85
3.02
0.33
-2.06
-7.38
-16.14
-25.33
-30.62
-29.65
-22.48
-11.63
-0.57
8.60
16.41
25.89
40.38
60.72
84.24
106.71
124.41
135.58
140.82
142.33
142.81
144.15
146.29
147.59
146.50
142.64
136.70
130.02
123.82
119.29
117.17
116.89
116.27
112.19
101.63
82.44
54.39
19.67
-16.88
-49.02
-71.40
-81.14
-78.34
-65.34
-46.20
-25.44
-10.21
-7.53
-18.91
-38.70
-58.18
-70.71
-73.11
-66.58
-54.37
-39.74
-25.06
-11.63
0.03
10.58
18.83
24.28
26.23
24.22
18.10
8.82
-1.60
-10.32
-13.44
-7.94
7.04
29.43
55.63
81.60
104.11
120.99
126.03
116.98
99.19
81.74
69.55
62.77
57.38
51.17
43.35
33.71
23.17
12.06
-0.49
-16.78
-37.47
-60.60
-82.22
-98.46
-106.61
-105.15
-94.83
-78.73
-62.57
-50.01
-41.33
-34.77
-28.69
-22.46
-15.98
-10.36
-8.07
-14.56
-32.45
-60.15
-93.65
-128.90
-162.68
-192.40
-216.67
-235.72
-253.86
-272.66
-289.37
-299.42
-298.95
-285.99
-260.08
-222.57
-156.93
-68.44
20.22
88.10
129.68
151.18
161.03
165.33
166.42
163.80
153.29
134.35
112.84
93.85
81.06
75.39
75.57
78.86
82.14
81.35
76.06
69.42
64.96
64.52
65.54
65.46
62.63
56.68
47.89
38.31
30.63
26.08
23.84
21.58
17.69
12.31
4.56
-4.02
-10.02
-10.65
-5.71
2.60
10.85
16.23
19.40
19.63
16.84
11.40
3.98
-4.42
-12.77
-20.20
-28.15
-35.69
-41.67
-44.60
-44.04
-40.94
-36.65
-31.60
-26.60
-21.86
-16.83
-11.33
-4.97
2.66
9.36
14.20
16.79
17.05
15.25
12.10
7.90
3.05
-2.09
-7.09
-11.04
-13.12
-12.95
-10.61
-6.52
-1.65
2.93
6.34
7.92
7.66
5.61
1.92
-3.13
-8.96
-14.95
-20.41
-24.80
-27.90
-29.64
-30.26
-30.15
-29.58
-28.61
-27.22
-25.42
-23.41
-21.56
-20.20
-19.53
-19.46
-19.46
-18.74
-16.49
-12.16
-5.71
2.36
11.15
19.64
26.93
32.52
36.30
38.46
39.29
39.03
37.80
35.65
32.72
29.32
25.93
23.07
21.09
20.08
19.82
19.88
19.87
19.52
18.77
17.68
16.31
14.65
12.77
10.87
9.40
8.95
10.01
12.74
16.86
21.71
26.51
30.52
33.31
34.65
34.58
33.26
30.97
28.06
24.92
21.90
