1698934476.00
64.000000
-0.00
-0.00
-0.00
-0.00
-0.00
-0.00
-0.00
-0.00
-0.00
-0.00
0.00
0.01
0.01
-0.00
-0.03
-0.05
-0.05
0.00
0.13
0.36
0.66
1.01
1.37
1.72
2.06
2.40
2.79
3.24
3.80
4.42
5.06
5.66
6.20
6.68
7.15
7.68
8.31
9.14
10.09
11.04
11.88
12.56
13.14
13.76
14.65
15.96
17.91
20.32
22.90
25.38
27.58
29.57
31.68
34.32
37.81
42.54
48.15
54.10
59.83
64.97
69.58
74.14
79.34
85.71
93.76
103.00
112.62
121.73
129.77
136.75
143.30
150.74
157.78
166.67
177.99
191.83
206.96
220.48
228.06
225.06
208.13
176.41
132.29
79.60
22.63
-35.41
-92.97
-149.80
-205.98
-261.21
-314.61
-364.73
-410.66
-451.74
-487.43
-516.87
-538.65
-550.94
-551.89
-540.37
-516.14
-480.50
-435.70
-384.50
-329.58
-273.12
-216.68
-161.29
-107.83
-57.19
-10.53
30.97
66.38
95.28
117.97
135.30
148.37
158.20
165.41
170.05
171.90
170.71
166.59
160.06
152.07
143.63
135.47
127.87
120.58
113.13
105.07
96.08
85.95
74.70
62.74
51.17
41.79
36.73
37.58
44.48
55.64
67.84
77.62
82.60
82.29
78.07
71.84
65.21
58.85
52.75
46.72
40.92
36.04
32.86
31.87
32.81
34.88
36.96
38.09
37.76
36.01
33.22
29.89
26.39
22.83
19.17
15.36
11.36
7.46
3.99
1.29
-0.48
-1.53
-2.43
-3.78
-5.71
-7.63
-8.30
-6.66
-2.49
3.07
7.88
9.80
7.82
2.59
-3.99
-9.70
-13.14
-14.15
-13.48
-12.05
-10.29
-8.05
-4.96
-1.03
3.20
6.81
8.98
9.38
8.10
5.74
2.99
0.42
-1.66
-3.13
-3.98
-4.33
-4.27
-3.93
-3.39
-2.76
-2.14
-1.59
-1.24
-1.19
-1.52
-2.17
-2.97
-3.57
-3.66
-3.09
-2.03
-0.88
-0.05
0.25
0.16
0.17
0.92
2.86
6.05
10.10
14.33
17.99
20.52
21.58
21.15
19.34
16.42
12.64
8.40
3.98
-0.23
-3.86
-6.68
-8.66
-9.96
-10.83
-11.47
-11.95
-12.25
-12.27
-12.02
-11.62
-11.28
-11.15
-11.21
-11.30
-11.16
-10.62
-9.69
-8.46
-7.04
-5.44
-3.65
-1.76
-0.01
1.20
1.48
0.68
-1.00
-3.06
-4.85
-5.82
-5.59
-4.08
-1.41
2.06
5.89
9.57
12.71
15.19
17.20
19.25
21.90
25.52
30.09
35.19
40.18
44.42
47.59
49.78
51.56
53.63
56.63
60.82
65.97
71.51
76.90
81.94
87.04
93.12
101.37
112.92
128.25
147.00
167.83
188.28
205.12
214.77
214.30
202.22
179.02
146.96
109.29
69.21
29.02
-10.24
-48.68
-87.10
-126.20
-165.73
-203.79
-236.85
-260.53
-271.23
-267.57
-250.94
-224.66
-192.49
-157.34
-121.21
-86.13
-55.19
-32.62
-22.30
-25.69
-40.44
-60.70
-79.30
-90.41
-91.38
-82.91
-67.76
-49.01
-28.92
-8.74
10.81
28.65
43.01
51.44
51.37
40.92
19.61
-11.25
-48.76
-89.07
-128.27
-163.15
-191.47
-211.83
-223.28
-225.13
-217.09
-199.78
-175.08
-146.10
-116.55
-89.85
-68.15
-52.01
-40.52
-31.91
-24.26
-16.05
-6.49
4.53
16.66
29.28
41.75
53.53
64.09
72.99
79.77
84.10
85.83
85.16
82.63
79.08
75.48
72.73
71.51
72.05
74.17
77.35
80.96
84.49
87.77
90.92
94.15
97.60
101.10
104.23
106.47
107.28
106.31
103.34
98.37
91.63
83.60
75.08
67.19
61.11
57.86
57.99
61.36
67.22
74.40
81.68
88.05
92.93
96.08
97.49
97.22
95.34
91.94
87.31
81.95
76.56
71.74
67.79
64.53
61.39
57.70
52.93
46.93
39.89
32.25
24.52
17.20
10.63
4.93
-0.17
-5.32
-11.44
-19.26
-28.95
-39.90
-50.89
-60.58
-67.98
-72.75
-75.07
-75.44
-74.50
-73.05
-72.13
-73.00
-76.73
-83.56
-92.52
-101.46
-107.68
-108.99
-104.44
-94.73
-81.86
-68.53
-57.30
-50.10
-47.87
-50.50
-56.96
-65.43
-73.78
-80.05
-82.93
-82.04
-77.82
-71.12
-62.55
-52.22
-39.73
-24.64
-7.01
12.25
31.47
48.67
62.33
71.89
77.78
81.15
83.22
84.84
86.33
87.65
88.71
89.60
90.51
91.60
92.79
93.77
94.14
93.61
92.16
90.08
87.86
85.95
84.55
83.52
82.41
80.59
77.52
72.92
66.89
59.84
52.39
45.23
39.11
34.75
32.84
33.80
37.57
43.47
50.36
56.99
62.49
66.66
69.91
72.98
76.48
80.55
84.79
88.51
91.13
92.46
92.82
92.85
93.20
94.22
95.76
96.98
96.43
92.16
82.20
65.27
41.51
12.69
-18.17
-47.82
-73.90
-95.77
-114.28
-130.94
-146.67
-161.08
-172.56
-179.10
-179.29
-172.95
-161.13
-145.72
-128.87
-112.61
-98.81
-89.09
-84.74
-86.40
-93.80
-105.68
-119.86
-133.73
-144.89
-151.76
-154.00
-152.53
-149.06
-145.43
-142.95
-142.06
-142.47
-143.62
-145.21
-147.39
-150.73
-155.99
-163.93
-175.21
-190.37
-209.63
-232.60
-257.81
-282.67
-303.86
-318.26
-323.85
-320.33
-309.00
-292.11
-271.97
-250.30
-227.85
-204.40
-179.11
-150.84
-118.76
-82.73
-43.69
-3.47
35.58
71.18
101.71
126.35
145.05
158.25
166.57
170.66
171.13
168.58
163.56
156.56
147.93
137.85
126.26
112.96
97.64
80.10
60.46
39.34
17.83
-2.67
-20.81
-35.42
-45.68
-51.07
-51.52
-47.54
-40.35
-31.79
-23.90
-18.38
-16.07
-16.91
-20.18
-25.10
-31.17
-38.24
-46.21
-54.77
-63.28
-70.98
-77.34
-82.25
-86.11
-89.59
-93.61
-99.19
-107.39
-118.96
-133.61
-149.47
-162.96
-169.47
-164.66
-145.98
-113.63
-70.81
-23.17
22.42
59.51
83.79
94.41
94.49
90.26
88.99
96.34
114.37
141.15
171.98
201.79
226.99
246.15
259.34
267.03
269.63
267.64
262.25
255.35
248.87
243.71
239.03
232.49
221.35
203.78
179.66
150.61
119.16
88.00
59.47
35.47
17.45
6.26
1.73
2.34
5.30
7.30
5.49
-1.59
-13.68
-29.28
-46.58
-64.31
-82.07
-99.92
-117.67
-134.36
-148.46
-158.57
-164.01
-164.98
-161.96
-154.85
-142.63
-123.86
-97.72
-65.05
-28.62
7.62
39.87
65.71
84.62
97.59
106.22
111.89
115.38
117.03
117.12
116.14
114.68
113.18
111.69
109.88
107.43
104.41
101.59
100.22
101.59
106.44
114.69
125.49
137.68
150.29
162.96
176.10
190.60
207.50
227.53
250.82
276.59
302.98
327.02
345.06
353.48
349.74
333.11
305.01
268.56
227.48
185.04
143.27
102.87
63.61
24.95
-13.69
-52.89
-93.31
-135.56
-179.72
-224.76
-268.34
-307.32
-338.71
-360.83
-373.91
-379.98
-382.00
-382.67
-383.48
-384.39
-384.17
-381.06
-373.50
-360.52
-341.78
-317.48
-288.31
-255.40
-220.33
-185.13
-152.12
-123.57
-101.17
-85.56
-76.07
-70.92
-67.85
-64.95
-61.37
-57.60
-54.99
-54.92
-57.76
-62.34
-66.14
-66.27
-60.66
-48.84
-32.10
-12.86
6.30
23.42
37.58
48.81
57.70
64.97
71.24
76.90
82.12
86.91
91.12
94.56
97.06
98.43
98.59
97.41
94.77
90.62
85.07
78.51
71.61
65.16
59.85
56.10
53.86
52.70
52.01
51.32
50.54
49.99
50.33
52.19
55.94
61.50
68.40
76.06
83.99
91.92
99.86
107.97
116.45
125.48
135.17
145.47
155.94
165.65
173.20
177.02
175.88
169.39
158.12
143.44
127.03
110.31
94.15
78.89
64.67
51.63
40.12
30.49
22.96
17.41
13.40
10.27
7.42
4.39
0.98
-2.83
-6.90
-10.92
-14.44
-16.88
-17.71
-16.63
-13.81
-10.00
-6.34
-4.08
-4.00
-6.07
-9.29
-11.96
-12.32
-9.27
-2.78
6.12
15.85
24.97
32.70
38.94
43.93
47.82
50.52
51.93
52.28
52.42
53.55
56.67
62.07
69.32
77.59
86.22
94.93
103.52
111.28
116.67
117.55
112.07
99.70
81.66
60.62
39.59
20.78
4.88
-8.71
-21.21
-33.53
-45.87
-57.59
-67.48
-73.98
-75.31
-69.81
-56.29
-34.54
-5.77
27.25
60.60
90.01
111.78
123.58
124.82
116.63
101.61
83.24
65.26
50.82
41.89
38.82
40.51
44.88
49.67
53.07
54.12
52.75
49.54
45.31
40.88
37.01
34.22
32.59
31.42
29.04
23.06
11.31
-7.08
-30.77
-56.39
-79.61
-96.91
-106.90
-110.65
-110.73
-109.63
-108.60
-107.43
-105.18
-101.41
-96.81
-93.00
-91.64
-93.37
-97.42
-101.88
-104.67
-104.42
-100.86
-94.76
-87.45
-80.30
-74.48
-70.96
-70.49
-73.56
-80.14
-89.55
-100.45
-111.18
-120.33
-127.16
-131.78
-134.94
-137.49
-139.93
-142.21
-143.79
-144.06
-142.64
-139.66
-135.76
-131.82
-128.61
-126.47
-125.13
-123.94
-122.16
-119.30
-115.38
-110.80
-106.09
-101.72
-97.88
-94.33
-90.32
-84.54
-75.23
-60.62
-39.67
-12.95
16.96
45.77
68.75
82.44
85.97
81.47
73.08
65.07
60.06
58.06
57.08
54.49
48.59
39.28
27.70
15.11
1.97
-12.26
-28.28
-45.93
-63.69
-79.06
-89.76
-94.93
-95.59
-94.16
-93.29
-94.64
-98.43
-103.55
-108.31
-111.32
-112.10
-111.24
-109.98
-109.69
-111.20
-114.35
-118.07
-120.67
-120.47
-116.40
-108.30
-96.88
-83.32
-68.81
-54.17
-39.83
-25.99
-12.87
-0.93
9.33
17.54
23.79
28.64
32.92
37.33
42.09
46.79
50.66
52.94
53.33
52.05
49.74
47.04
44.28
41.26
37.43
32.20
25.27
16.85
7.68
-1.10
-8.17
-12.26
-12.49
-8.49
-0.60
10.27
22.88
35.97
48.54
59.92
69.72
77.70
83.72
87.71
89.76
90.18
89.48
88.19
86.68
85.02
83.02
80.22
76.18
70.67
63.80
56.10
48.24
40.89
34.45
28.95
24.10
19.51
14.89
10.16
5.47
1.20
-2.10
-3.78
-3.14
0.38
7.06
16.72
28.60
41.48
53.95
64.75
72.95
78.16
80.37
79.94
77.40
73.40
68.65
63.89
59.82
56.87
55.18
54.58
54.70
55.06
55.23
54.86
53.72
51.64
48.61
44.78
40.45
35.92
31.36
26.71
21.73
16.14
9.83
3.03
-3.65
-9.33
-13.02
-13.90
-11.47
-5.74
2.75
13.02
23.86
34.08
42.76
49.36
53.67
55.72
55.65
53.74
50.38
46.08
41.40
36.85
32.76
29.26
26.34
23.87
21.69
19.64
17.54
15.27
12.86
10.42
8.17
6.29
4.78
3.45
1.89
-0.32
-3.46
-7.54
-12.23
-16.89
-20.66
-22.67
-22.19
-18.91
-12.98
-5.03
4.02
13.20
21.70
28.94
34.59
38.48
40.60
41.06
40.17
38.38
36.25
34.29
32.78
31.66
30.62
29.20
26.98
23.73
19.52
14.72
9.84
5.40
1.75
-1.04
-3.18
-5.09
-7.27
-10.13
-13.80
-18.11
-22.53
-26.27
-28.44
-28.24
-25.25
-19.56
-11.75
-2.77
6.26
14.35
20.79
25.20
27.51
27.87
26.54
23.93
20.50
16.76
13.23
10.33
8.30
7.17
6.73
6.63
6.50
6.01
5.04
3.69
2.19
0.79
-0.40
-1.45
-2.65
-4.33
-6.81
-10.20
-14.38
-18.99
-23.43
-26.91
-28.64
-27.99
-24.68
-18.97
-11.61
-3.66
3.82
10.03
14.56
17.40
18.71
18.68
17.45
15.11
11.84
7.92
3.75
-0.25
-3.71
-6.42
-8.32
-9.57
-10.44
-11.28
-12.44
-14.14
-16.45
-19.26
-22.39
-25.71
-29.21
-33.00
-37.30
-42.28
-48.03
-54.37
-60.85
-66.68
-70.71
-71.63
-68.23
-59.83
-46.59
-29.54
-10.36
9.06
27.09
42.61
55.09
64.51
71.14
75.44
78.02
79.47
80.35
80.95
81.22
80.81
79.19
75.99
71.20
65.31
59.13
53.53
49.01
45.41
41.75
36.52
28.10
15.51
-1.20
-20.79
-41.07
-59.53
-73.91
-82.76
-85.65
-83.10
-76.30
-66.60
-55.14
-42.63
-29.43
-15.75
-1.95
11.32
23.18
32.74
39.43
43.15
44.30
43.47
41.18
37.66
32.84
26.50
18.51
9.13
-1.05
-11.17
-20.54
-28.88
-36.36
-43.49
-50.71
-58.14
-65.50
-72.26
-77.88
-82.06
-84.72
-85.93
-85.63
-83.68
-79.83
-73.95
-66.19
-57.08
-47.42
-38.03
-29.51
-22.04
-15.40
-9.16
-3.03
2.96
8.39
12.65
15.24
15.98
15.07
13.04
10.49
8.00
5.97
4.57
3.77
3.34
2.98
2.39
1.34
-0.24
-2.38
-5.03
-8.22
-11.98
-16.35
-21.36
-26.93
-32.84
-38.70
-43.93
-47.79
-49.50
-48.46
-44.48
-37.93
-29.70
-20.98
-12.89
-6.24
-1.36
1.82
3.62
4.38
4.34
3.61
2.35
0.84
-0.47
-1.08
-0.57
1.14
3.78
6.84
9.75
12.12
13.81
14.89
15.45
15.50
14.90
13.46
11.10
7.93
4.18
0.17
-3.84
-7.58
-10.73
-12.82
-13.40
-12.09
-8.83
-4.01
1.56
6.88
10.98
13.19
13.28
11.50
8.46
4.97
1.83
-0.33
-1.16
-0.68
0.78
2.61
4.23
5.09
4.93
3.75
1.77
-0.69
-3.23
-5.49
-7.18
-8.11
-8.28
-7.86
-7.28
-7.05
-7.69
-9.49
-12.37
-15.82
-19.06
-21.19
-21.44
-19.45
-15.35
-9.77
-3.64
2.11
6.82
10.20
12.32
13.38
13.54
12.75
10.90
7.94
4.07
-0.26
-4.39
-7.70
-9.80
-10.58
-10.24
-9.07
-7.40
-5.43
-3.25
-0.92
1.46
3.75
5.71
7.13
7.78
7.48
6.05
3.45
-0.28
-4.79
-9.50
-13.63
-16.46
-17.50
-16.73
-14.53
-11.57
-8.57
-6.09
-4.46
-3.73
-3.79
-4.38
-5.21
-5.94
-6.30
-6.11
-5.35
-4.21
-3.01
-2.11
-1.76
-2.01
-2.72
-3.61
-4.37
-4.81
-4.88
-4.69
-4.47
-4.51
-5.07
-6.40
-8.53
-11.28
-14.17
-16.50
-17.47
-16.42
-13.04
-7.50
-0.49
7.04
14.12
20.04
24.49
27.55
29.44
30.37
30.43
29.63
28.04
25.88
23.57
21.56
20.19
19.51
19.32
19.27
19.00
18.28
17.09
15.53
13.78
11.98
10.13
8.09
5.66
2.62
-1.09
-5.35
-9.85
-14.16
-17.83
-20.41
-21.46
-20.66
-17.81
-12.94
-6.44
1.06
8.71
15.66
21.20
24.87
26.45
25.96
23.66
20.02
15.63
11.10
6.89
3.25
0.20
-2.36
-4.51
-6.25
-7.53
-8.31
-8.60
-8.49
-8.09
-7.51
-6.80
-5.95
-4.95
-3.84
-2.66
-1.55
-0.71
-0.41
-0.92
-2.36
-4.55
-6.99
-8.91
-9.49
-8.21
-5.04
-0.47
4.67
9.55
13.60
16.58
18.54
19.62
19.89
19.36
18.06
16.14
13.94
11.91
10.42
9.64
9.46
9.54
9.44
8.80
7.45
5.43
2.95
0.35
-2.10
-4.26
-6.12
-7.78
-9.37
-10.99
-12.66
-14.33
-15.90
-17.17
-17.86
-17.65
-16.16
-13.16
-8.64
-2.89
3.52
9.92
15.71
20.47
24.05
26.48
27.88
28.38
28.08
27.11
25.61
23.76
21.75
19.69
17.63
15.58
13.51
11.49
9.65
8.16
7.19
6.76
6.72
6.77
6.53
5.68
4.04
1.61
-1.45
-4.94
-8.64
-12.28
-15.48
-17.75
-18.59
-17.65
-14.86
-10.53
-5.20
0.45
5.87
10.64
14.47
17.16
18.56
18.66
17.59
15.67
13.30
10.90
8.77
7.07
5.82
4.97
4.42
4.06
3.76
3.40
2.89
2.15
1.12
-0.21
-1.81
-3.62
-5.57
-7.59
-9.66
-11.80
-14.02
-16.34
-18.71
-21.06
-23.21
-24.90
-25.82
-25.64
-24.10
-21.25
-17.39
-13.16
-9.28
-6.38
-4.82
-4.65
-5.67
-7.59
-10.08
-12.85
-15.56
-17.82
-19.27
-19.58
-18.61
-16.36
-12.94
-8.56
-3.44
2.20
8.03
13.69
18.75
22.84
25.70
27.28
27.74
27.29
26.20
24.65
22.77
20.58
18.08
15.22
12.06
8.78
5.74
3.45
2.36
2.74
4.51
7.23
10.29
13.06
15.13
16.33
16.72
16.43
15.62
14.37
12.80
11.03
9.23
7.59
6.25
5.26
4.58
4.12
3.76
3.39
2.93
2.34
1.62
0.73
-0.40
-1.81
-3.53
-5.50
-7.59
-9.67
-11.66
-13.56
-15.44
-17.37
-19.34
-21.15
-22.53
-23.12
-22.70
-21.24
-18.90
-16.01
-12.95
-10.10
-7.75
-6.11
-5.35
-5.53
-6.60
-8.42
-10.75
-13.29
-15.75
-17.91
-19.57
-20.54
-20.68
-19.84
-17.98
-15.16
-11.49
-7.17
-2.41
2.60
7.69
12.66
17.27
21.24
24.25
26.04
26.44
25.45
23.24
20.13
16.52
12.85
9.57
7.10
5.79
5.77
6.97
9.05
11.49
13.81
15.68
16.97
17.72
18.01
17.91
17.42
16.53
15.30
13.87
12.44
11.17
10.14
9.33
8.61
7.84
6.92
5.87
4.75
3.68
2.76
2.00
1.34
0.65
-0.17
-1.18
-2.36
-3.60
-4.80
-5.88
-6.84
-7.71
-8.60
-9.63
-10.87
-12.35
-13.95
-15.37
-16.24
-16.15
-14.85
-12.32
-8.85
-4.97
-1.24
1.87
4.12
5.55
6.32
6.62
6.59
6.27
5.66
4.81
3.86
2.97
2.33
2.02
2.01
2.18
2.37
2.42
2.23
1.76
1.03
0.10
-0.97
-2.08
-3.13
-4.04
-4.75
-5.26
-5.63
-5.97
-6.45
-7.24
-8.45
-10.05
-11.88
-13.60
-14.80
-15.06
-14.14
-12.01
-8.93
-5.31
-1.66
1.63
4.32
6.34
7.72
8.57
8.97
8.99
8.72
8.29
7.79
7.31
6.85
6.39
5.86
5.27
4.66
4.14
3.79
3.60
3.47
3.25
2.77
1.97
0.86
-0.45
-1.84
-3.21
-4.50
-5.73
-6.90
-8.05
-9.25
-10.59
-12.17
-13.94
-15.74
-17.22
-17.96
-17.59
-15.98
-13.26
-9.78
-6.03
-2.42
0.75
3.38
5.42
6.91
7.81
8.11
7.82
7.04
6.00
4.96
4.16
3.72
3.60
3.63
3.59
3.35
2.89
2.27
1.61
1.04
0.59
0.19
-0.27
-0.95
-1.93
-3.22
-4.71
-6.26
-7.77
-9.20
-10.63
-12.19
-14.03
-16.21
-18.63
-21.06
-23.07
-24.23
-24.17
-22.76
-20.19
-16.98
-13.80
-11.28
-9.87
-9.61
-10.29
-11.54
-12.95
-14.24
-15.21
-15.67
-15.41
-14.18
-11.74
-8.00
-3.08
2.63
8.62
14.33
19.34
23.41
26.49
28.57
29.69
29.85
29.10
27.57
25.49
23.17
20.86
18.70
16.68
14.63
12.36
9.78
6.92
4.02
1.45
-0.35
-1.04
-0.46
1.28
3.88
6.89
9.88
12.47
14.36
15.30
15.16
13.96
11.88
9.31
6.71
4.50
2.91
1.96
1.53
1.43
1.52
1.68
1.83
1.90
1.77
1.41
0.81
0.04
-0.79
-1.61
-2.34
-2.99
-3.60
-4.25
-5.08
-6.19
-7.61
-9.31
-11.11
-12.75
-13.91
-14.29
-13.68
-12.01
-9.41
-6.22
-2.87
0.25
2.85
4.80
6.14
6.98
7.41
7.51
7.30
6.87
6.30
5.69
5.11
4.54
3.95
3.34
2.75
2.28
2.00
1.92
1.89
1.73
1.24
0.33
-0.94
-2.41
-3.86
-5.13
-6.15
-6.95
-7.66
-8.44
-9.50
-10.96
-12.76
-14.66
-16.17
-16.76
-16.05
-13.97
-10.85
-7.27
-3.80
-0.80
1.64
3.64
5.25
6.43
7.05
7.01
6.39
5.46
4.56
3.89
3.45
3.07
2.59
1.98
1.41
1.13
1.24
1.64
2.00
1.94
1.22
-0.16
-1.96
-3.86
-5.53
-6.78
-7.58
-7.99
-8.15
-8.24
-8.43
-8.90
-9.73
-10.89
-12.16
-13.22
-13.67
-13.22
-11.73
-9.29
-6.18
-2.80
0.45
3.27
5.52
7.16
8.28
8.98
9.37
9.53
9.55
9.52
9.50
9.57
9.74
9.96
10.17
10.31
10.37
10.41
10.50
10.68
10.89
11.01
10.92
10.50
9.72
8.62
7.26
5.74
4.09
2.32
0.47
-1.39
-3.12
-4.49
-5.26
-5.21
-4.27
-2.52
-0.20
2.37
4.88
7.11
8.95
10.39
11.43
12.04
12.16
11.74
10.79
9.39
7.65
5.70
3.65
1.59
-0.37
-2.17
-3.78
-5.27
-6.73
-8.23
-9.77
-11.26
-12.54
-13.45
-13.98
-14.27
-14.55
-14.97
-15.60
-16.33
-17.04
-17.64
-18.09
-18.44
-18.65
-18.57
-17.96
-16.63
-14.50
-11.70
-8.53
-5.35
-2.52
-0.27
1.26
2.01
2.00
1.39
0.42
-0.51
-0.90
-0.26
1.77
5.36
10.45
16.81
24.20
32.46
41.61
51.71
62.75
74.47
86.27
97.26
106.47
113.02
116.43
116.66
114.16
109.67
104.08
98.14
92.33
86.77
81.30
75.60
69.32
62.29
54.66
46.85
39.52
33.29
28.41
24.58
21.05
16.85
11.40
4.84
-1.95
-7.81
-11.87
-14.03
-15.08
-16.25
-18.74
-23.25
-29.83
-37.99
-46.66
-54.11
-58.12
-56.54
-48.20
-33.98
-16.91
-1.26
8.96
11.57
6.92
-2.60
-13.85
-24.36
-33.15
-40.32
-46.13
-50.47
-52.69
-52.08
-48.43
-42.29
-34.79
-27.51
-21.71
-17.70
-15.10
-13.37
-12.21
-12.01
-13.51
-17.32
-23.73
-32.10
-40.57
-46.90
-49.33
-47.09
-40.86
-32.34
-21.59
-10.08
-0.49
5.09
6.90
6.04
5.57
7.57
12.41
18.72
25.22
29.59
30.10
26.23
18.56
8.48
-2.56
-13.31
-22.84
-30.75
-36.92
-41.01
-42.61
-41.66
-38.34
-33.34
-27.45
-21.38
-15.78
-11.15
-7.57
-4.81
-2.67
-0.97
0.23
0.80
0.71
0.06
-0.93
-1.75
-1.88
-1.09
0.54
2.53
4.23
5.04
4.54
2.55
-0.74
-4.93
-9.49
-13.87
-17.59
-20.23
-21.53
-21.45
-20.25
-18.35
-16.23
-14.22
-12.40
-10.55
-8.35
-5.55
-2.20
1.32
4.42
6.50
7.19
6.54
4.92
2.99
1.39
0.57
0.68
1.53
2.72
3.73
4.11
3.55
1.90
-0.82
-4.46
-8.70
-13.08
-17.06
-20.15
-21.99
-22.56
-22.08
-20.94
-19.45
-17.72
-15.60
-12.77
-9.01
-4.36
0.82
5.94
10.41
13.81
15.96
16.88
16.72
15.64
13.84
11.55
9.08
6.70
4.65
3.05
1.93
1.20
0.74
0.44
0.18
-0.12
-0.51
-1.00
-1.52
-1.96
-2.22
-2.25
-2.09
-1.82
-1.60
-1.58
-1.90
-2.67
-4.02
-6.01
-8.55
-11.41
-14.19
-16.39
-17.57
-17.42
-15.94
-13.38
-10.19
-6.86
-3.72
-0.95
1.41
3.30
4.66
5.33
5.26
4.55
3.51
2.49
1.75
1.35
1.13
0.83
0.24
-0.65
-1.77
-2.96
-4.15
-5.35
-6.62
-8.05
-9.62
-11.31
-13.03
-14.75
-16.48
-18.25
-20.07
-21.82
-23.31
-24.30
-24.55
-23.88
-22.17
-19.45
-15.79
-11.44
-6.77
-2.29
1.52
4.23
5.68
5.93
5.27
4.12
2.84
1.72
0.89
0.40
0.14
-0.03
-0.31
-0.87
-1.78
-3.04
-4.53
-6.05
-7.39
-8.41
-9.07
-9.49
-9.93
-10.70
-12.10
-14.25
-17.02
-20.02
-22.65
-24.30
-24.52
-23.15
-20.36
-16.56
-12.20
-7.71
-3.37
0.61
4.09
6.92
8.97
10.21
10.74
10.81
10.72
10.67
10.72
10.77
10.68
10.33
9.76
9.07
8.40
7.81
7.25
6.58
5.64
4.32
2.56
0.39
-2.14
-5.00
-8.09
-11.25
-14.23
-16.71
-18.33
-18.81
-18.03
-16.00
-12.90
-8.99
-4.59
-0.02
4.41
8.45
11.89
14.61
16.49
17.47
17.53
16.73
15.23
13.31
11.27
9.35
7.66
6.14
4.65
3.06
1.31
-0.54
-2.37
-4.09
-5.67
-7.20
-8.84
-10.74
-13.05
-15.84
-19.14
-22.87
-26.82
-30.59
-33.65
-35.46
-35.62
-34.03
-30.92
-26.75
-22.06
-17.31
-12.80
-8.72
-5.27
-2.63
-1.00
-0.49
-1.06
-2.46
-4.36
-6.39
-8.24
-9.74
-10.84
-11.62
-12.20
-12.69
-13.15
-13.52
-13.68
-13.54
-13.05
-12.24
-11.26
-10.27
-9.41
-8.78
-8.49
-8.61
-9.15
-10.00
-10.88
-11.35
-10.95
-9.29
-6.19
-1.68
4.01
10.55
17.48
24.34
30.62
35.90
39.84
42.30
43.35
43.20
42.16
40.61
38.91
37.37
36.24
35.62
35.45
35.47
35.32
34.63
33.13
30.75
27.58
23.86
19.82
15.62
11.28
6.69
1.70
-3.79
-9.69
-15.65
-21.01
-24.99
-26.89
-26.29
-23.22
-18.11
-11.63
-4.50
2.64
9.32
15.14
19.77
22.98
24.65
24.87
23.92
22.16
19.94
17.52
15.10
12.77
10.59
8.59
6.75
5.03
3.34
1.63
-0.09
-1.83
-3.51
-5.12
-6.65
-8.10
-9.59
-11.28
-13.38
-16.05
-19.28
-22.83
-26.21
-28.80
-29.94
-29.15
-26.24
-21.32
-14.78
-7.23
0.59
7.94
14.17
18.83
21.77
23.10
23.18
22.43
21.26
19.91
18.51
17.09
15.67
14.33
13.15
12.21
11.51
10.97
10.44
9.80
8.96
7.89
6.61
5.14
3.50
1.74
-0.08
-1.87
-3.59
-5.29
-7.16
-9.41
-12.17
-15.38
-18.70
-21.59
-23.43
-23.69
-22.04
-18.45
-13.16
-6.68
0.36
7.25
13.36
18.26
21.72
23.77
24.60
24.46
23.65
22.41
20.97
19.46
17.99
16.60
15.30
14.06
12.86
11.71
10.58
9.48
8.38
7.22
5.98
4.65
3.27
1.88
0.50
-0.87
-2.31
-3.93
-5.85
-8.20
-11.00
-14.15
-17.34
-20.14
-21.99
-22.39
-21.03
-17.96
-13.54
-8.40
-3.19
1.55
5.55
8.70
11.00
12.42
12.95
12.56
11.36
9.56
7.51
5.55
3.91
2.72
1.96
1.48
1.12
0.70
0.04
-0.96
-2.28
-3.85
-5.53
-7.22
-8.91
-10.63
-12.41
-14.27
-16.16
-18.03
-19.85
-21.67
-23.49
-25.21
-26.52
-26.91
-25.82
-22.88
-18.09
-11.93
-5.19
1.25
6.68
10.80
13.61
15.31
16.14
16.23
15.61
14.34
12.54
10.46
8.38
6.54
5.05
3.94
3.17
2.65
2.32
2.07
1.76
1.21
0.31
-1.01
-2.69
-4.58
-6.54
-8.43
-10.23
-12.06
-14.11
-16.60
-19.65
-23.12
-26.55
-29.23
-30.41
-29.52
-26.39
-21.30
-14.88
-7.94
-1.21
4.72
9.49
12.93
15.03
15.88
15.70
14.72
13.22
11.48
9.72
8.08
6.62
5.30
4.06
2.85
1.69
0.69
0.00
-0.33
-0.38
-0.37
-0.56
-1.16
-2.23
-3.66
-5.31
-7.05
-8.89
-10.89
-13.10
-15.48
-17.73
-19.38
-19.87
-18.72
-15.72
-11.03
-5.11
1.37
7.74
13.50
18.33
22.08
24.72
26.29
26.89
26.62
25.64
24.13
22.29
20.29
18.26
16.25
14.28
12.37
10.54
8.82
7.26
5.83
4.48
3.06
1.46
-0.41
-2.52
-4.75
-6.94
-9.00
-10.90
-12.77
-14.79
-17.08
-19.61
-22.14
-24.15
-25.05
-24.25
-21.43
-16.61
-10.17
-2.77
4.82
11.88
17.88
22.47
25.55
27.17
27.47
26.66
24.98
22.69
20.12
17.60
15.41
13.72
12.47
11.49
10.56
9.50
8.23
6.78
5.18
3.43
1.51
-0.57
-2.79
-5.10
-7.50
-10.07
-12.96
-16.25
-19.83
-23.27
-25.96
-27.22
-26.57
-23.85
-19.29
-13.37
-6.79
-0.20
5.81
10.83
14.61
17.12
18.45
18.77
18.30
17.24
15.75
14.00
12.14
10.37
8.79
7.44
6.25
5.06
3.73
2.19
0.50
-1.17
-2.66
-3.90
-4.98
-6.08
-7.46
-9.35
-11.89
-15.07
-18.67
-22.28
-25.28
-26.97
-26.73
-24.23
-19.54
-13.14
-5.77
1.78
8.84
14.95
19.86
23.48
25.80
26.91
26.94
26.11
24.72
23.04
21.31
19.67
18.14
16.66
15.15
13.55
11.84
10.06
8.32
6.69
5.24
3.97
2.86
1.82
0.75
-0.49
-2.06
-4.13
-6.82
-10.12
-13.81
-17.46
-20.45
-22.06
-21.69
-19.02
-14.18
-7.72
-0.49
6.56
12.67
17.38
20.58
22.43
23.17
23.07
22.31
21.07
19.54
17.90
16.35
15.02
13.95
13.10
12.41
11.76
11.07
10.21
9.09
7.61
5.73
3.47
0.91
-1.80
-4.48
-6.96
-9.16
-11.08
-12.87
-14.77
-17.00
-19.60
-22.36
-24.75
-26.05
-25.59
-22.99
-18.36
-12.22
-5.38
1.34
7.32
12.19
15.76
17.95
18.75
18.22
16.57
14.18
11.46
8.84
6.59
4.81
3.51
2.62
2.10
1.91
1.94
2.04
2.02
1.74
1.17
0.40
-0.44
-1.24
-1.98
-2.78
-3.80
-5.16
-6.97
-9.21
-11.76
-14.37
-16.62
-17.98
-17.90
-15.97
-12.13
-6.74
-0.51
5.73
11.23
15.55
18.57
20.35
21.05
20.78
19.64
17.75
15.35
12.74
10.24
8.12
6.50
5.36
4.56
3.95
3.37
2.76
2.11
1.46
0.84
0.23
-0.47
-1.36
-2.55
-4.09
-6.01
-8.29
-10.97
-14.03
-17.34
-20.57
-23.22
-24.67
-24.43
-22.24
-18.21
-12.82
-6.72
-0.69
4.65
8.87
11.79
13.45
13.99
13.64
12.59
11.04
9.17
7.20
5.37
3.87
2.84
2.27
2.04
1.96
1.85
1.60
1.17
0.57
-0.19
-1.10
-2.19
-3.42
-4.74
-6.07
-7.37
-8.67
-10.06
-11.68
-13.56
-15.59
-17.48
-18.78
-19.03
-17.80
-14.90
-10.41
-4.68
1.69
8.00
13.60
17.97
20.85
22.18
22.14
21.03
19.24
17.20
15.26
13.63
12.31
11.15
10.00
8.74
7.38
6.00
4.67
3.47
2.41
1.51
0.76
0.12
-0.51
-1.31
-2.38
-3.75
-5.32
-6.94
-8.50
-10.08
-11.90
-14.12
-16.75
-19.44
-21.57
-22.42
-21.43
-18.44
-13.72
-7.86
-1.63
4.29
9.43
13.53
16.48
18.28
18.93
18.52
17.22
15.30
13.06
10.77
8.62
6.69
5.00
3.57
2.39
1.41
0.55
-0.35
-1.43
-2.80
-4.44
-6.20
-7.91
-9.40
-10.63
-11.64
-12.55
-13.49
-14.64
-16.13
-17.99
-20.10
-22.11
-23.49
-23.62
-22.05
-18.65
-13.75
-7.98
-2.14
3.06
7.17
10.07
11.81
12.58
12.60
12.01
10.97
9.64
8.18
6.75
5.50
4.50
3.71
3.04
2.37
1.63
0.80
-0.07
-0.95
-1.88
-2.94
-4.22
-5.71
-7.32
-8.85
-10.23
-11.49
-12.83
-14.48
-16.58
-18.96
-21.20
-22.74
-23.01
-21.65
-18.60
-14.12
-8.71
-3.03
2.28
6.70
9.95
11.94
12.83
12.83
12.24
11.29
10.19
9.05
7.93
6.86
5.83
4.90
4.17
3.70
3.49
3.46
3.40
3.10
2.45
1.41
0.05
-1.55
-3.36
-5.34
-7.45
-9.61
-11.75
-13.84
-15.97
-18.23
-20.64
-23.00
-24.83
-25.52
-24.50
-21.52
-16.76
-10.79
-4.37
1.78
7.12
11.42
14.61
16.74
17.88
18.08
17.44
16.13
14.41
12.59
10.93
9.56
8.49
7.65
6.90
6.21
5.59
5.11
4.77
4.49
4.10
3.42
2.41
1.14
-0.14
-1.19
-1.91
-2.42
-3.01
-4.08
-5.90
-8.51
-11.64
-14.76
-17.24
-18.46
-17.97
-15.60
-11.47
-5.97
0.29
6.61
12.30
16.84
19.90
21.40
21.52
20.60
19.05
17.25
15.43
13.67
11.93
10.19
8.51
7.05
5.95
5.24
4.77
4.26
3.48
2.34
0.98
-0.37
-1.59
-2.69
-3.86
-5.29
-7.12
-9.33
-11.83
-14.56
-17.48
-20.54
-23.50
-25.90
-27.16
-26.70
-24.21
-19.80
-14.00
-7.63
-1.54
3.63
7.50
10.04
11.40
11.82
11.50
10.62
9.33
7.78
6.18
4.74
3.63
2.92
2.52
2.27
1.98
1.56
1.01
0.41
-0.12
-0.55
-0.96
-1.49
-2.35
-3.69
-5.58
-8.02
-10.98
-14.35
-17.93
-21.36
-24.12
-25.57
-25.21
-22.83
-18.61
-13.11
-7.05
-1.08
4.34
8.97
12.71
15.45
17.15
17.80
17.54
16.62
15.36
14.07
12.89
11.85
10.93
10.12
9.45
8.92
8.48
7.97
7.19
5.99
4.37
2.52
0.69
-0.85
-2.03
-2.98
-4.03
-5.50
-7.64
-10.47
-13.84
-17.45
-20.87
-23.63
-25.18
-25.05
-22.93
-18.80
-13.03
-6.32
0.51
6.67
11.64
15.18
17.32
18.27
18.33
17.82
17.05
16.26
15.57
14.97
14.35
13.55
12.53
11.31
10.08
9.04
8.32
7.90
7.62
7.24
6.53
5.39
3.85
2.02
0.03
-2.02
-4.09
-6.17
-8.29
-10.50
-12.81
-15.24
-17.66
-19.76
-21.06
-20.99
-19.14
-15.41
-10.15
-4.03
2.17
7.78
12.41
15.91
18.31
19.72
20.21
19.92
18.98
17.64
16.15
14.74
13.53
12.54
11.70
10.92
10.14
9.37
8.62
7.89
7.16
6.34
5.35
4.17
2.86
1.53
0.30
-0.78
-1.74
-2.73
-3.89
-5.37
-7.21
-9.29
-11.36
-12.99
-13.67
-12.85
-10.17
-5.52
0.80
8.18
15.85
23.06
29.29
34.27
37.95
40.30
41.28
40.82
38.87
35.57
31.26
26.44
21.63
17.20
13.30
9.81
6.49
3.09
-0.50
-4.18
-7.75
-10.96
-13.68
-15.98
-18.09
-20.31
-22.82
-25.66
-28.66
-31.60
-34.30
-36.59
-38.35
-39.37
-39.34
-37.94
-35.00
-30.68
-25.41
-19.86
-14.65
-10.19
-6.60
-3.82
-1.77
-0.44
0.03
-0.47
-1.87
-3.85
-5.85
-7.29
-7.83
-7.45
-6.46
-5.41
-4.82
-5.04
-6.16
-8.01
-10.26
-12.55
-14.60
-16.28
-17.66
-19.01
-20.73
-23.13
-26.29
-29.89
-33.11
-34.92
-34.33
-30.82
-24.52
-16.25
-7.20
1.42
8.77
14.53
18.84
22.10
24.79
27.35
30.01
32.80
35.40
37.15
37.28
35.10
30.48
23.96
16.73
10.20
5.42
2.74
1.69
1.35
0.88
-0.07
-1.23
-2.05
-2.16
-1.70
-1.35
-2.06
-4.57
-9.05
-15.03
-21.60
-27.82
-33.01
-36.82
-39.15
-39.89
-38.80
-35.60
-30.14
-22.73
-14.21
-5.79
1.30
6.24
8.96
10.07
10.56
11.37
13.03
15.57
18.63
21.72
24.40
26.41
27.65
28.08
27.73
26.67
25.08
23.22
21.40
19.95
19.03
18.60
18.34
17.75
16.39
14.12
11.23
8.44
6.70
6.77
8.99
13.16
18.63
24.59
30.24
34.96
38.32
40.12
40.35
39.20
37.07
34.47
31.91
29.71
28.00
26.68
25.58
24.52
23.41
22.27
21.09
19.86
18.54
17.09
15.49
13.73
11.83
9.78
7.55
5.08
2.35
-0.63
-3.80
-7.02
-10.08
-12.68
-14.47
-15.16
-14.65
-13.13
-11.07
-9.06
-7.56
-6.76
-6.53
-6.53
-6.48
-6.25
-5.89
-5.55
-5.35
-5.28
-5.29
-5.29
-5.26
-5.24
-5.27
-5.43
-5.80
-6.46
-7.46
-8.74
-10.17
-11.53
-12.58
-13.22
-13.46
-13.45
-13.41
-13.56
-14.10
-15.13
-16.60
-18.29
-19.74
-20.32
-19.48
-16.90
-12.74
-7.61
-2.39
2.10
5.37
7.32
8.23
8.48
8.35
7.95
7.23
6.11
4.59
2.80
0.94
-0.80
-2.30
-3.60
-4.79
-6.01
-7.30
-8.60
-9.71
-10.38
-10.33
-9.43
-7.78
-5.69
-3.63
-2.12
-1.52
-2.00
-3.40
-5.28
-7.02
-7.92
-7.45
-5.34
-1.70
3.01
8.12
12.92
16.82
19.45
20.72
20.67
19.43
17.11
13.86
9.86
5.39
0.85
-3.41
-7.12
-10.16
-12.63
-14.66
-16.43
-18.01
-19.45
-20.77
-21.95
-22.99
-23.86
-24.51
-24.94
-25.21
-25.41
-25.71
-26.22
-26.91
-27.62
-28.02
-27.75
-26.46
-23.92
-20.13
-15.32
-9.89
-4.35
0.83
5.28
8.79
11.36
13.09
14.16
14.79
15.14
15.33
15.39
15.35
15.21
14.94
14.48
13.71
12.52
10.83
8.70
6.31
3.87
1.53
-0.72
-3.05
-5.60
-8.41
-11.35
-14.20
-16.81
-19.21
-21.65
-24.41
-27.60
-30.99
-33.95
-35.69
-35.48
-32.94
-28.13
-21.52
-13.82
-5.76
1.96
8.83
14.45
18.60
21.22
22.46
22.60
22.01
21.01
19.81
18.47
16.94
15.13
12.99
10.53
7.81
4.92
1.97
-0.97
-3.82
-6.56
-9.12
-11.44
-13.42
-15.01
-16.22
-17.14
-17.98
-18.99
-20.40
-22.31
-24.63
-26.98
-28.76
-29.28
-28.00
-24.70
-19.59
-13.28
-6.57
-0.21
5.26
9.55
12.56
14.33
14.94
14.57
13.51
12.12
10.79
9.85
9.47
9.65
10.24
10.95
11.52
11.70
11.34
10.43
9.09
7.51
5.91
4.49
3.29
2.21
1.06
-0.47
-2.62
-5.51
-9.08
-12.94
-16.48
-18.96
-19.68
-18.26
-14.67
-9.29
-2.81
4.02
10.49
16.04
20.25
22.82
23.59
22.49
19.66
15.44
10.37
5.01
-0.13
-4.79
-8.92
-12.67
-16.22
-19.68
-23.05
-26.25
-29.20
-31.89
-34.30
-36.44
-38.32
-39.95
-41.48
-43.12
-45.18
-47.79
-50.75
-53.42
-54.84
-54.05
-50.46
-44.08
-35.53
-25.82
-15.98
-6.78
1.33
8.22
13.83
18.13
21.08
22.73
23.31
23.26
23.05
23.12
23.65
24.66
25.95
27.29
28.44
29.28
29.73
29.79
29.43
28.64
27.39
25.67
23.47
20.77
17.49
13.54
8.83
3.40
-2.50
-8.32
-13.25
-16.39
-17.00
-14.69
-9.62
-2.43
5.93
14.42
22.14
28.49
33.14
35.98
37.13
36.78
35.28
32.99
30.33
27.62
25.07
22.77
20.70
18.86
17.19
15.62
14.00
12.09
9.70
6.72
3.25
-0.50
-4.26
-7.91
-11.47
-15.10
-18.95
-22.98
-26.91
-30.19
-32.15
-32.20
-29.94
-25.35
-18.80
-11.00
-2.79
5.00
11.86
17.52
21.96
25.28
27.52
28.70
28.88
28.28
27.25
26.25
25.54
25.16
24.88
24.27
22.92
20.52
16.96
12.30
6.82
0.98
-4.59
-9.22
-12.40
-13.90
-13.90
-12.85
-11.31
-9.74
-8.28
-6.83
-5.08
-2.73
0.41
4.21
8.32
12.26
15.56
17.86
19.02
19.09
18.25
16.76
14.84
12.66
10.41
8.27
6.34
4.59
2.95
1.48
0.35
-0.15
0.36
2.22
5.59
10.23
15.51
20.51
24.46
26.62
26.19
22.69
16.20
7.63
-1.51
-9.48
-14.77
-16.02
-13.13
-7.48
-1.31
3.54
6.46
8.05
9.70
12.87
19.25
29.11
40.91
52.02
60.25
64.67
65.31
62.84
58.36
54.44
53.34
56.01
61.87
69.49
77.01
82.16
82.81
70.52
43.26
7.45
-26.23
-50.67
-65.12
-72.64
-77.31
-82.06
-87.98
-93.35
-96.23
-95.97
-93.33
-90.38
-87.37
-83.97
-79.55
-73.65
-65.30
-54.50
-42.62
-31.72
-23.28
-17.43
-13.47
-10.38
-7.25
-3.28
1.53
6.39
10.22
12.47
13.53
14.13
14.93
16.12
17.70
19.19
19.86
19.07
16.60
12.84
8.37
3.70
-0.77
-4.72
-7.97
-10.52
-12.49
-14.05
-15.29
-16.22
-16.74
-16.65
-15.76
-13.96
-11.45
-8.60
-5.89
-3.67
-2.12
-1.25
-0.93
-1.06
-1.59
-2.63
-4.25
-6.43
-9.03
-11.89
-14.76
-17.50
-20.01
-22.18
-24.12
-25.89
-27.52
-28.97
-30.23
-31.24
-32.05
-32.77
-33.40
-34.53
-36.37
-38.92
-41.92
-44.91
-47.39
-48.96
-49.42
-48.17
-45.89
-42.56
-38.00
-31.84
-23.61
-12.84
0.83
17.52
37.77
59.51
80.80
99.16
112.06
117.80
116.17
108.70
98.31
89.60
84.32
84.28
89.72
99.47
111.29
122.51
130.64
126.39
118.23
104.71
86.20
63.24
36.44
6.73
-24.37
-54.60
-81.43
-101.51
-115.01
-122.14
-124.11
-122.45
-118.34
-112.43
-104.96
-96.29
-86.27
-77.04
-69.72
-64.88
-62.18
-60.57
-58.63
-55.26
-50.01
-42.63
-34.48
-26.38
-18.89
-12.18
-6.22
-0.87
3.89
7.98
11.57
14.35
16.40
17.91
19.03
19.80
20.04
19.51
18.03
15.74
12.92
10.19
8.28
7.70
8.62
10.84
13.90
17.26
20.46
23.21
25.34
26.83
27.68
27.92
27.57
26.72
25.51
24.09
22.59
21.08
19.59
18.02
16.31
14.43
12.40
10.31
8.26
6.26
4.30
2.37
0.47
-1.31
-2.85
-4.15
-5.30
-6.52
-8.07
-10.13
-12.62
-15.27
-17.62
-19.19
-19.56
-18.50
-16.01
-12.27
-7.66
-2.65
2.25
6.58
10.05
12.53
14.04
14.69
14.64
14.04
13.05
11.88
10.70
9.67
8.87
8.37
8.13
8.08
8.05
7.84
7.23
6.04
4.29
2.15
-0.10
-2.18
-3.92
-5.32
-6.51
-7.69
-9.04
-10.65
-12.49
-14.43
-16.29
-17.78
-18.62
-18.52
-17.28
-14.87
-11.43
-7.31
-2.97
1.15
4.76
7.74
10.09
11.90
13.20
13.98
14.22
13.98
13.35
12.51
11.60
10.71
9.89
9.14
8.50
8.01
7.63
7.28
6.77
5.92
4.65
3.03
1.24
-0.47
-1.98
-3.28
-4.52
-5.90
-7.55
-9.43
-11.31
-12.82
-13.55
-13.25
-11.85
-9.53
-6.59
-3.41
-0.27
2.65
5.22
7.31
8.79
9.53
9.51
8.88
7.93
7.03
6.39
6.11
6.07
6.13
6.18
6.16
6.02
5.73
5.17
4.26
2.98
1.44
-0.19
-1.72
-3.06
-4.24
-5.39
-6.66
-8.17
-9.91
-11.74
-13.37
-14.45
-14.65
-13.69
-11.51
-8.23
-4.20
0.11
4.19
7.60
10.11
11.70
12.55
12.92
13.03
13.01
12.85
12.51
11.99
11.35
10.72
10.20
9.79
9.44
9.02
8.46
7.72
6.83
5.85
4.79
3.65
2.41
1.07
-0.30
-1.60
-2.79
-3.86
-4.92
-6.12
-7.44
-8.74
-9.66
-9.83
-9.00
-7.14
-4.51
-1.50
1.52
4.31
6.79
8.94
10.74
12.07
12.82
12.89
12.36
11.37
10.20
9.06
8.08
7.30
6.70
6.25
5.94
5.73
5.58
5.37
4.94
4.21
3.17
1.91
0.56
-0.76
-1.95
-3.00
-3.90
-4.69
-5.41
-6.13
-6.97
-7.95
-9.02
-9.94
-10.40
-10.07
-8.80
-6.67
-3.99
-1.14
1.52
3.78
5.54
6.79
7.54
7.83
7.75
7.47
7.19
7.11
7.26
7.59
7.90
8.02
7.84
7.40
6.82
6.21
5.63
5.08
4.49
3.84
3.15
2.47
1.90
1.48
1.15
0.81
0.29
-0.50
-1.59
-2.91
-4.29
-5.56
-6.52
-7.02
-6.93
-6.21
-4.91
-3.16
-1.15
0.89
2.78
4.37
5.56
6.33
6.71
6.74
6.50
6.09
5.58
5.03
4.41
3.72
2.97
2.22
1.57
1.10
0.84
0.74
0.72
0.65
0.46
0.09
-0.46
-1.15
-1.94
-2.79
-3.72
-4.74
-5.91
-7.25
-8.67
-9.98
-10.90
-11.18
-10.65
-9.34
-7.40
-5.07
-2.60
-0.15
2.13
4.14
5.76
6.86
7.40
7.42
7.10
6.63
6.23
5.98
5.86
5.75
5.56
5.22
4.76
4.25
3.77
3.41
3.13
2.86
2.44
1.78
0.82
-0.36
-1.63
-2.82
-3.82
-4.62
-5.31
-6.03
-6.88
-7.89
-8.97
-9.94
-10.58
-10.68
-10.09
-8.76
-6.80
-4.34
-1.64
1.04
3.44
5.37
6.73
7.54
7.92
8.06
8.10
8.09
8.03
7.87
7.59
7.23
6.84
6.51
6.22
5.91
5.51
4.98
4.35
3.67
3.02
2.39
1.76
1.09
0.35
-0.47
-1.32
-2.21
-3.17
-4.25
-5.50
-6.89
-8.30
-9.52
-10.32
-10.48
-9.87
-8.50
-6.50
-4.08
-1.54
0.85
2.88
4.46
5.57
6.32
6.79
7.08
7.24
7.27
7.15
6.84
6.35
5.75
5.16
4.71
4.47
4.44
4.47
4.38
4.00
3.27
2.25
1.09
-0.02
-0.97
-1.73
-2.34
-2.91
-3.53
-4.27
-5.15
-6.15
-7.24
-8.39
-9.46
-10.27
-10.58
-10.18
-8.99
-7.13
-4.86
-2.52
-0.37
1.45
2.95
4.20
5.27
6.13
6.71
6.92
6.72
6.19
5.51
4.84
4.31
3.98
3.78
3.61
3.37
3.05
2.69
2.37
2.15
2.03
1.89
1.63
1.15
0.42
-0.44
-1.35
-2.25
-3.16
-4.17
-5.31
-6.47
-7.45
-7.98
-7.85
-7.03
-5.66
-3.97
-2.21
-0.54
0.92
2.13
3.05
3.66
3.93
3.89
3.59
3.11
2.54
1.94
1.38
0.91
0.56
0.34
0.22
0.14
-0.03
-0.41
-1.12
-2.22
-3.68
-5.39
-7.19
-8.89
-10.36
-11.53
-12.41
-13.03
-13.49
-13.85
-14.12
-14.32
-14.37
-14.13
-13.45
-12.17
-10.25
-7.79
-5.04
-2.30
0.13
2.08
3.50
4.46
5.04
5.28
5.17
4.74
4.08
3.35
2.82
2.68
3.04
3.81
4.76
5.61
6.10
6.17
5.84
5.25
4.49
3.56
2.39
0.89
-0.94
-3.00
-5.09
-7.00
-8.61
-9.96
-11.15
-12.28
-13.29
-13.94
-13.90
-12.91
-10.95
-8.34
-5.61
-3.28
-1.66
-0.74
-0.29
-0.08
0.05
0.04
-0.18
-0.62
-1.14
-1.53
-1.60
-1.36
-0.96
-0.67
-0.67
-1.03
-1.64
-2.29
-2.82
-3.18
-3.42
-3.71
-4.20
-4.95
-5.87
-6.78
-7.45
-7.76
-7.74
-7.52
-7.30
-7.25
-7.46
-7.93
-8.57
-9.22
-9.63
-9.56
-8.78
-7.22
-4.97
-2.32
0.37
2.76
4.69
6.14
7.20
7.96
8.45
8.60
8.37
7.75
6.81
5.72
4.64
3.72
3.00
2.46
2.03
1.64
1.25
0.84
0.41
-0.08
-0.70
-1.48
-2.45
-3.58
-4.78
-5.92
-6.93
-7.78
-8.52
-9.23
-9.93
-10.56
-10.95
-10.88
-10.16
-8.71
-6.55
-3.86
-0.88
2.10
4.87
7.28
9.24
10.72
11.70
12.22
12.30
12.04
11.55
10.97
10.45
10.08
9.83
9.62
9.34
8.92
8.36
7.77
7.24
6.83
6.54
6.33
6.18
6.11
6.18
6.39
6.64
6.67
6.17
4.86
2.66
-0.30
-3.64
-6.96
-9.87
-12.06
-13.41
-13.91
-13.64
-12.77
-11.52
-10.11
-8.75
-7.58
-6.65
-5.94
-5.34
-4.75
-4.10
-3.35
-2.53
-1.72
-0.95
-0.21
0.55
1.34
2.09
2.59
2.61
1.96
0.70
-0.92
-2.50
-3.70
-4.35
-4.50
-4.32
-4.01
-3.72
-3.49
-3.42
-3.55
-3.96
-4.58
-5.21
-5.54
-5.19
-3.92
-1.66
1.40
4.93
8.47
11.65
14.19
15.94
16.91
17.22
17.01
16.44
15.69
14.83
13.92
12.98
11.99
10.97
9.93
8.94
8.05
7.29
6.64
6.04
5.41
4.72
3.98
3.29
2.71
2.26
1.90
1.53
1.06
0.42
-0.42
-1.45
-2.65
-3.99
-5.33
-6.41
-6.91
-6.55
-5.25
-3.12
-0.53
2.11
4.45
6.32
7.78
8.96
9.98
10.88
11.59
11.99
12.03
11.71
11.19
10.62
10.11
9.71
9.34
8.93
8.46
7.99
7.60
7.33
7.09
6.70
5.96
4.74
3.10
1.23
-0.62
-2.26
-3.62
-4.74
-5.72
-6.66
-7.55
-8.32
-8.84
-8.98
-8.61
-7.68
-6.19
-4.25
-2.04
0.18
2.14
3.64
4.62
5.17
5.50
5.83
6.34
7.04
7.83
8.55
9.05
9.29
9.28
9.13
8.94
8.80
8.74
8.78
8.89
9.05
9.21
9.37
9.57
9.90
10.42
11.04
11.51
11.38
10.13
7.39
3.07
-2.54
-8.80
-14.88
-20.05
-23.73
-25.72
-26.08
-25.07
-23.07
-20.46
-17.64
-14.96
-12.73
-11.12
-10.14
-9.65
-9.41
-9.19
-8.82
-8.26
-7.50
-6.63
-5.78
-5.07
-4.59
-4.35
-4.26
-4.17
-3.97
-3.66
-3.38
-3.28
-3.48
-3.90
-4.39
-4.76
-4.95
-5.00
-5.03
-5.09
-5.15
-5.06
-4.67
-3.85
-2.60
-1.01
0.80
2.63
4.31
5.70
6.67
7.22
7.41
7.36
7.19
6.97
6.72
6.41
6.03
5.65
5.33
5.14
5.05
4.94
4.63
3.96
2.86
1.45
-0.11
-1.60
-2.88
-3.90
-4.69
-5.35
-5.98
-6.67
-7.47
-8.39
-9.34
-10.23
-10.90
-11.17
-10.92
-10.12
-8.80
-7.08
-5.15
-3.14
-1.21
0.54
2.04
3.21
4.00
4.40
4.44
4.20
3.78
3.27
2.72
2.14
1.52
0.87
0.24
-0.32
-0.75
-1.04
-1.23
-1.38
-1.55
-1.76
-2.08
-2.53
-3.15
-3.97
-4.93
-5.90
-6.71
-7.17
-7.14
-6.56
-5.50
-4.12
-2.60
-1.06
0.44
1.95
3.47
4.96
6.31
7.32
7.80
7.67
6.97
5.81
4.35
2.78
1.27
-0.00
-0.87
-1.25
-1.25
-1.17
-1.34
-2.03
-3.24
-4.76
-6.24
-7.41
-8.21
-8.79
-9.45
-10.38
-11.63
-13.03
-14.30
-15.15
-15.35
-14.75
-13.29
-10.96
-7.89
-4.27
-0.44
3.19
6.28
8.62
10.20
11.14
11.61
11.76
11.70
11.43
10.98
10.37
9.68
9.01
8.43
8.00
7.71
7.51
7.30
7.01
6.59
6.04
5.41
4.77
4.19
3.64
3.03
2.24
1.17
-0.16
-1.60
-2.89
-3.71
-3.84
-3.22
-1.99
-0.44
1.11
2.46
3.52
4.34
4.97
5.40
5.63
5.63
5.52
5.52
5.87
6.75
8.16
9.96
11.87
13.66
15.16
16.35
17.29
18.08
18.71
19.04
18.81
17.68
15.37
11.77
7.07
1.63
-4.03
-9.43
-14.25
-18.38
-21.87
-24.89
-27.68
-30.46
-33.38
-36.42
-39.39
-41.95
-43.72
-44.38
-43.78
-41.95
-39.11
-35.56
-31.63
-27.64
-23.83
-20.36
-17.34
-14.79
-12.72
-11.07
-9.77
-8.71
-7.74
-6.76
-5.70
-4.60
-3.55
-2.65
-1.97
-1.49
-1.13
-0.76
-0.32
0.17
0.64
0.95
1.01
0.83
0.46
-0.02
-0.54
-1.19
-2.09
-3.33
-4.89
-6.62
-8.29
-9.70
-10.76
-11.45
-11.78
-11.63
-10.81
-9.16
-6.64
-3.45
0.06
3.50
6.59
9.19
11.31
13.02
14.36
15.34
15.97
16.23
16.16
15.83
15.35
14.89
14.58
14.49
14.59
14.73
14.76
14.60
14.24
13.78
13.28
12.75
12.13
11.34
10.40
9.39
8.46
7.72
7.16
6.67
6.10
5.31
4.32
3.25
2.28
1.53
1.06
0.79
0.54
0.08
-0.75
-2.00
-3.51
-4.96
-5.91
-5.99
-4.97
-2.87
0.07
3.46
6.90
10.07
12.82
15.10
16.95
18.38
19.37
19.86
19.84
19.40
18.71
17.99
17.37
16.86
16.37
15.78
15.02
14.13
13.23
12.46
11.89
11.47
11.09
10.62
10.01
9.24
8.35
7.39
6.43
5.49
4.58
3.65
2.67
1.58
0.36
-0.89
-2.04
-2.84
-3.08
-2.64
-1.57
-0.10
1.49
2.89
3.89
4.42
4.53
4.35
4.02
3.67
3.33
2.99
2.60
2.12
1.57
1.06
0.72
0.66
0.93
1.48
2.23
3.05
3.77
4.21
4.14
3.38
1.93
0.05
-1.81
-3.20
-3.89
-4.10
-4.33
-5.12
-6.69
-8.72
-10.38
-10.66
-8.72
-4.23
2.56
10.95
20.18
29.63
39.15
49.06
60.03
72.80
87.78
104.79
122.99
140.99
157.27
170.62
180.52
187.34
192.30
197.20
203.83
213.19
224.89
236.76
245.20
246.33
237.48
218.59
192.56
164.40
139.21
120.27
107.84
99.46
91.41
80.46
65.07
45.48
22.92
-1.24
-26.13
-51.17
-75.62
-98.37
-118.08
-133.83
-145.66
-154.77
-163.00
-172.11
-182.94
-194.90
-206.13
-214.12
-216.54
-212.10
-200.95
-184.64
-165.54
-146.13
-128.31
-113.06
-100.50
-90.30
-82.05
-75.48
-70.41
-66.62
-63.71
-61.43
-60.06
-60.80
-65.53
-75.99
-92.51
-113.19
-133.90
-149.35
-154.82
-147.65
-127.94
-98.19
-62.27
-24.33
11.92
43.45
67.94
83.87
90.70
88.98
80.33
67.00
51.30
35.11
19.75
5.89
-6.21
-16.61
-25.45
-32.81
-38.49
-41.99
-42.93
-41.22
-37.48
-33.06
-29.72
-28.69
-30.15
-32.97
-35.25
-35.65
-34.12
-31.99
-31.33
-34.06
-40.99
-51.79
-65.23
-79.64
-93.64
-105.46
-112.64
-112.59
-103.72
-86.17
-62.69
-37.53
-14.89
1.28
9.75
12.21
11.87
11.52
13.13
16.60
21.49
27.79
33.39
36.92
38.20
37.26
33.26
26.42
16.60
6.01
-1.31
-5.92
-9.93
-15.90
-26.95
-46.48
-74.11
-108.45
-144.37
-175.17
-201.26
-224.89
-246.99
-267.11
-285.35
-300.40
-316.05
-337.29
-335.55
-297.76
-228.54
-141.71
-47.70
31.71
100.37
155.05
188.64
195.94
174.62
127.41
65.74
9.81
-24.15
-29.34
-15.50
3.33
18.43
25.00
20.98
14.05
10.56
12.16
18.87
27.17
35.45
45.37
55.25
63.42
70.06
75.24
78.23
79.66
79.81
80.88
85.74
94.58
105.72
117.21
126.97
133.28
136.11
136.11
135.05
134.55
134.49
133.82
131.67
127.31
120.27
110.49
98.21
84.45
70.59
57.91
47.41
39.72
34.99
32.59
30.66
27.60
22.66
15.74
7.26
-1.98
-11.16
-18.79
-24.07
-28.51
-33.09
-37.48
-41.42
-44.84
-47.88
-50.76
-51.24
-47.12
-40.10
-30.82
-18.43
-3.32
13.08
29.08
43.54
59.78
80.62
101.87
120.43
136.27
148.96
158.28
164.56
168.82
177.08
193.68
213.08
230.87
247.26
262.00
274.88
285.62
267.77
209.30
152.49
112.51
77.63
44.71
12.69
-17.74
-45.33
-68.83
-82.30
-82.41
-76.21
-70.12
-64.41
-58.68
-51.98
-43.94
-42.13
-47.31
-56.60
-63.10
-68.06
-71.20
-75.20
-80.21
-86.00
-92.21
-95.40
-93.43
-89.46
-87.40
-87.59
-89.84
-93.22
-96.93
-100.26
-100.88
-97.47
-91.85
-86.80
-82.95
-80.40
-78.64
-77.33
-76.29
-74.54
-71.49
-67.66
-64.15
-60.97
-57.87
-54.39
-50.25
-45.21
-38.70
-30.31
-19.97
-8.41
3.61
15.25
25.74
34.46
41.02
45.39
47.59
47.56
45.03
39.92
32.56
23.78
14.74
6.61
0.16
-4.50
-7.79
-10.22
-11.87
-12.30
-10.71
-6.49
0.28
8.75
17.59
25.65
32.36
37.90
43.01
48.57
55.35
63.87
74.25
86.18
98.86
111.04
121.25
128.20
131.27
130.87
128.35
125.61
124.20
124.53
125.42
124.30
117.95
103.51
79.40
45.92
5.36
-38.23
-79.76
-114.10
-137.34
-147.79
-146.43
-136.39
-121.83
-106.55
-93.16
-83.07
-77.11
-76.06
-80.60
-90.74
-104.94
-119.92
-131.39
-135.44
-129.92
-115.19
-93.90
-69.97
-47.31
-28.78
-15.70
-7.97
-4.49
-3.74
-4.32
-5.23
-6.03
-6.70
-7.55
-9.07
-11.81
-16.17
-22.17
-29.29
-36.42
-42.14
-45.29
-45.54
-43.72
-41.60
-41.21
-43.92
-49.83
-57.55
-64.69
-68.67
-67.54
-60.50
-48.04
-31.63
-13.30
4.96
21.65
35.94
47.72
57.34
65.22
71.64
76.53
79.62
80.64
79.55
76.68
72.58
67.88
63.00
57.98
52.46
45.78
37.10
25.71
11.39
-5.27
-22.62
-38.28
-49.66
-54.85
-53.40
-46.62
-37.21
-28.28
-22.09
-19.14
-18.01
-15.94
-10.07
1.38
18.38
39.24
61.33
82.14
100.05
114.52
125.77
134.31
140.67
145.46
149.59
154.26
160.54
168.59
177.15
183.65
185.07
179.20
165.64
145.93
122.91
99.52
77.85
58.79
42.25
27.67
14.50
2.38
-8.99
-19.94
-30.79
-41.76
-52.70
-63.02
-71.67
-77.36
-78.91
-75.69
-67.94
-56.81
-44.08
-31.49
-20.25
-10.70
-2.55
4.51
10.31
14.00
14.39
10.53
2.29
-9.53
-23.48
-38.06
-52.08
-64.84
-75.85
-84.68
-90.80
-93.83
-93.72
-90.99
-86.59
-81.63
-76.98
-73.07
-69.86
-67.01
-64.08
-60.71
-56.64
-51.77
-46.15
-39.88
-33.11
-25.87
-18.04
-9.44
-0.03
9.94
19.79
28.59
35.31
39.17
39.81
37.30
32.08
24.74
15.92
6.24
-3.75
-13.57
-22.72
-30.83
-37.61
-42.98
-46.99
-49.86
-51.82
-53.07
-53.74
-53.96
-53.97
-54.17
-55.00
-56.71
-59.18
-61.80
-63.66
-63.84
-61.71
-57.06
-50.04
-41.00
-30.34
-18.55
-6.28
5.57
16.00
24.10
29.38
31.94
32.43
31.81
31.02
30.63
30.83
31.41
32.10
32.77
33.63
35.20
38.05
42.53
48.50
55.19
61.40
65.76
67.00
64.24
57.06
45.58
30.51
13.08
-5.10
-22.53
-38.17
-51.94
-64.74
-78.12
-93.56
-111.79
-132.33
-153.61
-173.50
-189.97
-201.67
-207.96
-208.78
-204.29
-194.66
-180.15
-161.33
-139.32
-115.68
-92.19
-70.32
-50.90
-34.04
-19.33
-6.26
5.46
15.75
24.25
30.60
34.67
36.73
37.35
37.25
36.93
36.49
35.50
33.25
29.09
23.03
16.02
9.90
6.86
8.70
16.02
27.80
41.55
53.96
61.91
63.35
57.88
46.77
32.48
17.91
5.67
-2.51
-5.97
-4.99
-0.57
5.93
13.09
19.57
24.31
26.55
25.91
22.29
15.88
7.06
-3.65
-15.50
-27.52
-38.53
-47.25
-52.56
-53.78
-50.90
-44.60
-36.11
-26.69
-17.22
-7.80
2.23
13.99
28.49
46.07
66.08
86.95
106.72
123.52
136.13
144.05
147.36
146.40
141.52
133.01
121.25
106.92
91.09
75.05
60.05
46.84
35.51
25.51
16.01
6.31
-3.74
-13.76
-23.05
-30.89
-36.89
-40.96
-43.13
-43.25
-40.87
-35.29
-25.96
-12.86
3.30
21.03
38.29
52.87
62.78
66.58
63.67
54.53
40.76
24.91
9.93
-1.51
-7.72
-8.39
-4.69
1.23
6.90
10.36
10.69
8.19
4.18
0.42
-1.50
-0.71
2.71
7.95
13.71
18.58
21.35
21.07
17.30
10.17
0.61
-9.68
-18.52
-23.74
-23.88
-18.64
-8.97
3.23
15.75
26.72
35.01
40.31
42.82
42.83
40.41
35.42
27.74
17.73
6.52
-4.08
-11.98
-15.47
-13.72
-7.00
3.46
15.91
28.50
39.63
48.11
53.19
54.46
51.89
45.75
36.59
25.15
12.26
-1.17
-14.15
-25.62
-34.48
-39.74
-40.69
-37.09
-29.30
-18.21
-5.04
8.92
22.52
34.86
45.35
53.64
59.57
63.19
64.69
64.37
62.64
59.93
56.66
53.20
49.78
46.38
42.71
38.17
31.89
23.00
10.79
-4.93
-23.56
-43.56
-62.60
-77.96
-87.19
-88.84
-82.84
-70.61
-54.62
-37.74
-22.51
-10.72
-3.16
0.32
0.57
-1.10
-3.25
-4.74
-4.90
-3.74
-1.75
0.23
1.42
1.24
-0.54
-3.88
-8.52
-14.08
-20.13
-26.21
-31.91
-36.90
-40.99
-44.16
-46.49
-48.17
-49.39
-50.33
-51.09
-51.77
-52.43
-53.11
-53.57
-53.27
-51.27
-46.55
-38.32
-26.43
-11.52
5.14
22.05
38.04
52.51
65.44
77.03
87.40
96.31
103.22
107.38
108.09
104.75
97.01
84.88
68.87
50.13
30.42
11.80
-3.80
-15.05
-21.55
-23.73
-22.57
-19.15
-14.46
-9.20
-3.95
0.87
4.90
7.89
9.61
9.76
7.88
3.51
-3.54
-12.80
-23.02
-32.33
-38.80
-41.05
-38.77
-32.78
-24.77
-16.66
-10.17
-6.32
-5.31
-6.62
-9.19
-11.82
-13.53
-13.86
-12.97
-11.48
-10.27
-10.15
-11.73
-15.28
-20.75
-27.77
-35.68
-43.59
-50.56
-55.79
-58.87
-59.77
-58.82
-56.55
-53.51
-50.12
-46.70
-43.50
-40.82
-39.09
-38.79
-40.23
-43.24
-46.75
-48.94
-47.60
-40.92
-28.28
-10.61
9.82
30.20
48.14
62.32
72.46
78.92
82.07
81.91
78.06
70.17
58.41
43.61
27.21
10.89
-3.87
-15.99
-24.88
-30.27
-32.18
-30.85
-26.85
-21.06
-14.57
-8.51
-3.68
-0.38
1.67
3.08
4.45
6.03
7.52
8.20
7.17
3.90
-1.51
-8.03
-13.89
-16.97
-15.43
-8.34
3.86
19.34
35.23
48.48
56.79
59.38
57.12
52.02
46.27
41.29
37.27
33.32
28.15
20.83
11.32
0.41
-10.69
-20.88
-29.48
-36.32
-41.57
-45.59
-48.81
-51.66
-54.66
-58.33
-63.04
-68.85
-75.43
-82.12
-88.11
-92.78
-95.90
-97.66
-98.57
-99.04
-99.13
-98.17
-94.93
-87.91
-75.98
-58.86
-37.42
-13.54
10.35
31.95
49.65
62.74
71.36
76.12
77.82
77.17
74.69
70.75
65.59
59.38
52.16
43.87
34.51
24.31
13.97
4.59
-2.53
-6.38
-6.72
-4.28
-0.61
2.55
3.93
3.15
0.82
-1.83
-3.54
-3.51
-1.68
1.34
4.48
6.65
7.19
6.21
4.70
4.11
5.77
10.11
16.31
22.45
26.31
26.37
22.51
16.12
9.52
5.01
4.02
6.63
11.73
17.49
22.10
24.27
23.50
20.03
14.51
7.62
-0.20
-8.85
-18.35
-28.61
-39.19
-49.29
-57.89
-64.09
-67.29
-67.35
-64.50
-59.26
-52.41
-44.84
-37.37
-30.60
-24.60
-18.87
-12.45
-4.35
6.00
18.32
31.57
44.15
54.45
61.29
64.20
63.43
59.81
54.46
48.48
42.61
37.02
31.27
24.61
16.49
6.95
-3.21
-12.64
-19.98
-24.34
-25.57
-24.25
-21.38
-18.01
-14.99
-12.80
-11.46
-10.54
-9.25
-6.73
-2.36
3.93
11.55
19.29
25.65
29.24
29.22
25.53
19.12
11.68
5.27
1.68
1.86
5.56
11.42
17.43
21.64
22.91
21.30
17.94
14.54
12.60
12.77
14.56
16.62
17.31
15.52
11.03
4.60
-2.49
-9.03
-14.35
-18.40
-21.54
-24.16
-26.29
-27.58
-27.43
-25.21
-20.60
-13.67
-4.86
5.12
15.45
25.17
33.17
38.11
38.68
33.94
23.96
10.26
-4.26
-15.97
-21.74
-20.04
-11.56
1.18
14.83
26.55
34.79
39.49
41.46
41.68
40.70
38.61
35.23
30.48
24.58
17.93
11.06
4.37
-1.87
-7.48
-12.29
-16.09
-18.58
-19.41
-18.27
-15.04
-9.86
-3.26
3.90
10.62
15.99
19.37
20.50
19.39
16.22
11.31
5.10
-1.68
-8.14
-13.22
-16.14
-16.64
-15.20
-12.91
-11.08
-10.74
-12.20
-14.99
-18.09
-20.36
-21.00
-19.78
-16.98
-13.25
-9.35
-5.86
-3.24
-1.77
-1.51
-2.32
-3.77
-5.14
-5.59
-4.42
-1.26
3.72
9.87
16.26
21.93
26.20
28.72
29.45
28.53
26.14
22.39
17.40
11.33
4.52
-2.41
-8.61
-13.04
-14.75
-13.15
-8.32
-1.06
7.23
14.90
20.60
23.64
24.04
22.40
19.51
15.92
11.84
7.17
1.70
-4.53
-11.13
-17.27
-21.87
-23.92
-22.80
-18.49
-11.62
-3.32
5.11
12.56
18.24
21.82
23.28
22.78
20.62
17.14
12.83
8.14
3.44
-1.20
-5.97
-11.20
-16.98
-22.88
-27.82
-30.43
-29.56
-24.88
-17.25
-8.53
-0.97
3.52
4.04
0.88
-4.67
-10.86
-16.02
-18.99
-19.24
-16.85
-12.36
-6.56
-0.36
5.43
10.19
13.59
15.59
16.40
16.37
15.78
14.83
13.58
12.00
10.06
7.77
5.24
2.62
0.03
-2.47
-4.98
-7.68
-10.73
-14.17
-17.72
-20.80
-22.61
-22.43
-19.90
-15.27
-9.40
-3.53
1.11
3.69
4.07
2.74
0.68
-1.05
-1.71
-1.01
0.80
3.14
5.48
7.48
9.14
10.68
12.35
14.25
16.29
18.24
19.87
21.03
21.67
21.79
21.38
20.40
18.80
16.56
13.73
10.36
6.53
2.25
-2.47
-7.55
-12.74
-17.61
-21.55
-24.01
-24.68
-23.75
-21.85
-19.92
-18.82
-19.03
-20.36
-21.99
-22.79
-21.65
-18.04
-12.14
-4.84
2.60
9.04
13.79
16.74
18.19
18.60
18.31
17.42
15.90
13.72
11.00
8.11
5.46
3.41
2.05
1.16
0.33
-0.94
-2.94
-5.75
-9.23
-13.21
-17.58
-22.27
-27.03
-31.27
-34.05
-34.33
-31.44
-25.43
-17.09
-7.60
1.91
10.81
18.83
25.84
31.40
34.70
34.91
31.77
25.99
19.21
13.42
10.20
10.12
12.62
16.39
20.07
22.72
24.07
24.31
23.81
22.76
21.12
18.73
15.48
11.41
6.76
1.81
-3.31
-8.63
-14.27
-20.19
-25.97
-30.78
-33.64
-33.84
-31.29
-26.62
-21.02
-15.66
-11.32
-8.09
-5.44
-2.65
0.80
4.93
9.23
12.98
15.53
16.60
16.31
15.08
13.34
11.41
9.40
7.29
5.12
3.03
1.23
-0.11
-0.97
-1.45
-1.75
-2.00
-2.30
-2.73
-3.48
-4.93
-7.43
-11.14
-15.68
-20.13
-23.11
-23.30
-19.89
-12.97
-3.54
6.73
16.05
23.02
26.92
27.75
26.06
22.63
18.26
13.63
9.24
5.47
2.57
0.69
-0.15
-0.07
0.75
2.07
3.73
5.57
7.47
9.33
11.01
12.39
13.32
13.70
13.44
12.51
10.90
8.58
5.45
1.43
-3.51
-9.21
-15.20
-20.77
-25.10
-27.55
-27.85
-26.23
-23.38
-20.16
-17.40
-15.60
-14.84
-14.84
-15.08
-15.05
-14.41
-13.13
-11.40
-9.60
-8.09
-7.11
-6.70
-6.75
-7.08
-7.51
-7.89
-8.11
-8.10
-7.85
-7.47
-7.11
-6.97
-7.16
-7.57
-7.94
-7.92
-7.26
-6.03
-4.57
-3.42
-3.02
-3.43
-4.26
-4.75
-4.11
-1.83
2.06
7.00
12.05
16.26
18.99
20.02
19.52
17.91
15.61
12.94
10.10
7.23
4.50
2.12
0.32
-0.74
-1.08
-0.90
-0.53
-0.35
-0.57
-1.17
-1.89
-2.36
-2.25
-1.40
0.16
2.33
5.11
8.59
12.79
17.45
21.97
25.47
27.02
25.98
22.22
16.30
9.24
2.22
-3.73
-7.94
-10.16
-10.51
-9.45
-7.65
-5.66
-3.92
-2.73
-2.21
-2.16
-2.20
-1.91
-1.08
0.20
2.04
4.36
6.82
8.91
10.26
10.84
11.01
11.24
12.03
14.73
20.23
28.45
38.15
47.71
55.80
61.81
65.61
67.47
69.47
73.39
79.78
87.62
95.24
101.25
105.06
106.57
106.16
106.65
110.57
119.02
131.16
145.28
159.89
174.06
186.67
183.51
155.37
102.55
35.74
-31.42
-89.26
-133.41
-163.16
-180.29
-187.79
-187.08
-179.66
-167.60
-153.87
-141.40
-133.41
-130.14
-130.96
-134.16
-135.89
-132.64
-122.69
-106.89
-87.76
-68.09
-50.20
-35.77
-25.52
-18.90
-15.25
-13.48
-12.92
-12.56
-10.95
-7.36
-2.29
2.73
5.74
5.06
0.15
-8.42
-19.40
-31.28
-43.42
-55.52
-63.58
-63.65
-54.59
-39.15
-22.03
-9.11
0.25
8.19
17.03
28.51
43.19
59.27
73.96
84.81
90.58
91.74
89.23
84.29
78.07
70.82
62.24
52.38
42.01
32.37
24.91
20.02
17.44
16.44
15.87
14.64
12.07
7.90
1.94
-6.11
-16.91
-30.70
-46.71
-63.20
-77.73
-87.82
-91.77
-89.18
-80.83
-68.43
-53.75
-38.17
-22.74
-8.33
4.24
14.27
21.36
25.64
27.76
28.66
29.17
29.68
29.93
29.25
26.89
22.51
16.35
9.26
2.32
-3.49
-7.60
-10.12
-11.49
-12.15
-12.35
-12.23
-11.92
-11.56
-11.29
-11.08
-10.91
-10.60
-9.90
-8.68
-7.05
-5.22
-3.29
-0.85
3.13
9.76
20.14
34.97
53.81
74.68
94.32
109.31
117.50
118.94
114.69
107.08
98.93
92.25
87.16
82.13
75.29
65.72
53.95
39.19
21.25
1.33
-18.25
-35.34
-48.71
-57.91
-62.94
-64.29
-66.68
-74.58
-89.09
-107.77
-126.80
-143.24
-155.74
-164.51
-171.15
-182.95
-206.77
-244.25
-291.68
-343.03
-392.94
-437.42
-473.41
-468.71
-405.59
-292.97
-161.49
-42.46
46.95
103.67
133.64
146.98
153.79
156.16
149.62
132.38
105.79
73.47
39.58
8.01
-18.06
-36.69
-44.07
-40.90
-26.79
-0.87
36.14
79.84
123.36
160.08
185.98
200.95
203.79
196.17
181.63
164.10
146.24
129.77
116.08
106.15
99.16
92.63
85.71
76.62
66.23
56.11
47.96
43.11
42.06
43.74
45.44
45.22
42.30
37.63
32.91
30.10
30.76
35.65
44.43
55.39
66.52
75.60
80.71
80.30
73.88
62.53
49.00
36.97
29.75
29.54
36.77
50.24
67.34
84.58
98.12
104.07
99.11
81.31
51.24
12.41
-29.17
-66.69
-94.63
-110.40
-114.79
-111.01
-103.05
-94.26
-86.70
-81.43
-79.18
-80.71
-86.66
-96.85
-109.95
-123.62
-135.35
-143.44
-147.39
-147.64
-144.85
-139.26
-130.56
-118.31
-102.66
-84.79
-66.87
-51.47
-40.68
-35.35
-34.70
-36.53
-37.86
-35.99
-29.34
-18.03
-3.82
10.61
22.60
30.39
33.48
32.53
28.80
23.68
18.40
13.97
11.18
10.61
12.41
16.11
20.60
24.38
26.11
25.08
21.58
16.77
12.30
9.75
10.14
13.77
20.29
29.05
39.11
49.67
59.87
68.77
75.32
78.48
77.51
72.33
63.72
52.97
41.86
32.12
25.07
21.50
21.58
25.05
31.44
40.31
50.78
62.04
73.11
82.74
89.47
91.62
87.57
76.25
58.17
34.13
7.17
-18.37
-37.79
-47.32
-45.57
-34.45
-19.06
-5.33
-1.66
-13.28
-42.33
-87.49
-144.18
-205.23
-261.75
-304.36
-323.03
-314.58
-278.17
-217.78
-141.39
-58.86
20.40
89.44
144.64
187.78
217.90
237.84
250.27
256.72
257.20
250.57
235.67
197.81
158.83
119.65
84.83
58.26
42.06
36.24
39.11
48.01
60.05
74.80
87.26
95.80
99.89
100.25
98.72
97.70
99.35
104.98
116.57
131.22
147.48
163.51
177.25
186.30
188.04
179.71
158.98
125.83
79.88
24.52
-34.81
-92.14
-142.83
-185.12
-220.16
-250.54
-277.48
-300.88
-317.43
-322.99
-314.83
-293.06
-260.21
-219.90
-175.63
-130.57
-89.12
-56.65
-38.70
-38.46
-54.44
-80.09
-106.09
-124.11
-130.13
-125.32
-114.26
-101.82
-90.65
-80.67
-70.23
-57.91
-43.60
-28.28
-13.13
1.43
15.74
30.54
46.02
61.42
75.23
85.86
92.38
94.87
94.43
92.71
91.44
91.97
94.95
100.14
106.44
112.24
116.13
117.60
117.57
118.20
122.10
131.23
146.06
165.43
187.00
208.13
226.55
240.85
250.52
255.85
257.77
257.67
257.03
257.11
258.54
261.25
264.62
267.81
270.07
270.93
270.24
268.12
264.86
260.81
256.16
250.82
244.34
236.00
225.06
211.02
193.81
173.68
151.15
126.80
101.21
75.07
49.29
24.94
2.96
-16.12
-32.42
-46.58
-59.40
-71.43
-82.77
-93.17
-102.47
-110.94
-119.33
-128.57
-139.23
-151.02
-162.79
-172.94
-180.23
-184.34
-185.95
-186.39
-186.97
-188.41
-190.70
-193.38
-195.83
-197.57
-198.27
-197.61
-195.20
-190.65
-183.84
-175.12
-165.34
-155.62
-147.05
-140.40
-135.96
-133.61
-132.97
-133.63
-135.29
-137.80
-140.96
-144.46
-147.79
-150.41
-152.59
-154.68
-156.83
-158.93
-160.85
-162.39
-163.59
-164.38
-164.76
-165.61
-167.56
-170.68
-174.23
-177.28
-178.90
-178.72
-176.64
-172.85
-169.25
-166.99
-165.69
-163.83
-160.22
-154.45
-147.75
-141.39
-136.20
-136.48
-143.98
-156.26
-168.33
-176.37
-178.59
-176.97
-173.47
-169.54
-174.90
-195.23
-228.05
-264.80
-297.63
-321.17
-337.06
-347.45
-354.38
-373.72
-414.80
-473.49
-535.71
-588.92
-625.45
-649.67
-666.71
-680.36
-710.78
-768.40
-846.20
-925.43
-990.79
-1033.76
-1060.09
-1073.93
-963.94
-686.13
-292.67
105.57
426.63
625.88
747.82
824.00
874.58
913.51
927.63
908.49
862.95
809.29
763.22
734.40
717.76
708.02
701.88
683.85
646.36
595.61
547.21
514.25
503.76
509.54
523.61
538.71
540.32
520.49
481.90
435.13
390.57
355.38
328.55
307.85
291.42
274.06
253.81
233.55
219.17
215.18
223.14
239.20
258.17
275.33
286.55
291.50
293.88
299.26
311.77
332.38
358.04
384.04
405.68
419.24
422.37
413.81
393.19
361.10
319.28
270.59
218.41
165.75
114.61
65.95
20.05
-23.06
-63.44
-101.42
-137.79
-173.63
-210.30
-249.13
-291.29
-337.07
-385.11
-431.84
-471.69
-498.61
-508.37
-500.45
-478.49
-449.06
-419.08
-393.75
-375.51
-364.70
-360.78
-363.22
-371.33
-383.61
-397.20
-408.42
-414.13
-413.05
-406.23
-396.05
-384.74
-373.09
-360.20
-344.38
-324.50
-300.71
-274.27
-246.58
-218.21
-188.52
-156.14
-119.96
-79.83
-36.67
8.26
54.08
100.79
148.85
198.36
248.26
296.23
339.35
375.21
402.86
423.10
438.00
449.92
460.62
470.81
480.39
488.92
496.22
502.65
509.16
517.06
527.62
541.47
557.86
574.19
586.07
588.37
576.78
549.44
507.55
454.81
395.84
334.76
274.75
218.51
169.00
129.33
101.53
85.02
75.90
67.92
54.80
32.88
2.28
-33.78
-71.13
-106.92
-140.80
-174.39
-209.70
-247.41
-285.93
-321.75
-350.86
-370.32
-379.33
-379.42
-373.66
-365.29
-356.62
-348.51
-340.70
-332.67
-324.55
-317.54
-313.64
-314.91
-322.52
-336.02
-353.20
-370.44
-383.64
-389.40
-386.12
-374.44
-356.82
-336.42
-315.96
-296.98
-279.91
-264.73
-251.56
-241.00
-233.70
-229.79
-228.33
-227.08
-222.73
-211.25
-188.39
-150.54
-96.09
-26.91
50.63
126.26
188.03
225.86
234.70
215.90
176.17
124.74
70.15
18.10
-28.90
-70.90
-109.25
-145.63
-181.45
-217.39
-253.11
-287.11
-317.02
-340.40
-355.54
-362.01
-360.51
-352.39
-339.05
-321.72
-301.59
-279.93
-258.04
-236.89
-216.82
-197.45
-178.16
-158.64
-139.41
-121.61
-106.48
-94.58
-85.29
-76.83
-66.93
-53.72
-36.47
-15.91
6.17
27.69
47.19
64.37
80.04
95.55
112.02
129.79
148.43
167.14
185.41
203.50
222.46
243.74
268.69
298.14
332.23
370.06
409.36
446.20
475.32
491.36
490.70
473.14
442.44
405.09
367.94
335.57
308.88
285.48
261.66
234.59
203.75
170.79
138.21
107.89
80.25
54.66
30.55
8.42
-9.80
-21.62
-25.32
-21.02
-10.90
1.87
14.64
26.29
37.39
49.06
61.78
74.42
84.72
90.49
91.06
87.98
84.53
84.36
89.95
101.56
117.26
133.59
146.72
153.41
151.72
141.42
124.12
102.92
81.58
63.21
49.23
38.72
29.04
17.14
1.16
-18.69
-40.21
-60.22
-75.87
-85.48
-88.74
-86.32
-79.23
-68.48
-55.10
-40.30
-25.65
-12.99
-4.09
-0.18
-1.55
-7.42
-16.15
-25.64
-33.92
-39.54
-41.82
-40.83
-37.26
-32.28
-27.33
-24.07
-24.12
-28.64
-37.93
-51.02
-65.69
-79.00
-88.17
-91.36
-88.15
-79.38
-66.57
-51.17
-34.01
-15.17
5.87
29.75
56.70
86.10
116.41
145.36
170.44
189.73
202.52
209.56
212.73
214.17
215.53
217.37
219.24
220.26
219.83
218.03
215.65
213.71
212.96
213.55
215.31
218.11
222.26
228.26
236.07
244.39
250.56
251.24
243.70
226.98
202.00
170.75
134.98
95.56
53.07
9.18
-32.34
-66.11
-86.96
-92.29
-83.48
-65.32
-43.98
-24.55
-9.67
0.21
5.68
7.14
4.55
-2.09
-12.01
-23.56
-34.86
-44.80
-53.57
-62.46
-73.05
-86.20
-101.37
-116.61
-129.24
-136.77
-137.87
-132.84
-123.55
-112.82
-103.48
-97.43
-95.14
-95.68
-97.23
-97.73
-95.57
-89.99
-81.21
-70.21
-58.39
-47.18
-37.69
-30.60
-26.28
-24.89
-26.46
-30.79
-37.33
-45.02
-52.55
-58.66
-62.60
-64.33
-64.42
-63.66
-62.65
-61.64
-60.64
-59.61
-58.70
-58.15
-58.15
-58.64
-59.34
-59.90
-60.13
-60.08
-59.95
-59.89
-59.80
-59.23
-57.46
-53.71
-47.40
-38.42
-27.20
-14.82
-2.72
7.65
15.26
19.76
21.47
21.12
19.43
16.90
13.75
10.12
6.24
2.54
-0.55
-2.79
-4.20
-5.16
-6.16
-7.60
-9.70
-12.38
-15.41
-18.49
-21.43
-24.24
-27.16
-30.60
-34.97
-40.43
-46.86
-53.76
-60.36
-65.64
-68.47
-67.78
-62.80
-53.35
-40.12
-24.58
-8.68
5.81
17.76
26.75
32.81
35.96
35.85
31.98
23.97
12.05
-2.63
-18.30
-33.15
-45.85
-55.75
-62.90
-67.44
-69.46
-68.75
-64.58
-56.13
-43.10
-26.04
-6.21
14.37
33.88
50.54
62.79
70.09
72.54
70.35
63.86
53.94
41.53
28.36
15.55
3.06
-9.02
-20.58
-31.49
-41.32
-49.07
-54.36
-56.72
-57.24
-58.44
-61.59
-66.26
-71.01
-73.86
-72.53
-65.97
-52.79
-32.98
-16.60
-12.49
-23.02
-43.42
-66.67
-81.63
-89.19
-90.43
-85.58
-74.15
-58.16
-38.19
-16.27
4.08
19.38
26.77
26.89
22.04
14.83
8.19
4.44
3.91
5.51
7.81
9.18
9.52
8.95
7.39
5.32
3.76
3.28
3.64
3.96
2.68
-0.95
-6.89
-14.21
-20.94
-24.75
-24.30
-19.64
-11.91
-2.78
6.59
15.40
22.98
28.56
31.40
30.86
27.00
20.86
14.17
8.89
6.38
6.97
10.09
14.84
20.34
26.07
31.83
37.50
42.81
47.05
49.11
47.60
41.31
29.63
12.96
-7.20
-28.62
-48.85
-65.83
-78.29
-85.82
-88.57
-86.99
-81.58
-72.82
-61.25
-47.67
-33.10
-18.75
-5.80
4.91
12.95
18.41
21.81
23.96
25.81
28.28
32.17
38.03
46.07
56.13
67.59
79.52
90.79
100.31
107.30
111.39
112.71
111.77
109.24
105.71
101.62
97.13
92.33
87.29
82.10
76.86
71.48
65.71
59.19
51.58
42.79
32.95
22.40
11.45
0.34
-10.84
-22.00
-33.03
-43.70
-53.63
-62.39
-69.46
-74.27
-76.27
-75.06
-70.50
-62.81
-52.57
-40.53
-27.54
-14.38
-1.78
9.57
18.99
25.84
29.72
30.52
28.49
24.16
18.22
11.40
4.38
-2.34
-8.39
-13.65
-18.14
-22.03
-25.54
-28.84
-32.04
-35.07
-37.73
-39.77
-40.89
-40.89
-39.69
-37.40
-34.25
-30.49
-26.16
-21.02
-14.54
-6.08
4.80
18.00
32.79
47.89
61.71
72.81
80.11
83.08
81.67
76.20
67.23
55.54
42.05
27.79
13.76
0.76
-10.65
-20.22
-27.90
-33.71
-37.73
-39.97
-40.49
-39.35
-36.65
-32.57
-27.42
-21.67
-16.00
-11.21
-8.04
-7.04
-8.43
-12.08
-17.54
-24.12
-30.88
-36.79
-40.94
-42.76
-42.29
-40.16
-37.24
-34.18
-31.03
-27.13
-21.47
-13.33
-2.69
9.50
21.73
32.47
40.69
46.17
49.39
51.15
52.18
52.95
53.58
54.00
54.08
53.72
52.82
51.30
49.06
46.08
42.44
38.43
34.50
31.18
28.79
27.29
26.06
24.14
20.47
14.45
6.21
-3.22
-12.29
-19.51
-24.05
-26.13
-26.86
-27.75
-30.14
-34.76
-41.73
-50.79
-61.54
-73.56
-86.18
-98.30
-108.28
-114.18
-114.31
-107.74
-94.66
-76.29
-54.53
-31.46
-8.84
12.19
31.28
48.79
65.50
82.33
100.01
118.84
138.71
159.20
179.70
199.62
218.41
235.85
252.40
269.43
288.94
312.50
340.10
369.38
396.03
415.46
424.62
423.21
413.40
398.30
380.30
360.19
337.52
311.76
283.41
254.03
225.48
198.82
173.61
148.31
121.20
91.42
59.54
27.33
-3.06
-30.09
-53.56
-74.65
-95.27
-117.13
-140.91
-165.83
-189.63
-208.97
-219.98
-218.86
-202.83
-171.08
-125.63
-71.59
-16.26
32.62
68.97
89.97
96.42
91.81
80.65
66.93
53.22
40.79
30.11
21.34
14.58
9.70
6.10
2.74
-1.58
-7.66
-15.59
-24.67
-33.79
-41.94
-48.64
-54.14
-59.20
-64.70
-71.13
-78.44
-86.08
-93.28
-99.48
-104.54
-108.80
-112.85
-117.26
-122.21
-127.54
-132.82
-137.63
-141.86
-145.78
-149.97
-155.07
-161.46
-169.17
-177.85
-186.99
-196.11
-205.03
-213.99
-223.64
-235.00
-249.13
-266.62
-287.03
-308.54
-328.26
-343.05
-350.72
-351.02
-345.69
-337.83
-330.56
-325.88
-324.11
-324.15
-324.31
-323.13
-319.70
-313.68
-304.98
-293.77
-280.64
-266.62
-252.87
-239.90
-227.00
-212.13
-192.78
-167.12
-135.06
-98.38
-59.99
-22.77
11.34
41.61
67.89
90.02
107.41
119.39
125.71
126.91
124.18
118.75
111.32
101.82
89.85
75.26
58.66
41.38
25.02
10.75
-1.24
-11.69
-21.94
-33.18
-46.06
-60.44
-75.56
-90.10
-102.39
-110.62
-113.11
-108.80
-97.75
-81.25
-61.62
-41.55
-23.49
-9.10
0.81
6.31
7.94
6.42
2.47
-3.27
-10.19
-17.72
-25.33
-32.56
-38.98
-44.21
-47.93
-50.07
-50.77
-50.39
-49.51
-48.70
-48.49
-49.16
-50.87
-53.63
-57.50
-62.60
-68.96
-76.13
-82.86
-87.06
-86.23
-78.16
-61.67
-37.04
-5.98
28.82
64.09
96.61
123.49
142.61
153.03
155.29
151.46
144.67
138.20
134.74
135.75
141.38
150.80
162.64
175.43
187.91
199.13
208.36
214.83
217.53
215.28
207.29
193.82
176.38
156.78
136.85
117.61
98.88
79.82
60.39
42.15
28.39
22.46
25.49
36.24
52.33
71.78
93.79
118.64
146.13
174.72
201.47
221.69
232.46
234.24
230.22
223.87
217.41
210.64
202.65
193.06
179.06
160.36
140.24
123.48
112.74
108.14
105.90
101.98
93.21
70.23
28.38
-28.45
-90.83
-150.81
-203.37
-250.61
-295.53
-340.50
-398.56
-475.89
-565.21
-650.34
-717.48
-758.20
-776.56
-779.53
-774.57
-783.80
-820.81
-881.25
-947.98
-1004.88
-1040.20
-1056.03
-1056.75
-949.21
-702.14
-369.01
-46.72
200.65
338.47
407.67
436.00
440.39
432.46
412.51
381.29
349.62
332.35
335.82
358.58
387.20
411.84
429.81
430.92
410.63
375.08
336.70
304.82
285.18
274.27
268.93
269.28
267.88
258.28
240.07
218.02
196.94
180.83
168.44
158.73
155.38
157.07
159.99
161.11
159.98
157.65
156.17
155.65
156.38
165.36
185.67
215.01
247.80
279.54
308.65
336.00
362.60
389.45
425.62
476.36
539.02
604.69
664.50
713.60
750.93
777.34
740.46
617.46
427.70
220.06
36.10
-107.27
-211.42
-284.57
-335.78
-372.47
-391.43
-390.88
-374.88
-352.54
-332.24
-318.18
-310.50
-307.91
-308.84
-305.39
-292.40
-269.93
-243.44
-218.37
-197.51
-180.56
-166.59
-154.76
-140.38
-120.45
-95.49
-68.89
-43.96
-22.16
-2.33
16.99
36.78
59.06
84.10
110.03
134.04
154.96
167.71
172.63
171.98
168.64
165.79
165.47
168.18
173.05
178.61
183.20
186.24
187.01
184.94
179.77
171.34
159.26
142.75
120.80
92.51
58.32
19.18
-23.57
-68.42
-113.87
-158.43
-200.56
-239.00
-273.46
-304.49
-334.05
-364.28
-395.80
-426.33
-450.64
-462.19
-455.93
-430.71
-389.94
-340.69
-290.90
-246.47
-209.94
-180.55
-155.84
-133.17
-110.42
-85.81
-58.13
-27.41
4.31
32.90
53.87
65.08
68.81
71.45
80.46
100.14
128.88
159.85
184.62
197.76
199.22
193.45
186.02
180.49
177.55
176.58
177.79
183.19
195.35
215.05
239.70
263.52
279.57
282.41
270.08
244.41
209.97
172.23
135.94
104.12
77.84
56.59
38.91
23.14
8.06
-6.87
-21.52
-35.57
-48.96
-62.07
-75.54
-89.83
-104.68
-118.70
-129.72
-135.41
-134.18
-125.81
-111.51
-93.40
-73.52
-53.29
-33.21
-13.16
6.98
26.88
45.95
63.75
80.33
95.77
109.49
119.97
125.43
125.72
123.71
125.16
136.46
161.21
197.90
239.95
278.47
306.02
319.38
319.76
310.86
296.33
278.13
256.68
232.22
205.97
180.27
157.63
139.64
126.02
114.56
101.96
84.97
61.53
31.47
-3.54
-40.98
-78.75
-115.93
-152.68
-189.09
-223.76
-253.24
-272.71
-277.79
-266.52
-240.40
-204.01
-163.42
-124.21
-90.08
-62.66
-42.30
-29.05
-23.17
-24.82
-33.36
-46.79
-61.82
-74.76
-82.61
-83.97
-79.33
-70.59
-60.07
-49.57
-39.87
-30.79
-21.65
-11.96
-1.70
8.49
17.65
24.91
29.91
32.97
34.92
36.87
39.68
43.75
48.84
54.03
57.86
58.56
54.37
44.08
27.56
6.18
-17.20
-38.75
-54.75
-62.70
-62.16
-54.98
-44.73
-35.65
-31.31
-33.62
-42.44
-55.97
-71.65
-87.21
-101.47
-114.37
-126.49
-138.28
-149.61
-159.66
-167.44
-172.37
-174.53
-174.57
-173.18
-170.64
-166.61
-160.41
-151.48
-139.80
-125.95
-110.88
-95.49
-80.24
-65.14
-49.89
-34.20
-18.01
-1.46
15.18
31.73
48.10
64.28
80.16
95.58
110.25
123.85
136.02
146.29
154.17
159.15
160.86
159.13
154.12
146.11
135.44
122.28
106.72
88.93
69.39
49.04
29.14
10.90
-4.95
-18.38
-29.91
-40.24
-49.89
-58.88
-66.90
-73.65
-79.16
-83.84
-88.31
-92.96
-97.78
-102.30
-105.95
-108.28
-109.13
-108.60
-106.82
-103.84
-99.65
-94.24
-87.80
-80.71
-73.37
-66.17
-59.29
-52.74
-46.51
-40.75
-35.84
-32.28
-30.49
-30.55
-32.19
-34.84
-37.96
-41.37
-45.18
-49.68
-54.93
-60.47
-65.49
-69.06
-70.78
-71.10
-71.19
-72.44
-75.86
-81.69
-89.34
-97.84
-106.20
-113.81
-120.45
-126.16
-130.97
-134.83
-137.50
-138.60
-137.69
-134.23
-127.61
-117.20
-102.45
-83.05
-59.12
-31.26
-0.58
31.55
63.73
94.70
123.46
149.26
171.47
189.61
203.37
212.77
218.13
219.94
218.71
214.70
207.95
198.37
186.02
171.19
154.47
136.48
117.68
98.22
77.92
56.39
33.14
7.76
-19.88
-49.42
-79.95
-110.05
-138.14
-162.81
-183.21
-199.10
-210.72
-218.57
-223.19
-225.08
-224.69
-222.30
-217.94
-211.27
-201.63
-188.34
-171.21
-150.67
-127.85
-104.11
-80.57
-57.89
-36.23
-15.71
3.49
20.88
36.07
48.88
59.48
68.26
75.50
81.18
84.91
86.18
84.64
80.25
73.32
64.39
54.08
43.06
32.01
21.62
12.42
4.56
-2.20
-8.35
-14.49
-21.05
-28.21
-36.02
-44.46
-53.50
-63.04
-72.74
-81.98
-89.84
-95.46
-98.29
-98.23
-95.64
-91.07
-84.99
-77.65
-69.07
-59.16
-47.89
-35.27
-21.27
-5.83
11.22
30.00
50.45
72.16
94.25
115.49
134.40
149.53
159.70
164.24
163.04
156.49
145.42
130.89
114.13
96.35
78.64
61.70
45.76
30.57
15.67
0.86
-13.50
-26.44
-36.85
-44.00
-47.93
-49.57
-50.27
-51.28
-53.22
-55.93
-58.68
-60.43
-60.27
-57.75
-52.98
-46.56
-39.34
-31.98
-24.73
-17.39
-9.41
-0.45
9.43
19.61
29.26
37.66
44.54
50.15
54.92
59.19
62.80
65.18
65.63
63.69
59.30
52.86
45.03
36.47
27.71
19.04
10.63
2.59
-4.98
-11.91
-18.07
-23.34
-27.73
-31.42
-34.64
-37.60
-40.25
-42.32
-43.38
-43.11
-41.57
-39.16
-36.47
-33.81
-31.08
-27.76
-23.26
-17.18
-9.52
-0.70
8.65
17.83
26.17
33.09
38.30
41.82
44.13
45.82
47.30
48.38
48.23
45.70
39.96
31.06
20.13
9.09
0.15
-4.75
-4.32
2.03
14.15
31.15
51.40
72.65
92.34
108.24
118.83
123.68
123.18
118.19
109.59
98.12
84.52
69.68
54.78
41.00
29.18
19.43
11.31
4.08
-2.69
-8.87
-13.84
-16.99
-18.27
-18.36
-18.48
-19.81
-22.77
-26.94
-31.18
-34.28
-35.53
-35.06
-33.56
-32.00
-31.13
-31.22
-32.03
-33.04
-33.72
-33.80
-33.45
-33.14
-33.52
-35.03
-37.66
-40.87
-43.73
-45.38
-45.25
-43.30
-39.83
-35.36
-30.41
-25.42
-20.93
-17.51
-15.67
-15.43
-16.04
-15.85
-12.74
-4.77
9.15
28.77
52.53
77.81
101.51
120.53
132.36
135.49
129.72
116.15
96.85
74.29
50.86
28.50
8.79
-7.01
-17.88
-23.32
-23.74
-20.51
-15.43
-10.10
-5.32
-1.22
2.03
3.50
1.43
-6.05
-19.70
-38.27
-58.50
-76.17
-87.63
-91.03
-86.59
-76.19
-62.31
-47.30
-33.04
-20.81
-11.37
-4.79
-0.55
2.37
4.98
7.75
10.42
12.09
11.82
9.30
5.21
0.98
-1.81
-2.29
-0.68
1.93
4.20
5.37
5.51
5.31
5.49
6.19
6.88
6.97
6.43
6.35
8.62
15.01
26.11
40.91
57.05
71.85
83.39
91.07
95.48
97.84
99.19
100.14
100.91
101.56
102.27
103.22
104.49
105.85
106.68
106.22
103.80
99.03
92.04
83.39
73.85
63.97
53.73
42.38
28.82
12.43
-6.19
-24.86
-40.33
-49.51
-50.68
-44.21
-32.37
-18.46
-5.84
2.86
5.93
2.75
-6.23
-19.32
-33.87
-46.78
-55.48
-58.74
-56.97
-51.75
-45.04
-38.27
-32.08
-26.42
-20.96
-15.49
-10.10
-5.02
-0.61
2.85
5.17
6.30
6.36
5.61
4.48
3.50
3.15
3.86
5.86
9.08
13.09
16.97
19.54
19.71
16.87
11.30
4.13
-3.11
-9.12
-13.47
-16.77
-20.26
-25.14
-31.71
-39.06
-45.25
-48.01
-45.67
-37.78
-25.13
-9.45
7.29
23.41
37.72
49.53
58.45
64.33
67.45
68.65
69.29
70.94
74.83
81.20
89.22
97.22
103.36
106.18
104.91
99.45
90.05
77.20
61.50
43.81
25.20
6.80
-10.62
-26.92
-42.60
-58.39
-74.64
-90.80
-105.40
-116.66
-123.30
-125.23
-123.50
-119.75
-115.42
-111.08
-106.45
-100.90
-94.12
-86.37
-78.32
-70.46
-62.84
-55.02
-46.56
-37.55
-28.80
-21.52
-16.71
-14.66
-14.76
-15.91
-17.06
-17.69
-17.92
-18.30
-19.46
-21.78
-25.22
-29.38
-33.64
-37.25
-39.62
-40.29
-38.99
-35.58
-30.02
-22.39
-12.88
-1.77
10.63
24.08
38.54
54.16
71.19
89.84
110.04
131.43
153.23
174.32
193.34
208.77
219.19
223.40
220.62
210.62
193.77
171.03
143.95
114.42
84.50
56.13
30.81
9.52
-7.46
-20.51
-30.51
-38.65
-46.13
-53.93
-62.59
-72.21
-82.41
-92.48
-101.45
-108.32
-112.42
-113.74
-113.10
-112.01
-112.06
-114.20
-118.29
-123.24
-127.68
-130.83
-132.77
-134.12
-135.26
-135.59
-133.56
-127.35
-115.92
-99.53
-79.74
-58.50
-37.37
-17.06
2.28
20.38
36.43
48.97
56.58
58.53
55.23
48.13
39.16
30.18
22.61
17.30
14.63
14.57
16.60
19.80
23.01
25.08
25.19
23.08
19.06
13.92
8.59
3.87
0.18
-2.63
-5.20
-8.38
-12.70
-17.91
-22.77
-25.21
-23.05
-14.82
-0.33
19.07
40.98
62.65
81.67
96.68
107.52
115.06
120.80
126.30
132.75
140.74
150.12
160.05
169.10
175.52
177.65
174.42
165.80
152.84
137.58
122.34
109.16
99.26
92.87
89.45
88.23
88.76
91.11
95.76
103.01
112.39
122.29
130.09
132.86
128.29
115.36
94.48
67.24
35.81
2.69
-29.52
-58.13
-80.74
-95.76
-102.89
-103.28
-99.18
-93.12
-87.32
-83.15
-81.07
-80.72
-81.15
-81.16
-79.58
-75.87
-70.40
-64.52
-60.14
-58.92
-61.69
-68.11
-76.89
-86.26
-94.51
-100.30
-102.86
-102.05
-98.51
-93.53
-88.93
-86.45
-87.21
-91.21
-97.21
-103.25
-107.39
-108.43
-106.43
-102.49
-98.36
-95.68
-95.48
-97.91
-102.28
-107.44
-112.05
-115.06
-115.94
-114.78
-112.23
-109.21
-106.55
-104.74
-103.87
-103.68
-103.77
-103.64
-102.83
-100.95
-97.84
-93.69
-88.97
-84.13
-79.11
-73.04
-64.47
-52.08
-35.68
-16.63
2.35
18.38
29.69
36.44
40.47
44.30
49.74
57.19
65.64
73.42
79.17
82.33
83.15
82.29
80.32
77.56
74.18
70.41
66.69
63.45
60.80
58.27
54.74
48.92
39.97
28.04
14.63
2.17
-6.66
-9.92
-7.00
1.24
13.01
26.36
39.81
52.78
65.31
77.81
90.54
103.53
116.44
128.83
140.15
149.91
157.61
162.72
164.67
162.85
156.72
145.87
130.12
109.54
84.51
55.84
24.73
-7.25
-38.33
-66.77
-91.02
-109.98
-123.13
-130.69
-133.49
-132.76
-129.73
-125.38
-120.23
-114.49
-108.29
-101.86
-95.55
-89.61
-83.97
-78.24
-72.03
-65.32
-58.76
-53.42
-50.24
-49.60
-50.96
-53.28
-55.56
-57.33
-58.70
-59.97
-61.15
-61.68
-60.63
-57.13
-50.85
-42.23
-32.34
-22.49
-13.79
-6.83
-1.70
1.95
4.62
6.81
8.95
11.39
14.29
17.61
21.06
24.10
26.09
26.55
25.29
22.58
18.99
15.19
11.75
9.08
7.47
7.23
8.66
12.05
17.34
24.13
31.67
39.23
46.40
53.30
60.54
68.92
78.90
90.41
102.62
114.20
123.75
130.06
132.42
130.67
125.12
116.30
104.82
91.32
76.31
60.32
43.84
27.44
11.76
-2.63
-15.31
-26.21
-35.62
-44.16
-52.44
-60.91
-69.60
-78.17
-86.03
-92.55
-97.19
-99.50
-99.10
-95.68
-89.18
-79.91
-68.77
-57.03
-45.97
-36.53
-28.99
-23.19
-18.63
-14.77
-11.14
-7.27
-2.73
2.83
9.44
16.63
23.51
29.03
32.37
33.18
31.67
28.41
24.10
19.28
14.28
9.13
3.68
-2.20
-8.54
-14.98
-20.88
-25.39
-27.81
-27.86
-25.89
-22.71
-19.37
-16.88
-15.84
-16.45
-18.40
-20.98
-23.10
-23.37
-20.37
-13.02
-1.04
14.68
32.13
48.72
62.06
70.71
74.39
73.81
70.01
63.77
55.61
45.88
35.21
24.65
15.47
8.77
5.07
4.42
6.70
12.01
20.80
33.55
50.08
69.15
88.37
104.93
116.43
121.52
120.02
112.51
99.84
82.91
62.80
41.06
19.79
1.33
-12.43
-20.69
-24.08
-24.46
-24.05
-24.72
-27.18
-30.83
-34.08
-34.94
-31.83
-24.30
-13.30
-0.90
10.30
17.97
20.79
18.79
13.14
5.78
-1.29
-6.64
-9.64
-10.58
-10.29
-9.59
-9.06
-8.81
-8.78
-8.98
-9.68
-11.29
-14.14
-18.19
-23.06
-28.19
-33.11
-37.58
-41.48
-44.52
-45.97
-44.64
-39.29
-29.15
-14.53
3.18
21.84
39.22
53.74
64.67
72.04
76.14
77.24
75.40
70.74
63.55
54.36
43.82
32.56
21.08
9.79
-0.84
-10.39
-18.60
-25.70
-32.49
-40.25
-50.30
-63.54
-79.99
-98.60
-117.45
-134.07
-146.20
-152.33
-152.23
-146.93
-138.32
-128.47
-118.87
-110.11
-101.91
-93.62
-84.67
-74.97
-64.77
-54.29
-43.52
-32.20
-20.19
-7.95
3.34
12.11
17.09
18.03
15.99
12.96
11.02
11.55
14.76
19.85
25.51
30.51
33.99
35.58
35.10
32.56
28.06
21.83
14.40
6.65
-0.34
-5.46
-8.00
-7.89
-5.75
-2.62
0.47
2.96
5.00
7.30
10.79
16.31
24.28
34.73
47.24
61.00
74.87
87.39
97.09
102.76
103.84
100.47
93.41
83.60
71.80
58.46
43.63
27.33
9.79
-8.29
-25.78
-41.35
-53.85
-62.70
-68.03
-70.41
-70.40
-68.19
-63.54
-56.32
-47.15
-37.80
-30.86
-28.76
-32.51
-40.95
-50.98
-58.83
-61.49
-57.66
-47.81
-33.47
-16.48
1.56
19.31
35.47
48.73
58.05
63.16
64.87
64.88
65.07
66.66
69.57
72.58
74.00
72.49
67.72
60.40
51.91
43.81
37.33
33.19
31.59
32.37
35.19
39.40
44.09
48.20
50.80
51.25
49.37
45.35
39.67
32.91
25.73
18.91
13.29
9.59
8.26
9.33
12.46
17.08
22.54
28.28
33.79
38.56
42.09
43.92
43.77
41.69
38.01
33.23
27.80
21.99
15.81
9.06
1.38
-7.69
-18.54
-31.48
-46.49
-63.17
-80.71
-97.79
-112.81
-123.97
-129.67
-128.80
-121.12
-107.50
-89.80
-70.50
-51.96
-35.77
-22.41
-11.49
-2.19
6.24
14.22
21.84
29.01
35.59
41.30
45.73
48.38
49.03
47.83
45.60
43.37
42.04
42.03
43.12
44.79
46.48
47.78
48.39
48.09
46.66
44.08
40.63
36.86
33.42
30.67
28.57
26.67
24.36
21.22
17.23
12.73
8.30
4.48
1.58
-0.34
-1.45
-2.03
-2.40
-2.87
-3.73
-5.25
-7.56
-10.64
-14.23
-17.94
-21.38
-24.29
-26.70
-28.90
-31.33
-34.29
-37.82
-41.53
-44.72
-46.66
-46.73
-44.74
-40.88
-35.67
-29.73
-23.64
-17.80
-12.45
-7.69
-3.56
-0.00
3.03
5.67
8.00
9.96
11.37
11.89
11.22
9.26
6.25
2.70
-0.82
-3.97
-6.78
-9.72
-13.30
-17.83
-23.10
-28.39
-32.73
-35.28
-35.60
-33.76
-30.23
-25.68
-20.80
-16.18
-12.32
-9.67
-8.58
-9.31
-11.89
-16.15
-21.58
-27.50
-33.04
-37.41
-40.11
-41.18
-41.35
-41.81
-43.86
-48.35
-55.29
-63.78
-72.25
-79.05
-82.90
-83.17
-79.90
-73.58
-64.83
-54.26
-42.47
-30.02
-17.54
-5.78
4.38
12.04
16.20
16.21
11.84
3.50
-7.67
-19.85
-30.57
-37.10
-37.12
-29.48
-14.84
4.26
23.96
40.48
51.32
55.98
55.73
52.59
48.19
43.20
37.51
31.00
24.29
18.71
15.72
15.90
18.63
22.21
24.77
25.11
23.09
19.46
15.03
10.09
4.18
-3.31
-12.45
-22.17
-30.34
-34.55
-33.03
-25.50
-13.10
2.06
17.77
32.35
44.84
54.71
61.51
64.90
64.82
62.16
58.83
57.34
59.90
67.50
79.52
94.02
108.60
121.18
130.55
136.25
138.41
137.43
133.97
128.90
123.26
117.92
113.13
108.34
102.28
93.46
80.98
65.17
47.67
30.91
17.14
7.41
1.28
-2.95
-7.26
-12.89
-19.72
-26.47
-31.22
-32.37
-29.22
-21.99
-11.67
0.33
12.35
22.49
28.82
29.68
24.23
12.80
-3.07
-21.06
-38.64
-53.64
-64.52
-70.24
-70.05
-63.32
-49.71
-29.43
-3.63
25.68
55.87
84.22
108.58
127.96
142.87
155.31
168.40
185.58
209.58
241.25
278.87
318.16
353.12
377.72
387.65
381.52
361.07
330.25
293.82
255.96
219.44
185.60
154.74
126.61
100.72
76.37
52.77
29.14
5.15
-18.95
-42.33
-63.89
-82.83
-98.97
-113.03
-126.57
-141.44
-159.18
-180.07
-202.64
-223.70
-239.26
-246.05
-242.84
-231.09
-214.40
-197.05
-182.55
-172.74
-167.82
-167.14
-169.87
-175.32
-182.70
-190.76
-197.69
-201.34
-199.93
-192.45
-179.01
-160.76
-139.89
-119.20
-101.71
-89.99
-85.49
-88.07
-96.16
-107.36
-119.29
-130.28
-139.54
-146.97
-152.69
-157.04
-160.56
-164.13
-168.99
-176.22
-186.34
-198.92
-212.66
-225.85
-237.01
-245.47
-251.51
-256.31
-261.44
-268.31
-277.74
-289.36
-301.47
-311.12
-314.74
-309.04
-292.06
-263.74
-225.79
-181.03
-132.34
-81.94
-31.35
18.20
65.09
107.03
141.38
166.00
180.03
184.24
180.65
171.72
159.74
146.49
133.43
121.85
113.00
107.78
106.25
107.43
109.48
110.22
107.96
102.00
92.81
81.62
69.91
58.72
48.48
39.04
30.19
22.19
16.00
13.07
14.77
21.59
32.66
46.06
59.35
70.85
79.89
86.74
92.31
97.44
102.32
106.18
107.64
105.47
99.56
90.78
80.55
70.25
60.76
52.32
44.58
37.14
29.80
23.15
17.31
11.38
3.66
-7.25
-21.71
-38.73
-56.14
-71.29
-80.28
-81.36
-76.11
-68.37
-61.94
-59.22
-60.87
-66.09
-73.14
-76.73
-73.62
-64.70
-53.12
-41.11
-29.00
-16.16
-1.92
13.90
36.48
68.05
105.42
142.69
175.97
204.47
228.92
250.41
269.70
294.30
328.03
367.52
405.71
437.92
463.36
483.22
499.05
466.94
371.94
239.77
112.18
12.25
-58.23
-106.19
-139.30
-163.32
-182.01
-190.49
-186.31
-173.47
-159.40
-149.05
-143.53
-141.91
-142.84
-145.28
-143.15
-133.33
-118.37
-103.75
-93.30
-87.87
-86.70
-88.62
-92.58
-94.38
-91.63
-85.47
-78.87
-73.96
-71.07
-69.64
-68.97
-68.55
-66.41
-61.69
-55.26
-48.78
-43.69
-40.44
-38.98
-39.00
-40.12
-41.54
-42.39
-42.36
-41.23
-39.05
-35.51
-30.38
-23.56
-15.25
-6.17
3.25
10.46
15.46
17.99
18.16
15.95
11.43
6.77
0.77
-6.86
-16.08
-26.50
-38.08
-50.17
-62.36
-74.33
-85.89
-97.32
-108.48
-119.33
-129.71
-139.84
-149.13
-157.25
-164.01
-169.29
-173.22
-175.35
-174.80
-169.63
-163.05
-155.56
-147.32
-138.46
-129.22
-120.13
-111.48
-103.43
-95.79
-88.29
-79.65
-68.91
-55.53
-39.45
-21.09
-0.99
20.37
42.63
65.56
89.63
115.16
142.34
171.27
201.69
232.69
262.40
287.96
306.15
314.79
313.22
302.73
286.05
266.30
245.75
225.38
205.05
184.32
163.47
143.36
125.17
109.65
96.83
86.04
76.49
67.72
59.76
53.01
47.72
43.64
40.10
36.26
31.56
25.88
19.61
13.34
7.68
2.97
-0.76
-3.74
-6.36
-9.05
-12.14
-15.81
-20.04
-24.53
-28.84
-32.38
-34.60
-35.12
-33.88
-31.18
-27.70
-24.24
-21.47
-19.62
-18.38
-17.03
-14.66
-10.56
-4.49
3.25
11.80
19.91
26.22
29.58
29.32
25.48
18.79
10.46
1.85
-5.94
-12.29
-17.12
-20.70
-23.52
-26.04
-28.59
-31.40
-34.50
-37.72
-40.70
-42.86
-43.59
-42.35
-38.91
-33.36
-26.17
-18.05
-9.79
-2.14
4.37
9.47
13.12
15.54
17.07
18.01
18.63
19.02
19.18
19.10
18.74
18.13
17.29
16.29
15.16
13.95
12.71
11.45
10.13
8.55
6.46
3.66
0.21
-3.47
-6.51
-7.83
-6.41
-1.62
6.52
17.30
29.49
41.60
52.23
60.40
65.65
67.98
67.76
65.55
61.98
57.63
53.01
48.54
44.48
40.94
37.79
34.72
31.34
27.28
22.31
16.48
10.01
3.34
-3.06
-8.75
-13.44
-17.00
-19.50
-21.08
-21.84
-21.72
-20.50
-17.84
-13.52
-7.62
-0.60
6.76
13.71
19.74
24.74
28.98
32.82
36.56
40.24
43.62
46.42
48.46
49.82
50.81
51.85
53.25
55.03
56.91
58.42
59.19
59.09
58.37
57.49
56.91
56.83
57.18
57.68
57.90
57.43
55.79
52.54
47.29
39.94
30.72
20.21
9.11
-2.17
-13.77
-26.39
-41.06
-58.51
-78.70
-100.62
-122.46
-142.10
-157.76
-168.53
-174.55
-176.91
-177.23
-177.17
-177.91
-179.92
-182.79
-185.28
-185.51
-181.29
-170.61
-152.16
-125.79
-92.78
-55.86
-18.78
14.46
40.51
57.34
64.50
62.94
54.48
41.24
25.25
8.30
-8.07
-22.62
-34.42
-43.09
-48.69
-51.72
-52.77
-52.39
-50.93
-48.62
-45.69
-42.29
-38.45
-33.95
-28.37
-21.29
-12.41
-1.79
10.17
22.86
35.55
47.61
58.44
67.46
74.12
77.88
78.46
75.95
70.97
64.68
58.46
53.56
50.82
50.39
51.86
54.62
57.83
61.01
63.98
66.58
68.54
69.30
68.08
64.11
57.04
46.74
33.82
19.28
4.31
-10.01
-22.83
-33.65
-42.27
-48.45
-52.84
-55.87
-58.01
-59.71
-61.28
-62.79
-64.01
-64.40
-62.37
-58.49
-52.66
-45.29
-37.20
-29.32
-22.36
-16.60
-11.85
-5.70
0.30
6.52
13.00
19.56
25.89
31.81
37.33
42.73
51.53
61.00
71.69
83.93
97.74
112.74
128.18
143.12
156.69
172.33
185.79
197.66
208.62
218.94
228.15
235.14
238.56
212.68
188.94
163.20
136.49
109.62
82.90
56.01
28.21
-1.44
-34.05
-66.90
-105.31
-149.27
-197.04
-244.72
-286.92
-318.19
-335.01
-336.94
-323.63
-302.81
-278.78
-254.25
-230.03
-205.69
-180.68
-155.06
-129.53
-103.00
-78.00
-54.38
-31.83
-10.38
9.28
25.90
38.19
45.45
48.86
48.61
46.46
44.01
42.28
41.43
40.88
39.82
37.53
34.09
29.32
23.82
18.33
13.55
9.97
7.76
6.77
6.60
6.73
6.69
6.25
5.48
4.71
4.40
4.91
6.42
8.88
12.04
15.57
19.05
22.08
24.24
25.11
24.25
21.30
16.07
8.66
-0.37
-10.11
-19.35
-26.96
-32.13
-34.64
-34.81
-33.32
-30.83
-27.70
-23.91
-19.19
-13.30
-6.28
1.47
9.34
16.74
23.33
29.12
34.30
39.06
43.36
46.91
49.24
49.88
48.65
45.74
41.78
37.65
34.32
32.49
32.54
34.42
37.73
41.88
46.30
50.52
54.27
57.48
60.25
62.81
65.45
68.51
72.40
77.58
84.49
93.34
104.01
115.87
127.97
139.29
149.16
157.52
164.79
171.52
177.78
182.89
185.52
184.15
177.56
165.26
147.46
125.05
99.58
73.24
48.89
29.59
17.88
14.76
19.09
27.60
35.81
39.41
35.65
24.18
6.93
-12.78
-31.64
-47.70
-61.04
-73.41
-87.00
-103.04
-120.90
-138.35
-152.77
-162.40
-167.08
-167.96
-166.59
-164.17
-161.54
-159.83
-161.00
-167.72
-182.07
-204.13
-231.24
-258.54
-280.75
-294.16
-297.82
-293.41
-283.95
-272.29
-260.08
-247.65
-234.50
-220.08
-204.21
-187.10
-169.11
-150.53
-131.46
-111.92
-91.99
-71.90
-52.16
-33.60
-17.26
-4.24
4.57
8.80
8.80
5.63
0.82
-4.08
-8.01
-10.57
-12.01
-12.91
-13.77
-14.77
-15.66
-15.91
-14.93
-12.41
-8.47
-3.89
0.19
2.62
2.64
0.24
-3.76
-8.01
-10.89
-10.83
-6.57
2.58
16.60
34.48
54.34
73.75
90.40
102.78
110.55
114.44
115.69
115.47
114.48
112.89
110.66
107.76
104.31
100.45
96.22
91.36
85.44
77.96
68.70
57.90
46.28
34.97
25.30
18.43
15.19
15.75
19.69
26.08
33.73
41.50
48.51
54.19
58.23
60.50
60.93
59.56
56.61
52.51
47.83
43.13
38.80
34.90
31.33
27.90
24.62
21.66
19.27
17.62
16.64
16.10
15.65
15.01
14.05
12.84
11.59
10.66
10.36
10.94
12.46
14.77
17.60
20.71
24.07
27.94
32.75
38.80
46.03
53.76
60.84
65.93
67.86
65.99
60.42
51.88
41.61
30.94
21.05
12.69
6.19
1.53
-1.43
-2.77
-2.56
-0.97
1.44
3.53
3.80
0.88
-5.78
-15.57
-26.68
-36.71
-43.52
-46.00
-44.26
-39.36
-32.65
-25.21
-17.52
-9.64
-1.56
6.49
14.02
20.40
25.22
28.51
30.69
32.35
34.07
36.08
38.32
40.51
42.35
43.69
44.54
45.05
45.43
45.81
46.31
46.96
47.75
48.65
49.52
50.15
50.20
49.22
46.74
42.31
35.71
26.99
16.59
5.27
-6.04
-16.46
-25.44
-32.77
-38.58
-43.23
-47.04
-50.26
-52.96
-55.00
-56.05
-55.66
-53.36
-48.80
-42.00
-33.34
-23.54
-13.51
-3.99
4.67
12.53
20.03
27.72
36.02
45.05
54.58
64.14
73.09
80.79
86.72
90.60
92.46
92.76
92.26
91.73
91.49
90.92
88.36
81.43
67.95
46.94
19.24
-12.56
-44.96
-74.74
-99.92
-119.94
-135.19
-146.27
-153.47
-156.89
-156.77
-153.96
-149.81
-145.63
-142.04
-138.64
-134.27
-127.73
-118.50
-106.97
-94.16
-81.09
-68.29
-55.72
-43.10
-30.32
-17.73
-6.10
3.61
10.67
14.79
16.21
15.50
13.34
10.27
6.64
2.61
-1.71
-6.09
-10.16
-13.44
-15.57
-16.47
-16.41
-15.91
-15.58
-15.78
-16.46
-17.02
-16.43
-13.51
-7.35
2.30
14.89
29.01
42.92
54.85
63.53
68.33
69.31
66.92
61.95
55.23
47.56
39.64
31.93
24.68
17.92
11.60
5.65
0.08
-5.08
-9.79
-13.97
-17.57
-20.43
-22.42
-23.49
-23.90
-24.11
-24.69
-26.01
-27.85
-29.48
-29.70
-27.44
-22.14
-14.03
-4.17
5.93
14.70
20.90
23.87
23.57
20.53
15.60
9.79
3.91
-1.66
-7.04
-12.80
-19.62
-27.86
-37.24
-46.83
-55.36
-61.79
-65.72
-67.57
-68.23
-68.65
-69.28
-70.05
-70.49
-70.05
-68.42
-65.46
-61.14
-55.32
-47.85
-38.76
-28.46
-17.80
-7.85
0.44
6.59
10.72
13.44
15.55
17.72
20.24
22.95
25.32
26.71
26.63
24.98
22.11
18.66
15.32
12.52
10.33
8.45
6.41
3.62
-0.45
-6.30
-14.17
-23.88
-34.56
-44.78
-52.84
-57.29
-57.43
-53.50
-46.49
-37.81
-28.92
-21.08
-15.38
-12.69
-13.54
-17.96
-25.23
-33.93
-42.06
-47.60
-48.92
-45.33
-37.26
-26.08
-13.62
-1.59
8.95
17.70
24.95
31.15
36.53
40.95
44.04
45.44
45.14
43.50
41.17
38.94
37.57
37.79
40.25
45.35
53.06
62.60
72.38
80.15
83.65
81.14
71.97
56.71
37.03
15.36
-5.50
-22.81
-34.33
-38.90
-36.82
-30.00
-21.31
-13.67
-8.95
-7.30
-7.35
-7.06
-4.84
-0.21
6.07
12.50
17.54
20.12
19.84
16.89
11.93
6.00
0.54
-2.93
-3.02
0.96
8.68
18.85
29.56
38.91
45.58
49.07
49.55
47.62
43.97
39.29
34.19
29.24
24.87
21.29
18.40
15.89
13.46
11.02
8.73
6.90
5.80
5.51
5.90
6.68
7.48
7.95
7.77
6.76
5.03
3.03
1.55
1.46
3.43
7.59
13.53
20.36
27.14
33.10
37.79
41.11
43.13
44.00
43.88
42.97
41.52
39.82
38.16
36.75
35.65
34.86
34.29
33.85
33.54
33.35
33.33
33.47
33.68
33.72
33.26
31.86
29.12
24.82
19.00
12.09
4.83
-1.94
-7.61
-11.94
-15.18
-17.83
-20.38
-23.12
-26.14
-29.45
-33.21
-37.68
-43.09
-49.32
-55.73
-61.23
-64.74
-65.57
-63.73
-59.93
-55.21
-50.56
-46.56
-43.33
-40.64
-38.26
-36.19
-34.73
-34.34
-35.37
-37.91
-41.62
-45.85
-49.86
-52.87
-54.25
-53.39
-49.78
-43.02
-33.07
-20.33
-5.74
9.44
23.86
36.44
46.52
53.90
58.68
61.23
61.97
61.43
60.12
58.44
56.63
54.73
52.67
50.39
47.99
45.76
44.09
43.28
43.34
43.90
44.16
43.13
39.75
33.23
23.31
10.38
-4.36
-19.10
-31.80
-40.76
-45.08
-44.95
-41.46
-36.15
-30.41
-25.14
-20.67
-16.98
-14.13
-12.32
-11.81
-12.73
-14.86
-17.74
-20.85
-23.87
-26.82
-29.88
-33.21
-36.80
-40.38
-43.56
-45.96
-47.24
-47.14
-45.54
-42.35
-37.68
-31.83
-25.33
-18.79
-12.70
-7.21
-2.10
3.18
9.20
16.23
24.07
32.13
39.66
46.03
50.93
54.30
56.25
56.84
56.06
53.96
50.82
47.24
44.10
42.24
42.21
44.06
47.36
51.31
55.09
58.10
60.12
61.33
62.23
63.39
65.18
67.57
70.06
71.73
71.57
68.92
63.80
57.00
49.79
43.39
38.45
34.84
31.81
28.38
23.95
18.47
12.46
6.72
2.08
-0.65
-0.91
1.70
7.04
14.29
21.88
27.89
30.75
29.79
25.50
19.14
11.95
4.46
-3.77
-13.71
-26.12
-40.96
-57.41
-74.28
-90.73
-106.55
-121.99
-137.19
-151.61
-163.97
-172.64
-176.36
-174.74
-168.49
-159.14
-148.67
-139.08
-132.05
-128.83
-130.03
-135.52
-144.31
-154.58
-163.85
-169.56
-169.76
-163.83
-152.88
-139.55
-127.30
-119.28
-117.27
-121.04
-128.39
-135.84
-139.68
-136.94
-126.13
-107.45
-82.66
-54.48
-25.87
0.79
24.14
44.02
61.04
76.18
90.22
103.53
116.11
127.67
137.78
145.93
151.53
154.00
153.00
148.62
141.43
132.37
122.37
112.12
101.92
91.85
81.94
72.38
63.49
55.53
48.67
42.85
37.92
33.75
30.26
27.32
24.68
21.88
18.46
14.26
9.64
5.53
3.22
3.90
8.18
15.85
25.93
36.87
47.05
55.06
59.96
61.30
59.00
53.37
44.96
34.60
23.36
12.36
2.56
-5.40
-11.24
-14.99
-16.81
-16.81
-15.07
-11.67
-6.82
-0.92
5.48
11.85
17.68
22.52
26.04
27.97
28.30
27.38
26.02
25.34
26.44
29.97
35.95
43.72
52.27
60.60
67.98
74.07
78.81
82.27
84.54
85.72
85.91
85.19
83.70
81.61
79.22
76.90
75.18
74.60
75.53
77.99
81.52
85.37
88.72
91.05
92.25
92.51
91.95
90.27
86.66
80.04
69.68
55.65
39.09
21.95
6.34
-6.21
-15.18
-21.13
-25.25
-28.83
-32.75
-37.35
-42.58
-48.23
-54.25
-60.70
-67.57
-74.59
-81.22
-86.83
-91.09
-94.15
-96.67
-99.39
-102.75
-106.61
-110.35
-113.23
-114.83
-115.27
-115.20
-115.41
-116.47
-118.40
-120.59
-121.90
-121.06
-117.01
-109.31
-98.30
-84.98
-70.79
-57.09
-44.89
-34.75
-26.88
-21.29
-18.01
-16.97
-17.79
-19.85
-22.35
-24.55
-25.95
-26.40
-25.81
-24.09
-21.00
-16.36
-10.33
-3.53
3.09
8.61
12.50
14.77
15.79
16.03
15.83
15.54
15.69
17.22
21.28
28.79
39.90
53.71
68.43
81.90
92.35
99.00
102.30
103.60
104.63
106.79
110.55
115.42
120.34
124.24
126.81
128.57
130.57
133.73
138.27
143.61
149.06
154.52
160.77
169.06
180.10
193.40
207.38
220.17
230.68
238.84
244.85
247.95
246.03
236.28
217.06
189.27
156.37
122.85
92.07
64.85
39.74
14.68
-11.41
-38.02
-63.85
-88.33
-112.52
-138.86
-169.93
-206.97
-248.91
-292.70
-334.26
-369.85
-397.36
-417.09
-431.85
-446.18
-464.74
-490.42
-522.73
-557.37
-587.25
-604.78
-604.46
-584.56
-547.42
-497.99
-441.81
-383.15
-324.16
-265.17
-205.73
-145.59
-85.30
-26.17
30.07
81.79
127.65
166.72
198.50
222.90
240.31
251.46
257.23
258.42
255.45
248.27
236.53
219.86
198.39
172.92
144.86
115.93
87.79
61.78
38.94
20.28
6.74
-0.98
-2.73
0.85
8.41
18.46
29.90
42.33
55.86
70.49
85.56
99.62
110.78
117.49
119.19
116.45
110.68
103.61
96.67
90.68
85.82
81.79
78.04
73.96
69.14
63.48
57.27
51.05
45.40
40.67
36.79
33.35
29.80
25.83
21.57
17.67
15.02
14.42
16.28
20.45
26.30
32.85
39.13
44.35
48.09
50.26
51.05
50.75
49.66
47.93
45.56
42.43
38.44
33.60
28.15
22.63
17.66
13.84
11.55
10.92
11.90
14.27
17.68
21.67
25.64
28.94
30.96
31.33
30.11
27.85
25.50
24.08
24.32
26.43
30.04
34.37
38.63
42.37
45.55
48.44
51.13
53.24
54.00
52.60
48.87
43.58
38.38
35.13
35.08
38.24
43.42
48.77
52.70
54.69
55.42
56.44
59.25
64.52
71.79
79.66
86.49
91.05
92.95
92.74
91.77
91.95
95.45
104.16
118.96
138.82
160.30
177.92
185.46
177.82
152.76
111.64
59.01
1.10
-55.87
-107.10
-149.84
-183.30
-208.06
-225.48
-237.08
-244.18
-247.80
-248.55
-246.76
-242.75
-236.94
-229.93
-222.44
-215.07
-208.19
-201.94
-196.17
-190.51
-184.30
-176.65
-166.63
-153.61
-137.64
-119.58
-100.90
-83.18
-67.68
-55.02
-45.29
-38.38
-34.29
-33.24
-35.60
-41.52
-50.71
-62.36
-75.25
-87.95
-99.24
-108.38
-115.23
-120.32
-124.46
-128.32
-131.96
-134.63
-134.80
-130.69
-120.72
-104.05
-80.91
-52.61
-21.52
9.43
37.33
60.04
76.70
87.93
95.35
100.85
105.78
110.71
115.57
120.23
124.82
129.65
134.80
139.72
143.15
143.83
141.17
135.86
129.70
124.83
122.80
123.98
127.63
132.48
137.44
141.96
145.88
149.15
151.37
151.79
149.47
143.73
134.48
122.38
108.68
94.88
82.40
72.21
64.66
59.31
54.90
49.50
41.03
27.97
9.98
-11.77
-34.98
-57.07
-76.04
-91.14
-102.67
-111.47
-118.25
-123.25
-126.33
-127.40
-126.79
-125.23
-123.64
-122.58
-122.07
-121.58
-120.34
-117.58
-112.77
-105.61
-96.06
-84.24
-70.39
-54.90
-38.23
-20.97
-3.73
12.96
28.75
43.54
57.31
70.08
81.65
91.57
99.14
103.44
103.48
98.42
87.79
71.73
51.18
27.93
4.37
-16.88
-33.69
-44.88
-50.47
-51.48
-49.35
-45.38
-40.38
-34.63
-28.20
-21.33
-14.52
-8.54
-4.07
-1.54
-1.06
-2.47
-5.38
-9.18
-12.94
-15.44
-15.36
-11.66
-3.94
7.33
20.92
35.08
48.02
58.12
64.30
65.97
63.15
56.35
46.49
34.79
22.55
11.05
1.30
-6.00
-10.60
-12.76
-13.14
-12.72
-12.50
-13.21
-15.10
-17.91
-20.96
-23.37
-24.22
-22.61
-17.63
-8.51
5.07
22.49
41.91
60.53
75.43
84.76
88.66
89.21
89.62
92.80
100.16
111.30
124.64
138.33
151.08
162.16
170.78
175.32
173.17
161.25
137.30
101.04
54.79
2.94
-49.42
-98.23
-141.39
-178.67
-210.68
-237.68
-259.10
-273.98
-282.01
-284.21
-282.70
-279.69
-276.38
-272.66
-267.72
-261.05
-253.09
-244.79
-236.60
-227.39
-214.43
-194.31
-164.61
-125.14
-78.39
-28.88
18.19
58.35
88.92
109.34
121.00
126.50
128.69
129.90
131.45
133.76
136.71
140.12
143.99
148.55
154.03
160.52
167.84
175.70
183.71
191.61
199.20
206.17
212.01
215.80
216.51
213.25
205.68
194.25
180.03
164.33
148.20
132.17
116.18
99.94
83.26
66.20
49.13
32.48
16.70
2.19
-10.68
-21.57
-30.32
-37.05
-42.24
-46.51
-50.22
-53.26
-54.92
-54.25
-50.61
-44.12
-35.91
-27.86
-21.96
-19.74
-21.73
-27.38
-35.38
-44.22
-52.69
-60.16
-66.63
-72.53
-78.47
-85.16
-93.29
-103.49
-116.12
-130.98
-147.12
-163.01
-177.00
-187.95
-195.64
-200.49
-203.11
-203.56
-201.09
-194.37
-182.33
-164.95
-143.89
-122.23
-103.59
-90.91
-85.49
-86.65
-92.04
-98.47
-102.91
-103.37
-99.67
-93.61
-88.72
-89.27
-98.77
-118.26
-145.22
-173.66
-195.75
-204.35
-195.37
-168.92
-128.88
-81.06
-31.26
16.07
58.03
92.74
118.82
135.34
142.39
141.65
136.48
131.11
129.38
133.38
143.05
156.37
170.38
182.39
190.61
194.33
193.46
188.15
178.66
165.56
149.97
133.68
118.74
106.90
99.11
95.19
94.00
93.88
93.06
90.02
83.78
74.19
62.02
48.72
35.75
23.78
12.30
-0.13
-14.94
-32.58
-51.95
-70.82
-86.77
-98.25
-105.07
-108.11
-108.80
-108.59
-108.77
-110.47
-114.59
-121.50
-130.66
-140.52
-148.91
-153.72
-153.58
-148.15
-138.06
-124.44
-108.48
-91.03
-72.56
-53.23
-33.22
-12.90
6.99
25.42
41.32
53.94
63.24
69.92
75.36
81.05
88.16
97.15
107.60
118.50
128.50
136.43
141.49
143.37
142.15
138.26
132.31
125.00
117.05
109.08
101.61
94.88
88.90
83.44
78.16
72.75
67.09
61.35
55.95
51.33
47.64
44.55
41.41
37.41
31.93
24.71
15.83
5.53
-5.91
-18.23
-31.00
-43.40
-54.29
-62.32
-66.40
-65.98
-61.31
-53.43
-43.84
-34.24
-26.12
-20.50
-17.68
-17.25
-18.19
-19.24
-19.33
-17.88
-15.00
-11.43
-8.20
-6.28
-6.22
-8.08
-11.41
-15.43
-19.08
-21.27
-21.01
-17.76
-11.60
-3.34
5.76
14.47
22.12
28.81
35.19
41.98
49.36
56.76
63.00
66.66
66.62
62.42
54.46
43.92
32.48
21.95
13.75
8.58
6.23
5.71
5.65
4.83
2.60
-0.86
-4.69
-7.68
-8.74
-7.44
-4.11
0.16
3.95
6.03
5.82
3.57
0.25
-2.91
-4.90
-5.22
-3.97
-1.72
0.84
3.13
4.75
5.37
4.58
1.92
-2.87
-9.51
-16.92
-23.43
-27.34
-27.61
-24.39
-18.88
-12.90
-8.06
-5.25
-4.48
-4.97
-5.58
-5.01
-2.14
3.94
13.65
26.86
42.67
59.54
75.50
88.60
97.36
101.12
100.27
95.98
89.99
84.00
79.36
76.73
75.90
75.96
75.45
72.85
67.11
58.13
46.99
35.70
26.56
21.25
20.21
22.51
26.36
29.87
31.92
32.44
32.16
31.98
32.40
33.23
33.83
33.61
32.52
31.08
30.09
30.10
31.06
32.26
32.78
31.92
29.50
25.79
21.08
15.44
8.64
0.50
-8.82
-18.68
-28.17
-36.69
-44.26
-51.63
-59.74
-69.19
-79.74
-90.33
-99.65
-106.71
-111.35
-114.04
-115.47
-115.94
-115.09
-112.25
-106.89
-99.15
-89.87
-80.18
-70.90
-62.16
-53.45
-44.00
-33.37
-21.82
-10.27
-0.02
7.61
11.73
11.95
8.44
1.86
-6.74
-16.08
-24.90
-32.16
-37.29
-40.26
-41.44
-41.53
-41.22
-40.98
-40.94
-40.88
-40.42
-39.13
-36.74
-33.19
-28.63
-23.31
-17.57
-11.70
-5.97
-0.64
4.06
7.92
10.78
12.62
13.65
14.17
14.57
15.10
15.79
16.42
16.70
16.36
15.34
13.78
11.90
9.85
7.69
5.36
2.82
0.20
-2.11
-3.52
-3.47
-1.62
1.97
6.84
12.27
17.49
21.90
25.20
27.36
28.51
28.75
28.19
26.84
24.77
22.10
19.07
15.97
13.08
10.53
8.37
6.52
4.93
3.61
2.67
2.26
2.41
3.04
3.91
4.75
5.40
5.92
6.63
8.00
10.45
14.16
19.05
24.75
30.79
36.66
41.97
46.40
49.79
51.99
52.95
52.74
51.50
49.46
46.91
44.21
41.67
39.45
37.32
34.62
30.39
23.76
14.42
2.91
-9.46
-21.17
-31.02
-38.54
-43.86
-47.38
-49.32
-49.56
-47.85
-44.09
-38.46
-31.36
-23.21
-14.35
-5.12
3.80
11.38
16.27
17.24
13.71
5.99
-4.65
-16.40
-27.28
-35.77
-40.99
-42.91
-42.10
-39.48
-35.92
-31.97
-27.90
-23.79
-19.92
-16.81
-15.18
-15.63
-18.26
-22.54
-27.43
-31.73
-34.48
-35.32
-34.50
-32.78
-31.06
-30.03
-30.01
-30.83
-32.00
-32.93
-33.16
-32.43
-30.71
-28.07
-24.60
-20.46
-15.87
-11.14
-6.58
-2.43
1.26
4.59
7.65
10.34
12.31
13.09
12.38
10.28
7.32
4.32
2.12
1.32
2.20
4.75
8.81
14.10
20.30
27.00
33.69
39.83
44.99
48.90
51.41
52.47
51.84
49.16
44.04
36.36
26.55
15.65
5.05
-3.92
-10.45
-14.46
-16.41
-17.00
-16.81
-16.19
-15.36
-14.60
-14.24
-14.61
-15.75
-17.29
-18.44
-18.38
-16.46
-12.61
-7.26
-1.22
4.58
9.41
12.87
14.90
15.69
15.57
14.83
13.69
12.29
10.69
8.90
6.97
4.94
2.83
0.70
-1.43
-3.47
-5.35
-7.04
-8.57
-9.98
-11.39
-12.93
-14.66
-16.60
-18.61
-20.39
-21.48
-21.36
-19.57
-15.92
-10.60
-4.18
2.50
8.54
13.27
16.36
17.80
17.86
16.91
15.38
13.65
11.98
10.51
9.21
7.97
6.65
5.17
3.55
1.90
0.39
-0.90
-1.94
-2.82
-3.66
-4.63
-5.79
-7.15
-8.58
-9.85
-10.57
-10.30
-8.66
-5.45
-0.79
4.84
10.69
15.92
19.86
22.16
22.88
22.30
20.86
18.91
16.67
14.28
11.85
9.57
7.59
6.06
4.94
4.13
3.42
2.63
1.66
0.51
-0.80
-2.26
-3.92
-5.86
-8.11
-10.61
-13.08
-15.07
-16.09
-15.68
-13.62
-10.04
-5.36
-0.21
4.74
8.95
12.10
14.07
14.94
14.86
14.05
12.73
11.06
9.24
7.38
5.64
4.12
2.87
1.92
1.27
0.83
0.52
0.27
0.00
-0.32
-0.71
-1.24
-1.99
-3.04
-4.46
-6.18
-8.02
-9.62
-10.53
-10.38
-8.96
-6.37
-2.96
0.73
4.20
7.06
9.18
10.55
11.28
11.45
11.08
10.19
8.87
7.30
5.74
4.47
3.68
3.41
3.51
3.75
3.97
4.06
4.12
4.33
4.88
5.85
7.16
8.56
9.74
10.57
11.18
12.04
13.76
16.88
21.56
27.51
34.05
40.31
45.55
49.28
51.30
51.65
50.49
48.12
44.93
41.33
37.52
33.42
28.60
22.47
14.61
5.03
-5.79
-17.01
-27.78
-37.42
-45.48
-51.68
-55.77
-57.57
-57.09
-54.71
-51.24
-47.76
-45.16
-43.85
-43.51
-43.28
-42.06
-39.07
-34.12
-27.65
-20.61
-13.95
-8.43
-4.36
-1.68
-0.08
0.74
1.04
0.97
0.58
-0.07
-0.93
-1.86
-2.74
-3.40
-3.76
-3.81
-3.67
-3.55
-3.70
-4.30
-5.41
-6.91
-8.59
-10.23
-11.65
-12.63
-12.89
-12.07
-9.81
-5.96
-0.75
5.15
10.86
15.52
18.64
20.16
20.41
19.79
18.60
16.93
14.76
12.10
9.08
6.04
3.36
1.37
0.15
-0.45
-0.77
-1.14
-1.72
-2.48
-3.24
-3.81
-4.14
-4.35
-4.66
-5.31
-6.40
-7.87
-9.51
-11.03
-12.06
-12.25
-11.31
-9.14
-5.89
-1.92
2.28
6.28
9.78
12.59
14.63
15.82
16.15
15.66
14.55
13.14
11.70
10.43
9.34
8.36
7.41
6.51
5.74
5.23
5.04
5.04
4.98
4.48
3.17
0.81
-2.59
-6.78
-11.25
-15.44
-18.82
-21.03
-21.89
-21.31
-19.37
-16.19
-12.08
-7.43
-2.76
1.44
4.76
6.98
8.02
7.94
6.98
5.37
3.47
1.60
-0.06
-1.43
-2.61
-3.74
-4.93
-6.17
-7.33
-8.19
-8.57
-8.42
-7.85
-7.16
-6.75
-7.12
-8.66
-11.58
-15.65
-20.14
-23.87
-25.48
-23.88
-18.64
-10.23
0.15
10.86
20.39
27.75
32.56
35.03
35.62
34.87
33.22
31.09
28.85
26.79
25.13
23.89
22.97
22.21
21.57
21.24
21.53
22.72
24.77
27.21
29.24
29.95
28.62
25.03
19.52
13.00
6.76
2.04
-0.28
-0.08
1.82
3.95
4.68
2.93
-1.46
-7.80
-15.00
-22.07
-28.41
-33.78
-37.93
-40.44
-40.86
-38.97
-35.22
-30.76
-27.14
-25.72
-27.18
-31.33
-37.26
-43.83
-50.15
-55.87
-61.24
-66.79
-72.98
-79.77
-86.57
-92.49
-96.67
-98.68
-98.56
-96.66
-93.36
-88.81
-82.90
-75.51
-66.68
-56.74
-46.23
-35.75
-25.80
-16.65
-8.46
-1.30
4.91
10.34
15.32
20.19
25.20
30.32
35.38
40.09
44.23
47.71
50.50
52.54
53.69
53.74
52.64
50.49
47.69
44.66
41.71
38.87
36.03
33.13
30.33
28.07
26.88
27.11
28.74
31.31
34.06
36.22
37.22
36.83
35.08
32.22
28.63
24.76
21.09
18.06
15.95
14.80
14.34
14.13
13.66
12.63
11.03
9.22
7.73
7.04
7.37
8.56
10.06
11.03
10.64
8.28
3.88
-1.97
-8.14
-13.21
-15.96
-15.82
-13.04
-8.55
-3.62
0.62
3.54
5.12
5.73
5.88
5.87
5.77
5.47
4.80
3.73
2.37
0.97
-0.22
-1.02
-1.37
-1.23
-0.52
0.84
2.97
5.83
9.20
12.67
15.68
17.78
18.70
18.55
17.79
17.22
17.62
19.59
23.28
28.39
34.34
40.46
46.36
52.01
57.66
63.55
69.72
75.81
81.14
84.95
86.74
86.57
85.16
83.75
83.63
85.62
89.63
94.50
98.45
99.75
97.58
92.42
86.01
80.75
78.89
81.80
89.76
101.93
116.63
131.41
143.26
148.98
145.65
131.31
105.36
68.63
23.04
-28.98
-84.61
-140.62
-193.10
-237.65
-270.08
-287.66
-290.10
-279.89
-261.52
-240.04
-219.55
-202.37
-189.09
-179.35
-172.65
-168.83
-167.91
-169.52
-172.44
-174.61
-173.67
-167.69
-155.89
-138.96
-118.95
-98.73
-81.36
-69.18
-63.29
-63.01
-66.03
-69.02
-68.66
-62.78
-50.93
-34.35
-15.27
4.06
22.01
37.70
50.79
61.04
68.19
72.11
73.06
71.82
69.53
67.35
66.06
65.81
66.20
66.52
66.05
64.37
61.38
57.37
52.83
48.27
44.11
40.63
37.97
36.17
35.20
34.95
35.29
35.95
36.68
37.23
37.48
37.42
37.04
36.30
35.01
32.92
29.86
25.88
21.32
16.64
12.24
8.26
4.55
0.86
-2.95
-6.73
-10.08
-12.44
-13.47
-13.20
-12.08
-10.84
-10.18
-10.49
-11.79
-13.79
-16.11
-18.54
-21.02
-23.52
-25.89
-27.67
-28.25
-27.11
-24.11
-19.61
-14.42
-9.39
-5.19
-2.07
0.02
1.22
1.62
1.26
0.22
-1.26
-2.77
-3.94
-4.57
-4.75
-4.77
-4.98
-5.60
-6.68
-8.06
-9.42
-10.41
-10.64
-9.83
-7.85
-4.81
-1.11
2.70
6.05
8.63
10.58
12.43
14.98
18.97
24.87
32.66
41.81
51.42
60.42
67.74
72.53
74.26
72.84
68.61
62.16
54.29
45.70
36.92
28.28
19.97
12.13
4.87
-1.70
-7.48
-12.42
-16.42
-19.33
-20.91
-21.02
-19.77
-17.54
-14.98
-12.76
-11.26
-10.54
-10.30
-10.14
-9.75
-9.04
-8.16
-7.39
-7.16
-7.97
-10.37
-14.71
-20.79
-27.77
-34.23
-38.66
-40.07
-38.42
-34.49
-29.52
-24.49
-19.72
-14.98
-9.89
-4.43
0.83
4.95
7.09
6.93
4.91
1.94
-0.99
-3.21
-4.54
-5.12
-5.04
-4.12
-1.88
2.24
8.51
16.71
26.11
35.73
44.66
52.24
58.07
61.94
63.78
63.62
61.74
58.74
55.37
52.28
49.70
47.28
44.23
39.70
33.29
25.27
16.64
8.60
2.15
-2.29
-4.95
-6.46
-7.52
-8.65
-10.06
-11.77
-13.65
-15.55
-17.27
-18.61
-19.34
-19.28
-18.38
-16.66
-14.34
-11.66
-8.97
-6.60
-4.83
-3.84
-3.57
-3.86
-4.40
-4.92
-5.17
-5.01
-4.35
-3.17
-1.50
0.50
2.60
4.53
6.14
7.47
8.83
10.60
13.04
16.07
19.24
21.96
23.79
24.69
25.12
25.89
27.85
31.62
37.36
44.64
52.40
59.23
63.65
64.68
62.40
58.00
53.47
50.84
51.25
54.37
58.46
60.78
58.57
49.94
34.44
13.25
-11.21
-35.83
-57.58
-74.13
-84.22
-87.69
-85.48
-79.50
-72.41
-67.29
-66.85
-72.48
-83.48
-96.92
-108.45
-113.83
-110.53
-98.46
-79.83
-58.11
-36.69
-18.01
-3.23
7.54
14.73
18.97
20.95
21.36
20.86
20.05
19.36
18.99
19.02
19.40
20.13
21.26
22.89
25.16
28.18
31.98
36.49
41.59
47.15
53.12
59.53
66.46
73.78
81.03
87.20
90.97
91.06
86.75
78.27
66.90
54.63
43.45
34.75
28.78
24.75
21.20
16.73
10.47
2.38
-7.01
-16.98
-26.95
-36.54
-45.50
-53.44
-59.79
-63.98
-65.67
-65.05
-62.86
-60.10
-57.73
-56.29
-55.77
-55.68
-55.29
-53.92
-51.24
-47.33
-42.44
-36.86
-30.59
-23.47
-15.37
-6.52
2.33
10.12
15.86
19.02
19.71
18.53
16.27
13.59
10.86
8.37
6.53
5.96
7.36
11.14
17.13
24.44
31.84
38.27
43.35
47.41
51.00
54.12
55.80
54.31
48.12
36.93
22.10
6.06
-9.07
-22.76
-36.43
-52.34
-71.76
-93.58
-114.17
-128.95
-134.64
-131.00
-120.97
-109.25
-100.22
-96.24
-97.38
-102.15
-108.70
-115.54
-121.54
-125.51
-125.93
-121.31
-110.86
-95.16
-76.18
-56.72
-39.46
-26.22
-17.61
-13.11
-11.40
-10.77
-9.46
-6.07
0.02
8.29
17.17
24.27
27.17
24.21
15.21
1.54
-14.11
-28.49
-38.73
-43.04
-41.21
-34.51
-25.20
-15.70
-7.90
-2.76
-0.28
0.13
-0.81
-2.58
-4.95
-7.84
-11.10
-14.20
-16.20
-15.79
-11.59
-2.52
11.74
30.42
51.81
73.57
93.48
109.98
122.48
131.33
137.48
142.09
146.30
151.01
156.67
163.08
169.24
173.52
174.04
169.36
158.84
142.86
122.50
99.31
75.14
52.11
32.44
18.10
10.13
8.11
10.20
13.73
16.28
16.68
15.30
13.68
13.54
15.74
19.81
23.97
25.81
23.12
14.84
1.44
-15.04
-31.52
-44.78
-52.46
-53.76
-49.68
-42.66
-35.71
-31.52
-31.63
-36.13
-43.87
-52.95
-61.38
-67.61
-70.70
-70.33
-66.70
-60.41
-52.36
-43.71
-35.62
-28.98
-24.24
-21.36
-20.10
-20.22
-21.66
-24.41
-28.25
-32.56
-36.32
-38.45
-38.13
-35.17
-30.03
-23.63
-17.08
-11.32
-6.98
-4.30
-3.20
-3.44
-4.83
-7.25
-10.70
-15.12
-20.27
-25.81
-31.46
-37.27
-43.64
-51.15
-60.18
-70.51
-81.34
-91.50
-99.87
-105.65
-108.42
-108.01
-104.43
-97.89
-88.88
-78.19
-66.72
-55.13
-43.63
-32.04
-20.09
-7.87
4.03
14.58
22.75
27.94
30.21
30.22
28.89
27.00
24.99
22.84
20.36
17.47
14.54
12.42
12.18
14.63
19.81
26.82
34.02
39.73
42.89
43.47
42.45
41.21
40.91
42.01
44.28
46.78
48.13
46.48
39.84
26.72
7.03
-17.15
-41.62
-61.09
-71.07
-69.52
-57.73
-39.58
-19.84
-2.26
11.52
21.83
29.98
37.09
43.54
49.01
53.14
56.07
58.59
61.92
67.01
74.08
82.33
90.24
96.11
98.73
97.76
93.63
87.17
79.08
69.71
59.04
47.00
33.82
20.38
8.00
-1.96
-8.60
-11.89
-12.58
-12.06
-11.84
-12.95
-15.46
-18.53
-20.79
-20.96
-18.46
-13.40
-6.78
-0.22
4.95
8.36
10.81
13.77
18.65
26.05
36.08
47.64
58.62
66.94
71.53
72.69
71.81
70.43
69.75
71.09
74.40
78.03
79.78
78.20
73.31
66.45
59.34
53.58
51.50
53.98
59.75
65.92
69.02
65.83
54.04
32.56
-3.87
-51.49
-97.99
-129.38
-139.06
-130.30
-112.60
-93.40
-76.58
-62.91
-49.92
-35.13
-18.99
-3.04
10.79
21.09
27.25
29.17
27.40
23.94
20.30
16.68
12.36
6.69
-0.16
-7.03
-12.52
-15.45
-14.67
-10.19
-3.29
4.36
11.58
18.15
24.34
29.99
34.17
35.52
32.64
24.72
12.47
-1.74
-14.52
-22.74
-24.74
-20.75
-12.45
-2.22
7.45
14.52
17.39
14.93
6.49
-7.74
-26.17
-45.38
-60.03
-64.25
-53.37
-25.75
16.01
65.04
111.52
145.06
157.72
146.21
112.00
60.17
-1.99
-66.45
-125.30
-171.41
-199.65
-207.81
-196.85
-171.42
-138.44
-104.26
-72.46
-43.32
-15.11
12.74
38.36
58.82
69.51
66.27
48.75
21.32
-8.52
-32.98
-48.70
-56.60
-57.46
-53.38
-46.60
-36.57
-21.26
0.32
26.28
49.39
61.76
63.00
55.11
40.11
21.83
4.35
-9.03
-16.27
-20.23
-25.61
-31.72
-40.28
-56.61
-83.59
-120.93
-165.75
-193.51
-184.79
-168.22
-157.27
-140.87
-113.78
-73.17
-20.18
39.82
99.01
146.95
176.70
192.99
202.34
207.79
211.30
213.18
212.98
210.62
204.52
193.84
183.25
175.65
169.95
164.96
160.19
156.08
153.65
152.12
149.95
148.18
146.45
142.26
133.70
119.85
101.03
78.48
53.19
26.31
0.56
-22.02
-40.88
-55.82
-67.04
-74.80
-79.29
-80.74
-79.19
-74.10
-65.55
-54.86
-44.41
-37.17
-36.05
-43.12
-58.97
-82.56
-111.45
-142.30
-171.57
-196.09
-213.68
-223.85
-228.17
-229.99
-233.32
-241.22
-254.24
-269.94
-283.69
-290.55
-287.20
-273.09
-250.19
-221.79
-191.15
-160.57
-131.36
-104.45
-80.90
-61.96
-48.79
-41.83
-40.49
-43.27
-48.14
-53.20
-57.44
-60.90
-64.53
-69.67
-77.22
-87.26
-98.88
-110.60
-120.90
-128.83
-134.02
-136.59
-136.75
-134.55
-129.94
-122.86
-113.42
-101.89
-88.60
-73.88
-58.07
-41.63
-25.24
-9.70
4.27
16.40
27.06
37.09
47.48
58.71
70.50
81.85
91.34
97.80
100.73
100.45
97.90
94.13
89.85
85.22
80.03
74.04
67.32
60.38
54.00
48.88
45.29
42.89
40.91
38.40
34.83
30.31
25.73
22.44
21.70
24.24
29.91
37.82
46.76
55.60
63.66
70.59
76.13
79.89
81.26
79.69
75.06
67.94
59.52
51.16
43.90
37.95
32.68
26.92
19.66
10.54
0.20
-9.98
-18.37
-23.92
-26.66
-27.97
-30.09
-35.24
-44.56
-57.23
-70.44
-79.89
-81.09
-70.68
-47.54
-13.23
28.33
71.81
111.90
144.51
167.75
182.02
189.24
191.47
189.52
182.12
166.33
138.92
98.29
46.12
-12.46
-69.93
-118.50
-152.23
-168.42
-167.60
-152.71
-127.82
-97.00
-63.81
-31.05
-0.78
25.58
47.16
63.50
74.57
80.73
82.95
82.90
82.97
85.93
94.02
108.15
127.34
148.91
169.17
184.58
192.61
192.27
183.96
168.99
149.00
125.66
100.72
76.16
54.29
37.40
27.14
24.02
26.92
33.32
40.18
44.88
46.04
43.69
38.96
33.44
28.81
26.25
26.16
28.23
31.62
35.25
38.09
39.42
38.90
36.90
33.76
29.48
23.62
15.68
5.58
-6.11
-18.26
-29.53
-37.91
-42.27
-42.86
-41.00
-38.10
-34.95
-31.65
-27.96
-23.71
-17.03
-7.11
5.03
17.03
26.61
32.79
35.92
37.27
38.59
44.86
59.49
82.34
109.78
136.82
159.30
174.91
183.31
185.97
189.74
200.27
219.16
243.58
268.87
291.02
307.53
317.25
294.16
227.01
124.65
11.48
-89.68
-168.06
-223.05
-258.54
-279.04
-288.49
-286.17
-272.58
-251.72
-229.60
-211.52
-199.77
-193.84
-191.59
-190.62
-185.91
-174.60
-157.57
-138.72
-122.64
-111.71
-106.51
-105.96
-107.93
-107.97
-103.13
-93.66
-82.63
-73.83
-69.72
-70.42
-73.90
-76.94
-75.49
-67.26
-52.95
-35.57
-19.15
-7.56
-4.17
-11.41
-30.30
-57.58
-85.39
-103.99
-105.61
-87.45
-52.63
-9.25
32.58
64.30
81.71
85.36
78.96
67.40
54.75
43.52
34.76
28.87
26.12
26.71
30.76
36.43
41.28
43.05
40.58
34.25
25.75
17.47
11.47
8.73
8.86
10.72
12.87
14.28
14.53
13.84
12.93
12.39
12.58
13.58
15.53
17.93
20.67
23.72
27.13
30.96
34.52
36.77
37.02
35.42
32.83
30.50
29.51
30.51
33.57
37.38
40.22
41.36
41.31
41.26
42.23
44.53
47.77
51.23
52.91
50.58
43.08
30.28
12.38
-10.39
-37.79
-69.22
-95.69
-107.32
-99.58
-76.19
-45.00
-12.67
17.42
44.15
67.56
88.29
105.89
117.72
124.87
129.15
131.99
134.53
137.16
139.62
141.27
140.30
134.41
121.62
104.91
85.86
65.52
44.33
22.31
-0.64
-25.03
-51.32
-79.21
-107.97
-137.34
-167.14
-197.40
-228.22
-259.66
-292.16
-326.33
-362.35
-399.78
-437.52
-473.11
-503.13
-523.97
-532.77
-528.22
-510.56
-481.00
-441.15
-393.12
-339.38
-283.14
-228.26
-178.43
-135.90
-100.57
-69.85
-39.74
-6.79
30.47
70.63
109.70
142.71
165.53
176.33
175.90
167.03
153.36
138.31
124.59
114.21
108.67
109.10
115.97
128.63
145.21
162.84
178.61
190.42
197.59
200.77
201.38
200.93
200.49
200.56
201.10
201.77
202.08
201.56
199.83
196.75
192.48
187.56
182.85
179.38
178.15
179.87
184.79
192.61
202.68
214.18
226.42
239.06
252.19
266.24
281.71
298.87
317.45
336.56
354.86
370.81
382.86
389.64
389.95
382.93
368.21
346.19
318.20
286.32
252.96
220.27
189.67
161.71
136.29
113.11
91.89
72.53
54.91
38.77
23.58
8.74
-6.32
-21.88
-37.91
-54.23
-70.62
-87.00
-103.44
-120.13
-137.30
-155.20
-174.18
-194.55
-216.36
-239.09
-261.37
-281.19
-296.45
-305.74
-309.03
-307.76
-304.40
-301.60
-301.28
-304.19
-309.83
-316.90
-323.90
-329.60
-333.22
-334.46
-333.30
-330.05
-325.33
-320.20
-316.02
-314.01
-314.57
-316.68
-318.00
-315.76
-308.16
-295.44
-280.09
-265.71
-255.33
-249.93
-248.02
-246.50
-242.22
-233.22
-219.20
-200.99
-179.59
-155.58
-129.04
-100.11
-69.54
-38.87
-9.99
15.50
36.92
54.66
69.88
83.74
96.84
108.98
119.34
127.01
131.47
132.79
131.53
128.34
123.57
117.18
108.85
98.29
85.59
71.29
56.19
41.17
26.85
13.63
1.78
-8.37
-16.32
-21.53
-23.64
-22.68
-19.16
-13.92
-7.95
-2.24
2.34
5.03
5.34
3.19
-0.96
-6.18
-11.41
-15.81
-19.10
-21.55
-23.76
-26.21
-29.08
-32.26
-35.57
-38.90
-42.27
-45.71
-49.16
-52.49
-55.66
-58.75
-61.85
-64.73
-66.69
-66.55
-63.08
-55.45
-43.62
-28.34
-10.81
7.69
26.10
43.63
59.60
73.32
84.09
91.44
95.29
95.97
94.17
90.69
86.22
81.33
76.46
71.94
68.04
64.97
62.79
61.40
60.48
59.56
58.11
55.56
51.37
45.13
36.77
26.94
17.10
9.51
6.65
10.43
21.31
37.95
57.56
76.81
92.91
104.23
110.39
111.72
108.76
101.99
92.13
80.50
69.21
60.66
56.81
58.28
64.14
72.30
80.44
86.91
91.16
93.54
94.80
95.60
96.21
96.64
96.85
96.85
96.64
96.06
94.75
92.38
88.92
84.90
81.33
79.36
79.86
83.05
88.42
94.95
101.51
107.12
111.14
113.28
113.46
111.82
108.63
104.30
99.34
94.26
89.34
84.52
79.40
73.41
66.11
57.46
48.00
38.77
31.09
26.05
24.05
24.59
26.27
27.54
27.43
26.14
25.05
26.19
31.45
41.90
57.43
76.76
97.61
116.81
130.71
135.85
130.04
113.38
88.60
60.33
33.51
11.50
-4.94
-17.61
-29.55
-43.45
-60.39
-79.31
-97.45
-111.23
-117.27
-113.33
-98.85
-75.22
-45.53
-14.04
14.72
36.86
49.75
52.29
44.88
29.19
7.97
-15.33
-37.14
-54.52
-65.98
-71.76
-73.58
-73.58
-73.26
-72.59
-70.01
-63.23
-50.38
-31.01
-6.42
20.60
46.58
68.26
83.40
91.31
93.02
91.08
88.95
90.07
96.91
110.07
127.90
146.71
161.85
168.95
165.18
149.85
124.10
89.88
48.73
1.11
-53.24
-114.21
-180.02
-246.82
-309.29
-362.09
-401.28
-424.96
-433.09
-426.67
-407.17
-376.37
-336.67
-291.39
-244.60
-200.26
-161.21
-128.44
-101.08
-77.29
-55.42
-35.17
-17.99
-6.71
-4.29
-12.28
-29.79
-53.30
-77.48
-96.76
-106.91
-106.09
-95.05
-76.44
-53.81
-30.58
-9.40
8.11
21.28
30.01
34.55
35.23
32.48
26.98
19.73
12.07
5.42
1.02
-0.32
1.73
7.02
15.03
24.79
35.01
44.24
51.17
55.14
56.38
55.98
55.41
55.90
58.03
61.61
65.96
70.20
73.64
75.70
75.96
74.03
69.61
62.52
52.86
40.99
27.44
12.81
-2.37
-17.72
-32.98
-48.03
-62.90
-77.62
-92.24
-106.74
-120.98
-134.76
-147.59
-158.74
-167.12
-171.46
-170.63
-163.95
-151.46
-133.84
-112.19
-87.69
-61.49
-34.65
-8.32
16.38
38.43
57.30
73.07
86.24
97.25
106.01
111.76
113.45
110.39
102.86
92.24
80.52
69.61
60.64
53.83
48.70
44.52
40.61
36.47
31.74
26.35
20.63
15.43
12.01
11.58
14.70
20.95
29.18
38.12
47.15
56.56
67.24
79.89
94.31
109.33
123.22
134.59
142.93
148.76
153.08
156.87
160.66
164.56
168.53
172.51
176.35
179.51
180.92
179.19
173.14
162.48
148.33
133.15
120.25
112.86
113.25
122.07
138.32
159.79
183.67
207.36
228.87
246.86
260.59
269.89
275.35
278.36
280.69
283.70
287.42
290.01
288.27
278.89
259.86
231.20
194.86
153.74
110.63
67.57
25.81
-13.96
-51.17
-85.35
-116.14
-143.35
-167.04
-187.29
-204.11
-217.37
-227.02
-233.09
-235.82
-235.54
-232.36
-226.01
-215.92
-201.66
-183.35
-162.03
-139.60
-118.39
-100.35
-86.57
-77.42
-73.28
-75.26
-85.42
-106.29
-139.42
-183.90
-235.91
-289.72
-340.11
-384.93
-426.20
-468.78
-516.92
-570.57
-623.78
-666.18
-687.05
-679.84
-644.92
-589.35
-524.21
-461.02
-408.79
-372.64
-353.85
-350.45
-357.88
-369.68
-378.67
-378.36
-364.28
-334.97
-291.86
-238.54
-179.32
-118.09
-57.19
2.76
62.42
122.63
183.20
242.36
297.08
343.99
380.41
405.17
418.62
422.22
417.88
407.72
394.08
379.34
365.55
353.60
342.69
330.67
315.22
295.31
271.97
248.02
226.66
210.02
198.23
189.44
180.80
169.89
155.94
140.14
125.21
114.02
108.20
107.21
108.47
108.35
103.78
93.34
77.33
57.28
35.34
14.25
-2.49
-11.21
-9.35
2.70
20.46
36.15
41.32
30.12
1.67
-39.63
-85.78
-127.54
-156.75
-167.71
-157.79
-127.70
-81.28
-24.62
35.44
92.55
141.36
177.32
196.68
197.45
181.03
153.16
122.93
99.56
88.26
88.02
92.53
94.32
89.16
77.95
64.95
53.85
44.58
33.21
14.87
-12.38
-45.72
-78.91
-105.76
-123.39
-133.14
-138.96
-144.54
-151.18
-157.81
-162.60
-164.78
-165.29
-165.86
-167.39
-169.15
-169.22
-165.91
-158.91
-149.20
-137.83
-124.71
-108.56
-88.15
-64.03
-39.20
-18.08
-4.23
1.74
2.49
2.36
4.73
10.10
15.99
18.68
15.70
7.46
-2.89
-11.00
-13.52
-9.61
-1.16
8.18
14.67
15.91
11.44
2.52
-8.87
-20.83
-32.04
-41.58
-48.49
-51.53
-49.24
-40.62
-25.80
-6.48
14.25
32.63
45.19
49.68
45.70
34.72
19.67
4.24
-8.08
-14.68
-14.36
-7.31
5.26
21.59
39.93
58.89
77.73
96.29
114.70
132.91
150.31
165.65
177.30
183.86
184.70
180.22
171.56
160.03
146.56
131.55
115.08
97.32
78.85
60.56
43.32
27.59
13.32
0.12
-12.40
-24.30
-35.15
-44.13
-50.41
-53.43
-53.18
-50.21
-45.46
-40.04
-34.89
-30.55
-27.09
-24.22
-21.56
-18.87
-16.28
-14.22
-13.33
-14.18
-16.99
-21.56
-27.20
-32.87
-37.43
-39.87
-39.52
-36.26
-30.52
-23.12
-15.07
-7.34
-0.72
4.31
7.66
9.57
10.51
11.04
11.67
12.67
14.14
15.96
17.92
19.80
21.30
22.03
21.53
19.48
15.93
11.39
6.77
2.94
0.38
-1.13
-2.40
-4.32
-7.30
-10.89
-13.75
-14.12
-10.53
-2.38
9.85
24.78
40.61
55.66
68.68
79.07
86.81
92.22
95.73
97.76
98.69
98.75
98.07
96.64
94.33
91.01
86.70
81.79
77.00
73.35
71.84
73.18
77.56
84.58
93.38
102.85
111.94
119.76
125.73
129.56
131.27
131.14
129.65
127.30
124.52
121.56
118.53
115.46
112.33
109.09
105.61
101.58
96.62
90.34
82.55
73.26
62.56
50.53
37.08
22.13
5.79
-11.44
-28.64
-44.72
-58.74
-70.18
-78.95
-85.26
-89.44
-91.78
-92.60
-92.29
-91.34
-90.25
-89.34
-88.52
-87.22
-84.61
-79.83
-72.35
-62.19
-49.98
-36.84
-24.11
-13.02
-4.45
1.23
4.06
4.41
2.80
-0.24
-4.30
-9.08
-14.43
-20.25
-26.45
-32.85
-39.27
-45.55
-51.55
-57.13
-62.14
-66.46
-70.10
-73.32
-76.66
-80.76
-86.03
-92.32
-98.76
-103.95
-106.39
-105.05
-99.71
-91.02
-80.32
-69.20
-59.18
-51.43
-46.68
-45.17
-46.71
-50.71
-56.35
-62.72
-69.02
-74.80
-80.01
-85.07
-90.60
-97.23
-105.27
-114.59
-124.72
-135.05
-145.15
-154.92
-164.60
-174.68
-185.70
-198.08
-211.93
-227.04
-242.70
-257.86
-271.27
-281.70
-288.30
-290.81
-289.49
-284.96
-277.89
-268.80
-257.94
-245.21
-230.16
-211.97
-189.57
-161.95
-128.45
-89.15
-45.01
2.20
50.07
96.02
137.66
173.13
201.46
222.64
237.48
247.30
253.35
256.49
257.09
255.16
250.60
243.50
234.06
222.53
209.07
193.90
177.35
160.06
142.78
126.15
110.63
96.39
83.51
72.13
62.49
54.72
48.66
43.84
39.54
35.22
30.72
26.27
22.28
19.20
17.31
16.86
18.28
22.12
28.62
37.16
46.19
53.65
57.76
57.96
55.33
52.35
52.37
59.16
76.20
105.66
147.04
196.25
246.02
288.00
315.82
327.68
326.83
319.78
312.99
310.16
311.33
314.09
315.72
314.48
309.64
300.88
287.62
269.22
245.71
218.14
188.18
156.97
124.40
89.20
49.80
5.76
-41.45
-88.61
-131.84
-168.19
-196.64
-218.24
-235.27
-250.21
-264.84
-280.13
-296.60
-314.39
-333.17
-351.82
-368.46
-381.54
-391.33
-400.87
-415.39
-439.74
-475.46
-518.68
-560.72
-591.12
-601.45
-588.12
-552.42
-499.09
-434.06
-362.41
-287.66
-211.88
-136.40
-62.45
8.13
73.25
130.04
174.95
204.63
217.41
214.20
198.50
175.54
150.44
127.56
109.04
94.48
81.88
69.20
55.34
40.61
27.26
18.43
18.48
30.77
55.98
91.54
132.37
172.04
204.80
229.90
244.48
249.18
247.62
243.50
236.78
226.08
210.79
190.12
164.53
134.05
98.74
57.95
11.36
-38.86
-86.96
-124.78
-144.75
-142.67
-119.89
-82.01
-37.63
4.41
37.90
60.37
72.18
74.78
69.35
56.06
37.68
18.73
3.97
-3.82
-4.36
1.01
10.14
20.61
30.27
38.05
43.56
45.39
44.97
43.74
43.06
44.39
48.74
56.20
65.81
75.62
83.27
87.04
88.38
88.91
91.04
97.14
108.66
125.90
147.94
173.18
199.92
226.33
250.45
270.82
286.75
298.78
308.66
318.64
330.16
342.76
353.42
357.19
349.34
327.31
291.98
247.45
199.28
152.49
110.06
72.60
39.07
8.40
-20.03
-46.50
-71.43
-95.61
-119.77
-143.97
-167.40
-189.09
-208.84
-227.95
-248.94
-274.39
-305.45
-341.24
-379.52
-418.19
-456.61
-495.62
-536.41
-578.80
-620.18
-655.91
-681.06
-692.51
-690.16
-676.69
-656.16
-632.11
-606.31
-578.81
-548.83
-516.02
-481.07
-445.66
-411.64
-380.15
-351.20
-323.66
-295.89
-266.32
-233.90
-198.31
-159.78
-119.05
-77.07
-34.73
7.41
49.23
90.98
132.92
175.03
216.71
256.90
294.40
328.37
358.64
385.74
410.77
434.95
459.32
484.69
511.45
539.22
566.07
588.00
599.18
593.68
567.75
521.79
460.79
392.90
326.76
268.72
221.43
184.18
154.91
131.94
114.66
102.92
95.96
92.02
88.27
81.57
69.16
50.41
26.81
1.21
-23.62
-45.85
-64.39
-79.19
-91.06
-102.13
-113.12
-123.64
-132.30
-138.13
-140.73
-139.51
-134.05
-124.59
-113.37
-101.21
-88.36
-74.72
-61.34
-50.11
-41.59
-35.20
-29.52
-24.53
-17.79
-6.02
14.04
43.10
71.49
88.03
86.98
82.79
80.18
82.16
86.15
93.10
103.55
117.10
133.85
153.56
174.51
191.14
198.77
194.13
177.10
150.19
118.70
90.22
71.52
65.66
69.63
78.77
88.17
94.71
96.81
94.60
89.82
84.44
79.25
72.25
60.87
42.59
16.06
-18.88
-61.29
-109.60
-162.75
-220.57
-283.37
-349.23
-413.20
-467.79
-505.86
-523.59
-522.28
-508.03
-488.91
-471.74
-459.07
-448.96
-436.72
-417.66
-389.01
-350.30
-302.54
-247.36
-186.73
-123.30
-60.79
-3.47
45.04
83.09
111.57
133.23
151.13
167.19
181.64
193.48
201.47
205.02
204.33
200.01
192.63
182.59
170.30
156.53
142.36
128.94
117.11
107.15
98.82
91.76
86.02
81.81
79.23
77.89
76.80
74.14
67.46
54.26
32.99
4.05
-30.09
-65.37
-97.09
-120.91
-133.66
-134.06
-122.93
-103.19
-78.54
-53.39
-31.63
-15.13
-2.57
9.95
26.86
50.58
79.99
112.79
144.54
170.02
185.05
188.18
180.46
164.03
141.29
114.67
90.90
75.10
68.15
66.87
67.36
66.95
64.95
62.60
62.60
74.53
104.48
150.99
206.25
261.93
312.34
354.46
387.05
409.91
431.97
459.16
490.40
519.27
540.79
553.87
560.14
561.90
508.71
380.71
200.73
17.77
-132.33
-239.66
-310.32
-354.32
-380.16
-393.80
-391.11
-370.77
-337.74
-302.99
-274.57
-255.24
-243.57
-236.44
-230.86
-218.26
-194.04
-160.13
-127.40
-103.14
-90.05
-87.38
-93.03
-104.78
-116.47
-123.94
-126.58
-126.67
-125.60
-123.74
-120.98
-117.52
-114.47
-110.11
-103.40
-94.83
-86.08
-78.04
-71.01
-64.91
-59.53
-54.79
-49.96
-44.92
-40.31
-37.13
-35.58
-35.15
-34.54
-32.27
-27.14
-18.62
-7.35
5.30
17.53
27.89
35.48
40.11
42.20
42.41
41.39
39.48
36.83
33.50
29.59
25.26
20.71
16.16
11.86
8.09
5.16
3.47
3.15
3.80
4.51
4.24
2.26
-1.60
-6.89
-12.98
-18.96
-24.49
-29.88
-35.51
-41.21
-45.95
-48.42
-47.54
-43.30
-35.89
-26.47
-17.01
-9.45
-4.88
-3.33
-4.24
-6.43
-8.65
-8.17
-2.96
7.14
20.33
33.88
45.36
53.16
57.69
60.73
66.57
78.46
96.56
118.19
139.57
157.73
170.87
179.15
171.83
144.47
102.52
58.10
21.12
-4.85
-18.51
-24.28
-25.13
-23.31
-18.73
-11.40
-3.71
1.99
4.29
3.36
0.01
-4.12
-7.85
-9.14
-6.96
-1.96
4.09
9.36
12.84
14.02
13.37
11.39
9.46
8.53
8.73
9.64
10.82
12.23
13.75
15.38
16.79
17.79
18.16
17.72
16.59
15.35
14.92
15.97
18.84
23.26
28.81
35.05
41.67
48.60
55.85
63.54
71.76
80.64
90.18
100.00
109.06
115.56
117.37
112.64
100.62
81.97
58.51
32.50
5.76
-20.75
-46.77
-72.14
-96.08
-116.81
-131.76
-138.38
-135.11
-122.09
-101.26
-75.83
-49.23
-24.03
-1.45
18.50
36.29
52.03
65.08
74.18
78.21
76.75
70.33
60.25
47.99
34.82
21.67
9.18
-2.27
-12.52
-21.68
-30.15
-38.56
-47.46
-57.10
-67.29
-77.47
-87.01
-95.38
-102.41
-108.45
-114.35
-121.32
-130.42
-142.05
-155.50
-168.90
-179.70
-185.55
-185.17
-179.02
-169.33
-159.45
-152.66
-151.02
-154.59
-161.47
-168.53
-172.69
-171.88
-165.64
-154.94
-141.56
-127.39
-114.02
-102.60
-93.87
-88.06
-84.59
-82.00
-78.19
-71.18
-59.96
-45.04
-28.38
-12.55
0.41
9.75
16.22
21.42
26.95
33.87
42.59
53.18
65.67
80.00
95.49
110.54
122.76
129.81
130.47
125.66
118.10
111.28
107.77
107.90
109.99
111.61
110.93
107.55
102.07
95.25
87.67
80.37
75.69
77.18
87.76
107.10
130.21
148.62
154.30
143.91
120.87
93.66
71.41
59.34
56.98
59.89
63.16
64.45
64.46
65.21
67.46
69.57
67.97
59.31
42.50
19.42
-5.82
-28.59
-45.78
-56.89
-63.84
-69.74
-77.27
-87.39
-99.28
-111.22
-121.73
-130.52
-138.53
-147.24
-157.81
-170.42
-184.34
-198.28
-210.96
-221.25
-228.25
-231.20
-229.50
-223.04
-212.28
-198.02
-181.05
-161.74
-140.10
-116.33
-91.37
-67.13
-45.96
-29.70
-18.69
-11.64
-6.24
-0.42
6.66
14.39
21.32
26.20
28.76
29.80
30.68
32.53
35.69
39.64
43.27
45.42
45.28
42.59
37.64
31.21
24.36
18.28
14.09
12.65
14.42
19.39
27.08
36.62
46.82
56.39
64.00
68.58
69.47
66.70
61.01
53.73
46.44
40.54
36.87
35.58
36.23
38.10
40.46
42.83
45.00
46.90
48.55
49.85
50.72
51.21
51.42
51.23
50.37
48.60
45.94
42.87
40.31
39.57
42.00
48.45
58.62
71.11
83.93
95.18
103.65
109.01
111.85
113.49
115.44
118.40
122.32
126.80
131.68
137.07
142.92
149.58
157.91
168.77
180.81
191.15
196.54
194.20
182.46
159.94
127.21
87.90
48.42
13.30
-14.76
-34.78
-47.89
-57.08
-67.68
-82.76
-99.91
-111.42
-112.50
-102.49
-84.74
-65.89
-53.93
-57.94
-83.27
-128.80
-186.64
-250.58
-313.70
-365.87
-395.21
-377.54
-303.94
-195.15
-98.15
-28.17
14.77
35.28
40.11
36.59
29.72
19.49
6.05
-5.53
-4.91
12.79
45.79
86.63
124.39
148.40
150.76
130.88
96.40
60.27
30.92
11.73
2.73
1.80
5.87
10.76
12.93
10.83
5.32
-3.83
-16.38
-30.42
-42.93
-51.13
-54.11
-52.62
-47.97
-41.03
-33.31
-25.99
-19.23
-12.69
-6.13
0.09
5.14
8.15
8.56
5.76
-0.41
-9.00
-18.27
-26.14
-30.56
-30.02
-23.98
-13.14
0.72
15.22
28.64
39.77
47.98
53.51
57.28
60.67
64.76
70.24
77.05
85.35
94.51
103.04
109.21
111.69
109.93
103.96
94.81
84.03
74.69
69.13
67.95
70.29
74.40
78.73
82.10
84.71
79.90
65.68
45.88
27.52
15.82
11.58
15.25
23.55
34.26
45.73
57.66
69.44
76.58
75.86
65.63
46.52
20.77
-8.03
-36.38
-60.80
-79.57
-93.14
-103.24
-112.35
-122.86
-137.01
-156.00
-179.87
-206.33
-231.47
-250.83
-260.44
-258.44
-245.41
-223.93
-196.77
-165.77
-131.23
-93.21
-53.05
-13.83
20.20
45.40
60.35
66.49
67.03
65.23
62.66
58.68
51.46
39.41
22.63
3.31
-14.85
-27.83
-32.83
-29.19
-18.42
-3.40
12.81
28.02
41.34
52.83
62.88
71.59
78.51
83.04
84.89
84.39
82.57
80.91
80.95
83.90
90.28
99.68
110.88
122.12
131.59
138.00
140.90
140.68
138.26
134.66
130.68
126.86
123.50
120.89
119.37
119.41
121.36
125.34
131.05
137.79
144.53
150.17
153.63
154.01
150.60
142.79
130.01
111.76
87.71
57.97
23.21
-15.26
-55.56
-95.45
-132.45
-164.12
-188.34
-203.61
-209.35
-206.15
-195.68
-180.42
-163.15
-146.48
-132.34
-121.86
-115.31
-112.23
-111.61
-112.10
-112.34
-111.23
-108.38
-104.21
-99.92
-96.99
-96.44
-98.39
-101.88
-105.33
-107.38
-107.59
-106.77
-106.68
-109.25
-115.70
-126.20
-139.75
-154.68
-169.10
-181.18
-189.30
-192.11
-188.89
-179.87
-166.24
-149.38
-129.63
-105.16
-72.02
-25.86
35.35
108.86
186.62
257.21
309.64
336.99
338.21
317.58
282.08
238.74
193.12
149.17
109.95
78.19
56.17
44.93
43.47
48.51
55.01
57.49
51.37
33.91
4.47
-35.72
-84.15
-137.37
-190.99
-239.84
-278.28
-301.20
-305.15
-289.47
-256.58
-211.37
-159.82
-107.53
-58.75
-16.08
19.29
47.38
69.03
85.48
97.94
107.11
113.15
115.94
115.64
112.81
108.27
102.56
95.47
86.17
73.81
58.24
40.37
21.72
3.74
-12.82
-27.96
-41.79
-53.84
-62.92
-67.43
-66.27
-59.50
-48.38
-34.89
-20.83
-7.38
4.95
15.80
24.49
29.88
30.79
26.60
17.85
6.13
-6.30
-17.34
-25.55
-30.35
-31.62
-29.38
-23.53
-14.06
-1.39
13.46
28.86
43.00
54.23
61.37
63.79
61.39
54.63
44.51
32.59
20.78
10.88
4.27
1.56
2.59
6.62
12.52
18.84
23.92
25.97
23.33
15.01
1.05
-17.25
-37.57
-57.10
-73.11
-83.51
-87.18
-84.20
-75.79
-63.82
-50.48
-37.71
-26.93
-18.77
-13.27
-10.10
-9.19
-11.20
-17.35
-29.17
-47.65
-72.48
-101.41
-130.40
-154.38
-168.50
-169.50
-156.18
-129.79
-93.70
-52.62
-11.38
26.43
59.17
86.91
110.33
129.92
144.72
152.28
150.02
137.18
115.99
90.99
67.10
47.78
35.85
33.16
40.56
57.22
79.92
103.03
119.48
122.91
110.48
86.23
58.79
37.27
27.52
31.00
46.05
70.08
100.76
129.94
149.15
153.19
142.78
121.54
93.00
60.35
26.82
-3.05
-30.05
-53.93
-74.29
-91.22
-105.46
-117.87
-128.97
-136.74
-139.98
-138.66
-132.41
-121.61
-107.75
-93.25
-80.45
-70.41
-62.67
-55.90
-48.38
-37.32
-20.17
4.38
35.70
71.17
106.85
138.51
162.73
178.22
186.82
192.15
197.75
205.41
214.66
223.43
229.37
230.74
226.83
217.99
204.72
187.23
165.59
140.30
112.67
84.79
58.82
36.27
17.74
2.70
-10.04
-21.75
-33.25
-44.65
-55.40
-64.67
-71.81
-76.87
-80.81
-85.40
-92.61
-103.73
-118.59
-135.16
-149.94
-158.88
-158.76
-148.43
-129.49
-106.10
-83.82
-67.82
-61.17
-63.63
-71.73
-79.83
-82.11
-74.65
-56.83
-31.60
-4.79
16.13
23.87
13.18
-17.24
-63.27
-115.58
-161.65
-189.69
-192.82
-171.39
-132.40
-85.92
-40.83
-1.84
30.70
58.74
83.61
104.70
120.31
129.72
134.35
136.98
139.79
142.27
141.18
132.28
112.80
83.43
48.28
13.05
-17.17
-39.73
-54.89
-65.01
-73.16
-81.92
-92.66
-105.87
-121.76
-140.90
-164.36
-193.11
-226.88
-262.93
-295.76
-318.08
-322.97
-306.16
-267.63
-211.62
-145.28
-76.46
-11.89
44.01
89.30
123.88
148.77
165.41
175.34
180.16
181.64
181.65
181.79
182.96
184.98
186.81
187.05
184.68
179.61
172.77
165.67
159.74
155.80
153.75
152.96
152.60
152.15
151.51
150.94
150.73
151.03
151.70
152.47
153.24
154.30
156.31
159.90
165.36
172.27
179.09
183.33
182.45
175.35
163.13
148.83
136.16
128.00
125.76
129.57
138.84
152.47
168.37
182.84
190.75
187.02
168.96
137.97
99.48
60.93
28.76
6.11
-7.57
-15.11
-19.64
-23.42
-27.72
-33.37
-41.22
-52.24
-67.16
-85.78
-106.89
-127.87
-145.25
-155.79
-157.76
-151.63
-139.79
-125.77
-112.91
-103.60
-98.56
-97.05
-97.98
-101.21
-108.11
-120.81
-140.79
-167.27
-197.69
-227.64
-253.04
-272.59
-288.68
-305.88
-327.99
-355.50
-385.48
-415.81
-445.05
-473.18
-501.34
-530.44
-558.84
-581.34
-590.99
-582.59
-559.77
-529.03
-495.85
-462.66
-429.54
-394.83
-356.07
-311.78
-263.00
-219.94
-190.27
-174.52
-167.19
-162.32
-156.57
-149.14
-140.91
-133.44
-136.28
-152.94
-177.81
-200.26
-212.96
-214.85
-209.26
-200.98
-139.54
-10.38
158.08
318.39
442.76
528.08
580.88
607.05
610.18
593.70
554.64
497.97
435.70
383.22
350.79
340.48
348.24
367.30
389.49
398.97
387.55
358.00
320.20
283.28
252.06
227.67
209.55
196.41
182.43
163.61
139.15
110.81
80.68
50.98
24.42
3.93
-8.67
-15.54
-19.51
-22.47
-24.53
-25.59
-24.87
-23.09
-22.15
-24.46
-31.74
-42.33
-51.12
-51.75
-40.15
-17.40
9.96
33.39
46.21
46.51
37.20
23.59
10.38
-0.31
-9.20
-18.83
-30.19
-42.10
-51.84
-57.13
-57.37
-53.60
-47.07
-40.24
-36.74
-38.72
-46.72
-59.60
-75.74
-93.18
-109.23
-120.46
-123.84
-118.84
-105.50
-84.73
-57.63
-26.20
4.60
27.38
37.43
43.12
48.88
57.51
66.07
73.86
80.34
84.90
87.37
88.35
88.48
86.87
83.27
77.86
71.59
64.97
58.27
51.96
46.97
43.90
41.64
39.10
35.27
29.98
23.21
15.38
7.46
0.87
-3.34
-5.57
-6.50
-6.93
-7.24
-7.64
-8.10
-8.17
-7.26
-4.94
-1.53
2.36
6.01
8.92
10.73
11.33
10.94
9.95
8.85
8.05
8.17
9.98
14.29
21.49
31.20
42.32
53.32
62.93
70.66
76.80
81.95
86.13
88.39
87.05
80.59
68.77
53.16
36.71
22.51
12.41
6.23
2.04
-2.76
-10.14
-20.68
-33.54
-47.09
-59.79
-70.77
-79.96
-87.90
-95.23
-102.38
-109.47
-116.35
-122.83
-128.75
-133.92
-137.81
-139.53
-137.96
-132.15
-121.90
-108.01
-92.15
-76.36
-62.46
-51.52
-43.73
-38.54
-34.87
-31.42
-26.91
-20.31
-11.08
0.65
14.16
28.43
42.48
55.74
68.08
79.72
90.88
101.63
111.78
120.94
128.72
134.89
139.50
142.82
145.21
147.02
148.48
149.71
150.68
151.26
151.04
149.52
146.10
140.32
