1698684744.00
64.000000
-0.00
-0.00
-0.00
-0.00
-0.00
-0.00
-0.00
-0.00
-0.00
-0.00
0.00
0.01
0.01
-0.00
-0.03
-0.05
-0.05
0.00
0.13
0.36
0.66
1.01
1.37
1.72
2.06
2.40
2.79
3.24
3.80
4.42
5.06
5.66
6.20
6.68
7.15
7.68
8.31
9.14
10.09
11.04
11.88
12.56
13.14
13.76
14.65
15.96
17.91
20.32
22.90
25.38
27.58
29.57
31.68
34.32
37.81
42.54
48.15
54.10
59.83
64.97
69.58
74.14
79.34
85.71
93.76
103.00
112.62
121.73
129.77
136.75
143.30
150.75
157.77
166.64
177.95
191.79
206.97
220.57
228.25
225.36
208.53
176.87
132.76
80.05
23.07
-34.94
-92.44
-149.16
-205.23
-260.37
-313.74
-363.87
-409.83
-450.91
-486.50
-515.74
-537.23
-549.23
-549.96
-538.36
-514.18
-478.64
-433.85
-382.46
-327.09
-270.01
-212.90
-157.00
-103.35
-52.79
-6.32
35.16
70.98
100.85
124.93
143.72
157.96
168.36
175.55
179.91
181.70
181.12
178.44
174.00
168.24
161.61
154.50
147.15
139.64
131.97
124.10
116.02
107.85
99.75
91.91
84.50
77.54
70.93
64.51
58.11
51.67
45.26
39.07
33.32
28.17
23.65
19.60
15.78
11.94
7.97
3.88
-0.13
-3.86
-7.12
-9.83
-12.01
-13.70
-15.06
-16.39
-18.22
-21.15
-25.36
-30.16
-33.77
-33.89
-28.60
-17.50
-2.28
13.98
27.92
37.30
41.76
42.38
40.66
37.70
34.05
30.30
27.54
27.09
29.73
34.73
39.85
42.31
40.25
33.77
24.89
16.38
10.34
7.31
6.34
5.91
4.91
3.17
1.31
0.08
-0.21
0.08
0.18
-0.60
-2.61
-5.35
-7.94
-9.45
-9.42
-8.05
-6.12
-4.55
-4.04
-4.82
-6.57
-8.65
-10.19
-10.36
-8.60
-4.92
0.04
5.16
9.28
11.62
12.05
11.08
9.54
8.25
7.76
8.29
9.70
11.57
13.30
14.35
14.39
13.65
12.86
13.02
14.98
19.01
24.61
30.44
34.72
35.71
32.36
24.88
14.77
4.33
-4.63
-11.31
-16.16
-20.37
-24.92
-29.76
-33.90
-36.25
-36.55
-35.67
-35.05
-35.65
-37.12
-37.83
-35.79
-29.88
-20.64
-10.00
-0.54
5.83
8.41
7.74
5.13
1.90
-1.01
-3.33
-5.27
-7.28
-9.73
-12.63
-15.63
-18.10
-19.35
-18.85
-16.41
-12.07
-6.14
0.86
8.22
15.06
20.54
24.05
25.33
24.47
21.76
17.51
11.96
5.30
-2.10
-9.65
-16.59
-22.23
-26.25
-28.80
-30.45
-31.90
-33.66
-35.80
-38.03
-39.91
-41.12
-41.66
-41.89
-42.37
-43.59
-45.74
-48.39
-50.62
-51.33
-49.53
-44.71
-36.84
-26.25
-13.34
1.49
18.24
36.85
57.03
78.14
99.20
119.12
136.96
152.14
164.20
173.30
179.49
182.77
183.27
181.35
177.55
172.41
166.24
158.70
150.20
141.37
133.56
128.60
128.03
132.15
139.47
146.96
150.49
147.52
136.77
118.83
95.64
69.69
43.18
17.66
-2.83
-21.13
-36.95
-50.69
-63.12
-75.46
-89.23
-105.94
-126.65
-151.73
-181.44
-214.70
-250.63
-288.18
-325.90
-361.65
-392.66
-415.98
-429.23
-431.75
-423.73
-407.08
-384.33
-357.85
-329.21
-299.10
-267.55
-234.48
-200.24
-164.89
-128.61
-91.34
-52.77
-12.79
28.02
68.22
105.69
138.31
165.11
186.29
203.06
216.82
228.23
236.84
241.26
239.76
230.94
214.19
189.48
157.20
118.11
73.66
26.43
-19.79
-60.58
-91.98
-111.76
-120.04
-119.08
-112.28
-102.92
-93.44
-85.26
-79.18
-75.73
-75.21
-77.29
-80.69
-83.25
-82.54
-76.81
-65.73
-50.48
-33.21
-16.25
-1.25
11.19
21.45
30.40
38.75
46.61
53.49
58.68
61.67
62.59
62.28
62.15
63.77
68.42
76.76
88.57
102.86
117.64
130.16
137.50
137.45
129.15
113.39
92.30
68.71
45.95
26.77
13.05
5.92
6.05
13.78
28.99
50.95
78.28
109.97
144.30
178.62
209.78
234.87
251.82
259.61
258.16
248.08
231.98
212.71
192.43
172.78
155.20
141.01
130.87
124.52
120.84
119.93
121.44
123.41
122.81
117.22
106.54
93.90
85.34
73.63
57.28
39.08
21.63
3.60
-19.07
-49.19
-86.16
-126.95
-166.05
-202.54
-234.69
-260.02
-275.40
-277.87
-266.60
-244.65
-218.83
-194.76
-178.22
-171.49
-173.36
-180.06
-187.25
-191.99
-193.67
-193.32
-191.99
-188.99
-181.53
-166.91
-143.90
-113.14
-76.96
-38.62
-1.21
32.95
62.66
88.06
109.49
127.12
141.03
151.56
159.53
166.19
172.90
180.54
189.49
199.09
207.74
213.45
214.41
209.51
198.59
182.41
162.32
140.15
117.64
96.09
76.25
58.32
42.26
27.97
15.47
4.77
-4.12
-11.47
-17.73
-23.45
-29.00
-34.46
-39.58
-44.02
-47.48
-49.96
-51.71
-53.15
-54.71
-56.56
-58.53
-60.11
-60.65
-59.66
-57.07
-53.33
-49.28
-45.81
-43.48
-42.29
-41.74
-41.12
-39.86
-37.83
-35.42
-33.35
-32.39
-33.02
-35.20
-38.57
-42.39
-45.84
-48.34
-49.66
-50.00
-49.67
-48.79
-47.36
-45.53
-43.60
-41.93
-40.86
-40.34
-40.06
-39.40
-37.78
-35.01
-31.71
-28.61
-26.12
-24.12
-22.08
-19.85
-17.50
-15.26
-13.46
-13.11
-14.61
-17.46
-20.68
-23.21
-25.33
-27.52
-30.03
-32.85
-37.42
-44.28
-52.49
-60.26
-65.46
-68.54
-70.49
-72.05
-73.87
-78.83
-88.06
-99.91
-110.91
-116.91
-118.03
-115.80
-111.81
-107.96
-109.00
-117.24
-130.99
-145.81
-155.79
-160.09
-159.45
-155.21
-126.63
-67.50
9.66
82.09
122.69
137.78
135.95
122.71
106.03
88.90
69.02
44.97
18.50
-6.36
-24.54
-36.33
-43.70
-48.50
-52.68
-59.68
-70.68
-83.97
-96.39
-104.54
-109.36
-112.62
-115.21
-117.24
-119.14
-119.96
-117.36
-109.02
-93.37
-72.51
-49.67
-27.77
-9.16
4.28
12.16
15.65
16.88
18.51
21.93
27.90
36.53
46.94
57.23
65.46
70.33
71.67
70.50
68.26
66.61
67.09
70.60
77.36
86.81
97.83
109.12
119.63
128.87
136.95
144.27
151.14
157.36
162.25
164.91
164.62
161.03
154.08
143.69
129.71
112.07
91.28
68.67
46.38
26.75
11.62
1.82
-2.88
-3.27
-0.19
5.84
14.55
25.55
37.94
50.26
60.91
68.81
73.97
77.80
82.82
91.93
107.48
130.36
159.69
192.95
226.70
257.35
281.90
298.20
304.93
301.31
286.94
261.69
225.81
180.04
125.87
65.66
2.75
-58.63
-113.77
-158.33
-189.27
-205.88
-210.13
-206.26
-199.53
-194.59
-194.26
-199.01
-207.44
-217.21
-225.95
-231.85
-233.81
-231.35
-224.55
-213.94
-200.48
-185.34
-169.51
-153.57
-137.59
-121.49
-105.46
-90.20
-76.86
-66.61
-60.22
-57.71
-58.37
-60.98
-64.10
-66.39
-66.87
-65.10
-61.12
-55.36
-48.36
-40.58
-32.27
-23.38
-13.69
-2.78
9.88
24.74
41.95
60.96
80.38
98.17
112.18
120.98
124.40
123.57
120.39
116.69
113.62
111.46
109.95
108.87
108.34
108.82
110.76
114.13
118.21
121.77
123.43
122.18
117.67
110.24
100.68
89.88
78.54
66.98
55.33
43.67
32.30
21.81
12.87
6.04
1.56
-0.74
-1.29
-0.54
1.07
3.13
5.14
6.43
6.31
4.22
0.05
-5.93
-13.20
-21.15
-29.27
-37.07
-43.93
-49.09
-51.73
-51.26
-47.62
-41.34
-33.41
-24.92
-16.72
-9.39
-3.27
1.38
4.28
5.15
3.93
0.83
-3.55
-8.48
-13.15
-16.94
-19.55
-20.90
-21.18
-20.69
-19.77
-18.72
-17.75
-16.98
-16.42
-16.12
-16.14
-16.61
-17.66
-19.36
-21.63
-24.21
-26.58
-28.10
-28.06
-25.90
-21.41
-14.78
-6.63
2.24
11.07
19.31
26.62
32.80
37.63
40.86
42.26
41.77
39.64
36.38
32.64
29.01
25.87
23.30
21.17
19.30
17.54
15.83
14.17
12.57
10.97
9.24
7.24
4.81
1.95
-1.23
-4.55
-7.79
-10.76
-13.29
-15.10
-15.80
-14.96
-12.29
-7.82
-1.94
4.61
11.02
16.65
21.14
24.39
26.44
27.26
26.83
25.14
22.40
19.03
15.64
12.80
10.89
9.97
9.84
10.05
10.16
9.75
8.59
6.71
4.31
1.77
-0.52
-2.26
-3.42
-4.18
-4.92
-6.07
-7.91
-10.37
-12.95
-14.71
-14.57
-11.60
-5.36
3.92
15.40
27.92
40.34
51.86
62.05
70.77
77.90
83.23
86.44
87.15
85.15
80.50
73.60
65.15
55.92
46.64
37.79
29.56
21.86
14.46
7.07
-0.48
-8.16
-15.71
-22.79
-29.11
-34.66
-39.81
-45.15
-51.22
-58.17
-65.49
-72.16
-76.98
-79.03
-77.98
-74.14
-68.24
-61.14
-53.58
-46.24
-39.73
-34.67
-31.64
-30.93
-32.53
-36.08
-41.20
-47.70
-55.68
-65.38
-76.85
-89.72
-103.20
-116.34
-128.35
-138.75
-147.15
-152.99
-155.46
-153.71
-147.35
-136.81
-123.18
-107.90
-92.19
-76.81
-62.11
-48.36
-35.86
-24.90
-15.39
-6.70
2.24
12.55
24.79
38.67
53.00
66.08
76.11
81.68
82.10
77.58
69.19
58.55
47.27
36.57
27.12
19.19
12.86
8.21
5.12
3.19
1.58
-0.69
-4.32
-9.42
-15.47
-21.71
-27.59
-33.02
-38.25
-43.44
-48.40
-52.55
-55.33
-56.60
-56.74
-56.45
-56.25
-56.10
-55.39
-53.23
-48.80
-41.64
-31.70
-19.19
-4.54
11.59
28.18
43.81
56.98
66.61
72.40
75.05
76.03
77.18
80.27
86.77
97.69
113.60
134.59
160.12
189.11
220.00
251.05
280.62
307.35
330.00
347.19
357.08
357.33
345.50
319.71
279.30
225.27
160.35
88.57
14.82
-55.82
-118.56
-169.48
-206.06
-227.56
-235.15
-231.57
-220.35
-204.93
-188.07
-171.57
-156.38
-142.73
-130.44
-118.99
-107.91
-97.00
-86.62
-77.52
-70.46
-65.65
-62.54
-59.98
-56.80
-52.41
-46.95
-41.06
-35.23
-29.44
-23.18
-16.05
-8.39
-1.45
2.99
3.51
-0.18
-7.18
-15.83
-24.59
-32.63
-39.85
-46.17
-50.82
-52.07
-47.76
-36.34
-17.83
6.03
32.42
58.57
82.58
103.52
120.92
134.15
142.15
143.77
138.42
126.43
108.93
87.19
61.91
33.11
0.44
-35.94
-74.77
-113.65
-149.62
-180.01
-203.16
-218.64
-226.97
-229.11
-226.01
-218.47
-207.20
-192.99
-176.77
-159.56
-142.27
-125.53
-109.56
-94.16
-78.88
-63.17
-46.68
-29.36
-11.42
6.73
24.69
42.14
58.76
74.13
87.54
98.10
105.01
107.88
107.06
103.52
98.59
93.37
88.39
83.42
77.78
70.82
62.40
53.11
44.01
36.23
30.45
26.76
24.87
24.52
25.88
29.56
36.26
46.23
58.90
72.90
86.48
98.10
106.87
112.52
115.23
115.20
112.51
107.19
99.49
90.08
80.05
70.59
62.59
56.34
51.48
47.29
43.09
38.55
33.73
28.97
24.50
20.25
15.77
10.50
3.99
-3.78
-12.45
-21.41
-30.10
-38.16
-45.41
-51.62
-56.48
-59.68
-61.14
-61.36
-61.36
-62.47
-65.74
-71.50
-79.10
-87.04
-93.44
-96.67
-95.80
-90.85
-82.66
-72.50
-61.63
-50.79
-40.02
-28.73
-16.10
-1.54
14.92
32.49
49.93
65.97
79.76
91.11
100.43
108.39
115.61
122.25
127.94
131.93
133.30
131.29
125.51
115.91
102.76
86.53
67.84
47.42
26.07
4.46
-17.02
-38.28
-59.30
-79.80
-98.90
-115.21
-127.23
-134.02
-135.58
-132.87
-127.30
-120.04
-111.81
-102.99
-93.99
-85.64
-78.98
-74.82
-73.24
-73.43
-73.91
-73.14
-69.94
-63.73
-54.46
-42.40
-28.06
-12.13
4.52
20.97
36.49
50.75
63.81
75.93
87.21
97.37
105.77
111.68
114.76
115.29
114.13
112.31
110.51
108.84
106.79
103.57
98.52
91.18
81.29
68.63
53.02
34.51
13.68
-8.27
-29.78
-49.42
-66.32
-80.22
-91.28
-99.58
-104.84
-106.46
-103.86
-97.04
-86.79
-74.60
-62.18
-50.83
-41.03
-32.43
-24.15
-15.35
-5.63
4.81
15.25
24.93
33.26
40.05
45.46
49.81
53.33
56.00
57.42
56.89
53.59
46.83
36.41
22.69
6.58
-10.95
-29.24
-48.21
-68.29
-89.93
-113.11
-136.92
-159.81
-180.01
-196.21
-208.04
-216.34
-222.89
-229.96
-239.62
-253.00
-270.02
-289.29
-308.53
-325.09
-336.37
-340.17
-334.72
-318.78
-291.84
-254.17
-207.10
-152.92
-94.69
-35.89
20.07
70.26
112.66
146.42
172.03
191.02
205.43
217.11
227.29
236.45
244.61
251.73
257.80
262.77
266.40
268.22
267.85
265.29
261.32
257.38
255.24
256.40
261.54
270.17
280.68
290.70
297.74
299.92
296.48
287.89
275.65
261.64
247.48
233.93
220.73
206.74
190.44
170.48
145.99
116.62
82.43
43.75
1.11
-44.75
-92.81
-141.87
-190.62
-237.62
-281.24
-319.54
-350.41
-372.01
-383.49
-385.52
-380.43
-371.40
-361.20
-350.85
-339.00
-322.34
-296.85
-259.51
-209.60
-149.17
-82.71
-15.95
45.46
97.06
136.19
161.97
174.92
176.49
168.72
154.03
135.15
114.76
95.24
78.27
64.58
54.07
46.03
39.65
34.43
30.40
27.96
27.54
29.14
32.09
35.11
36.66
35.50
31.09
23.82
14.82
5.47
-3.02
-10.04
-15.61
-20.17
-24.25
-28.23
-32.12
-35.57
-38.05
-38.99
-37.92
-34.64
-29.21
-21.97
-13.51
-4.56
4.11
11.79
18.03
22.63
25.67
27.36
28.01
27.88
27.26
26.43
25.72
25.44
25.82
26.98
28.79
31.02
33.41
35.76
38.00
40.12
42.10
43.82
45.05
45.63
45.54
45.01
44.39
44.08
44.25
44.86
45.68
46.47
47.12
47.75
48.53
49.60
50.81
51.83
52.15
51.37
49.35
46.26
42.62
39.02
35.97
33.69
31.99
30.38
28.23
25.04
20.62
15.25
9.52
4.16
-0.23
-3.35
-5.16
-5.73
-5.10
-3.25
-0.19
3.91
8.53
12.93
16.18
17.39
15.72
10.51
1.26
-12.22
-29.60
-49.94
-71.66
-92.87
-111.73
-126.82
-137.33
-143.05
-144.24
-141.41
-135.24
-126.45
-115.80
-103.98
-91.49
-78.65
-65.65
-52.70
-40.16
-28.52
-18.37
-10.22
-4.40
-0.97
0.18
-0.64
-3.00
-6.34
-10.00
-13.30
-15.71
-16.95
-17.11
-16.50
-15.54
-14.55
-13.67
-12.91
-12.24
-11.71
-11.51
-11.82
-12.75
-14.18
-15.83
-17.25
-18.07
-18.09
-17.41
-16.34
-15.31
-14.62
-14.32
-14.14
-13.58
-12.10
-9.23
-4.83
0.92
7.55
14.40
20.85
26.45
30.99
34.52
37.21
39.21
40.59
41.29
41.27
40.62
39.53
38.27
37.02
35.76
34.29
32.33
29.77
26.75
23.63
20.86
18.76
17.40
16.71
16.50
16.65
17.11
17.84
18.68
19.32
19.34
18.36
16.21
13.09
9.47
5.98
3.22
1.51
0.89
1.09
1.66
2.14
2.19
1.61
0.45
-1.16
-3.00
-4.89
-6.72
-8.44
-10.05
-11.52
-12.87
-14.10
-15.29
-16.54
-17.96
-19.67
-21.76
-24.34
-27.56
-31.55
-36.39
-41.99
-48.05
-54.05
-59.39
-63.50
-66.03
-66.90
-66.32
-64.76
-62.79
-60.94
-59.60
-58.78
-58.13
-57.01
-54.62
-50.28
-43.56
-34.37
-22.87
-9.43
5.49
21.26
37.03
51.68
63.98
72.78
77.37
77.69
74.34
68.41
61.13
53.53
46.28
39.71
33.97
29.25
25.78
23.80
23.36
24.24
26.03
28.30
30.82
33.65
36.96
40.86
45.07
48.92
51.45
51.88
49.84
45.52
39.60
32.88
26.05
19.42
12.94
6.39
-0.44
-7.57
-14.73
-21.40
-26.95
-30.72
-32.21
-31.18
-27.70
-22.19
-15.34
-8.00
-1.00
5.00
9.65
12.81
14.50
14.77
13.57
10.85
6.56
0.85
-5.92
-13.11
-19.94
-25.54
-29.20
-30.51
-29.53
-26.77
-23.11
-19.54
-16.83
-15.43
-15.35
-16.31
-17.88
-19.73
-21.62
-23.47
-25.26
-27.00
-28.79
-30.81
-33.36
-36.77
-41.23
-46.60
-52.28
-57.35
-60.79
-61.88
-60.45
-56.94
-52.18
-47.15
-42.60
-38.94
-36.26
-34.41
-33.14
-32.16
-31.12
-29.67
-27.44
-24.15
-19.66
-13.92
-6.93
1.28
10.70
21.20
32.40
43.62
53.95
62.49
68.61
72.18
73.53
73.33
72.23
70.72
69.00
67.12
65.12
63.07
61.12
59.36
57.79
56.34
55.01
53.94
53.38
53.54
54.42
55.64
56.56
56.48
54.94
51.80
47.23
41.51
34.91
27.64
19.94
12.22
5.04
-1.01
-5.54
-8.56
-10.45
-11.80
-13.21
-15.03
-17.30
-19.82
-22.25
-24.28
-25.71
-26.47
-26.62
-26.32
-25.78
-25.21
-24.73
-24.40
-24.14
-23.88
-23.60
-23.32
-23.22
-23.51
-24.37
-25.92
-28.09
-30.59
-32.95
-34.55
-34.72
-32.95
-29.08
-23.35
-16.46
-9.35
-2.97
1.98
5.17
6.60
6.51
5.19
2.94
0.15
-2.63
-4.74
-5.47
-4.34
-1.29
3.29
8.69
14.13
18.98
22.91
25.83
27.81
28.96
29.27
28.58
26.69
23.39
18.60
12.54
5.67
-1.36
-7.92
-13.59
-18.35
-22.51
-26.60
-31.09
-36.25
-41.96
-47.81
-53.20
-57.47
-60.20
-61.25
-60.85
-59.51
-57.76
-55.87
-53.49
-49.48
-42.15
-29.82
-11.57
12.14
39.41
67.33
92.72
113.00
126.58
132.93
132.47
126.46
117.01
106.78
98.47
93.91
93.30
95.12
96.76
95.88
91.44
84.01
75.14
66.38
58.59
52.07
47.13
44.63
45.89
51.95
62.60
76.12
89.89
101.50
109.69
114.68
117.54
119.30
120.17
119.50
116.28
109.88
100.56
89.48
78.33
68.73
61.74
57.55
55.63
55.08
55.09
55.25
55.69
56.66
58.07
59.07
58.20
53.82
44.73
30.53
11.46
-11.97
-39.23
-69.69
-102.12
-134.31
-163.32
-186.24
-201.33
-208.71
-210.16
-208.17
-204.66
-200.27
-194.45
-186.33
-175.68
-163.44
-151.48
-141.78
-135.49
-132.29
-130.57
-128.01
-122.61
-113.39
-100.72
-85.98
-70.85
-56.59
-43.69
-31.95
-20.99
-10.73
-1.62
5.55
10.02
11.49
10.29
7.24
3.32
-0.71
-4.47
-7.88
-11.01
-13.75
-15.73
-16.44
-15.45
-12.66
-8.44
-3.50
1.44
5.91
9.82
13.37
16.81
20.17
23.24
25.61
26.91
26.84
25.32
22.41
18.40
13.78
9.28
5.83
4.32
5.34
8.90
14.29
20.25
25.26
28.03
27.84
24.78
19.66
13.68
8.04
3.53
0.39
-1.66
-3.15
-4.62
-6.38
-8.47
-10.81
-13.29
-15.93
-18.91
-22.41
-26.44
-30.79
-34.97
-38.44
-40.90
-42.43
-43.47
-44.64
-46.41
-48.86
-51.69
-54.31
-56.14
-56.69
-55.73
-53.13
-48.90
-43.19
-36.29
-28.68
-20.96
-13.73
-7.52
-2.68
0.67
2.58
3.28
3.04
2.12
0.71
-1.09
-3.26
-5.71
-8.23
-10.53
-12.23
-13.06
-12.94
-12.10
-11.01
-10.29
-10.57
-12.26
-15.49
-20.01
-25.30
-30.69
-35.55
-39.50
-42.44
-44.55
-46.14
-47.41
-48.32
-48.45
-47.09
-43.40
-36.73
-26.93
-14.50
-0.63
13.10
25.16
34.48
40.80
44.67
47.22
49.65
52.74
56.60
60.63
63.87
65.39
64.69
61.93
57.76
53.12
48.93
45.83
44.20
44.11
45.41
47.66
50.15
51.94
51.99
49.51
44.26
36.65
27.72
18.81
11.18
5.65
2.35
0.73
-0.25
-1.74
-4.63
-9.17
-14.88
-20.71
-25.40
-27.92
-27.90
-25.70
-22.24
-18.64
-15.79
-14.15
-13.67
-13.99
-14.61
-15.15
-15.34
-14.99
-14.01
-12.39
-10.30
-8.13
-6.40
-5.58
-5.79
-6.73
-7.76
-8.20
-7.67
-6.23
-4.29
-2.34
-0.61
1.02
2.89
5.24
7.98
10.58
12.37
12.77
11.62
9.17
6.00
2.78
0.07
-1.67
-2.05
-0.70
2.66
8.08
15.15
22.95
30.20
35.78
38.99
39.89
39.06
37.24
34.94
32.23
28.91
24.85
20.36
16.25
13.53
13.02
14.97
19.04
24.55
30.79
37.31
43.92
50.52
56.90
62.62
67.08
69.64
69.80
67.21
61.80
53.72
43.39
31.49
18.84
6.27
-5.61
-16.51
-26.50
-35.82
-44.63
-52.87
-60.13
-65.76
-69.15
-69.84
-67.76
-63.13
-56.41
-48.22
-39.24
-30.20
-21.83
-14.80
-9.60
-6.37
-4.87
-4.55
-4.79
-5.05
-5.06
-4.83
-4.52
-4.31
-4.27
-4.34
-4.34
-4.08
-3.46
-2.54
-1.49
-0.60
-0.09
-0.12
-0.72
-1.87
-3.56
-5.77
-8.46
-11.46
-14.46
-17.13
-19.19
-20.65
-21.78
-23.04
-24.86
-27.46
-30.66
-33.98
-36.68
-38.05
-37.48
-34.67
-29.59
-22.50
-13.94
-4.66
4.48
12.59
18.95
23.12
24.97
24.70
22.72
19.52
15.64
11.57
7.75
4.50
2.03
0.32
-0.77
-1.50
-2.09
-2.69
-3.38
-4.16
-5.12
-6.37
-8.12
-10.55
-13.74
-17.58
-21.83
-26.09
-29.92
-32.93
-34.85
-35.53
-34.89
-32.87
-29.32
-24.09
-17.10
-8.47
1.39
11.86
22.23
31.78
40.01
46.59
51.46
54.78
56.92
58.38
59.66
61.07
62.60
63.94
64.58
64.03
62.03
58.53
53.63
47.47
40.19
32.03
23.42
15.00
7.44
1.18
-3.68
-7.45
-10.62
-13.60
-16.56
-19.35
-21.81
-23.86
-25.65
-27.49
-29.70
-32.40
-35.49
-38.68
-41.71
-44.46
-46.94
-49.24
-51.34
-53.10
-54.27
-54.60
-54.05
-52.68
-50.55
-47.51
-43.13
-36.83
-28.19
-17.25
-4.60
8.78
21.94
34.18
45.13
54.57
62.14
67.30
69.51
68.63
65.19
60.40
55.82
52.77
51.90
53.04
55.45
58.24
60.78
62.79
64.23
65.04
64.87
63.16
59.32
53.08
44.69
34.91
24.71
14.99
6.25
-1.45
-8.39
-14.97
-21.47
-28.01
-34.45
-40.47
-45.62
-49.40
-51.31
-51.04
-48.49
-43.90
-37.80
-30.94
-24.06
-17.83
-12.71
-9.02
-6.85
-6.17
-6.77
-8.29
-10.30
-12.34
-14.04
-15.14
-15.60
-15.44
-14.79
-13.79
-12.56
-11.20
-9.76
-8.32
-6.96
-5.88
-5.29
-5.41
-6.31
-7.88
-9.80
-11.71
-13.30
-14.51
-15.50
-16.55
-17.94
-19.80
-22.08
-24.53
-26.79
-28.34
-28.63
-27.15
-23.56
-17.91
-10.67
-2.69
5.05
11.65
16.59
19.68
21.05
21.00
19.83
17.82
15.25
12.35
9.45
6.88
4.95
3.86
3.62
4.07
4.87
5.62
6.03
5.95
5.45
4.70
3.90
3.13
2.35
1.44
0.26
-1.28
-3.23
-5.50
-7.92
-10.23
-12.17
-13.64
-14.72
-15.68
-16.90
-18.62
-20.89
-23.50
-26.02
-27.90
-28.56
-27.54
-24.54
-19.51
-12.79
-5.02
2.93
10.11
15.76
19.41
20.98
20.71
19.07
16.59
13.78
11.03
8.57
6.50
4.87
3.68
2.91
2.55
2.51
2.69
2.93
3.11
3.14
2.99
2.66
2.22
1.67
1.04
0.31
-0.55
-1.53
-2.57
-3.60
-4.54
-5.32
-6.00
-6.63
-7.30
-7.89
-8.09
-7.37
-5.21
-1.34
4.14
10.64
17.34
23.41
28.27
31.61
33.40
33.71
32.64
30.31
26.90
22.76
18.41
14.44
11.30
9.26
8.25
7.96
7.96
7.88
7.53
6.90
6.10
5.25
4.39
3.42
2.19
0.55
-1.56
-4.06
-6.81
-9.68
-12.61
-15.66
-18.93
-22.55
-26.50
-30.58
-34.40
-37.42
-39.10
-39.04
-37.09
-33.39
-28.32
-22.40
-16.19
-10.15
-4.63
0.13
3.98
6.82
8.60
9.41
9.48
9.28
9.42
10.54
13.14
17.36
22.99
29.46
35.99
41.81
46.29
49.11
50.17
49.59
47.53
44.17
39.62
34.00
27.46
20.20
12.49
4.63
-3.08
-10.39
-17.05
-22.84
-27.57
-31.09
-33.41
-34.63
-34.87
-34.26
-32.74
-30.15
-26.24
-20.90
-14.30
-6.94
0.47
7.36
13.51
19.22
25.16
32.02
40.14
49.29
58.85
68.05
76.26
83.12
88.43
91.99
93.55
92.89
90.06
85.39
79.40
72.47
64.60
55.44
44.51
31.55
16.79
0.97
-14.92
-29.91
-43.28
-54.63
-63.80
-70.75
-75.53
-78.22
-79.06
-78.37
-76.62
-74.37
-72.17
-70.48
-69.54
-69.34
-69.57
-69.64
-68.86
-66.55
-62.25
-55.82
-47.53
-38.02
-28.20
-19.02
-11.26
-5.45
-1.69
0.16
0.51
-0.19
-1.49
-3.04
-4.55
-5.82
-6.77
-7.35
-7.61
-7.65
-7.57
-7.46
-7.39
-7.38
-7.45
-7.67
-8.10
-8.92
-10.25
-12.20
-14.75
-17.72
-20.79
-23.62
-25.93
-27.60
-28.76
-29.64
-30.55
-31.73
-33.32
-35.42
-37.97
-40.71
-43.09
-44.29
-43.36
-39.62
-32.83
-23.41
-12.23
-0.22
11.87
23.59
34.68
44.72
53.07
59.03
62.25
63.10
62.65
62.28
63.09
65.38
68.59
71.68
73.77
74.64
74.86
75.48
77.56
81.72
88.01
95.99
104.89
113.71
121.26
126.29
127.65
124.59
117.02
105.61
91.50
76.03
60.27
44.86
30.01
15.78
2.31
-9.97
-20.38
-28.21
-32.94
-34.45
-33.09
-29.56
-24.68
-19.20
-13.64
-8.35
-3.55
0.44
3.28
4.56
4.04
1.72
-2.03
-6.56
-11.08
-14.90
-17.70
-19.55
-20.98
-22.64
-25.10
-28.55
-32.82
-37.44
-41.99
-46.29
-50.44
-54.67
-59.05
-63.34
-67.01
-69.52
-70.62
-70.48
-69.69
-68.96
-68.80
-69.31
-70.05
-70.27
-69.11
-65.91
-60.49
-53.18
-44.73
-36.06
-27.96
-20.93
-15.09
-10.34
-6.57
-3.74
-1.90
-1.09
-1.20
-1.94
-2.89
-3.68
-4.03
-3.87
-3.30
-2.47
-1.54
-0.59
0.30
1.07
1.65
1.88
1.60
0.74
-0.66
-2.41
-4.17
-5.60
-6.48
-6.83
-6.88
-7.06
-7.81
-9.42
-11.95
-15.17
-18.57
-21.53
-23.42
-23.71
-22.07
-18.44
-13.00
-6.27
1.07
8.18
14.31
18.97
21.93
23.25
23.16
21.95
19.88
17.17
14.09
10.96
8.15
5.91
4.40
3.59
3.37
3.54
3.90
4.31
4.61
4.67
4.37
3.64
2.47
0.91
-0.95
-3.00
-5.17
-7.41
-9.70
-12.07
-14.55
-17.21
-20.11
-23.16
-26.14
-28.60
-29.99
-29.80
-27.72
-23.75
-18.19
-11.59
-4.60
2.15
8.11
12.89
16.21
18.03
18.43
17.72
16.33
14.76
13.50
12.92
13.20
14.26
15.83
17.48
18.80
19.50
19.44
18.69
17.37
15.67
13.75
11.74
9.73
7.77
5.82
3.79
1.52
-1.15
-4.24
-7.61
-10.84
-13.36
-14.52
-13.82
-11.01
-6.21
0.12
7.24
14.34
20.67
25.70
29.16
31.04
31.48
30.71
28.95
26.41
23.32
20.00
16.81
14.09
12.07
10.78
10.05
9.56
8.98
8.04
6.60
4.66
2.32
-0.32
-3.16
-6.15
-9.24
-12.43
-15.73
-19.24
-23.09
-27.42
-32.20
-37.16
-41.69
-45.01
-46.36
-45.35
-42.15
-37.48
-32.31
-27.54
-23.68
-20.82
-18.73
-17.01
-15.23
-12.97
-9.83
-5.48
0.21
7.03
14.46
21.81
28.44
34.05
38.70
42.68
46.25
49.45
52.05
53.78
54.54
54.47
53.99
53.50
53.14
52.64
51.39
48.65
43.88
36.86
27.83
17.33
6.10
-5.05
-15.34
-24.01
-30.45
-34.26
-35.34
-33.97
-30.77
-26.51
-21.96
-17.71
-14.15
-11.40
-9.45
-8.15
-7.29
-6.65
-6.00
-5.16
-4.09
-2.90
-1.87
-1.37
-1.75
-3.23
-5.82
-9.36
-13.61
-18.28
-23.14
-27.96
-32.45
-36.24
-38.95
-40.24
-39.96
-38.15
-35.06
-30.98
-26.22
-21.03
-15.66
-10.46
-5.88
-2.45
-0.66
-0.78
-2.84
-6.52
-11.13
-15.69
-18.97
-19.69
-16.79
-9.76
1.21
15.15
30.54
45.58
58.61
68.54
75.02
78.47
79.90
80.45
81.04
82.08
83.53
85.09
86.47
87.54
88.27
88.53
88.09
86.62
83.91
79.91
74.73
68.45
61.05
52.48
42.80
32.36
21.70
11.41
1.86
-6.82
-14.57
-21.13
-25.92
-28.20
-27.44
-23.80
-18.26
-12.35
-7.63
-5.04
-4.61
-5.57
-6.74
-7.14
-6.42
-4.85
-3.22
-2.35
-2.81
-4.74
-7.99
-12.29
-17.47
-23.60
-30.74
-38.84
-47.45
-55.74
-62.66
-67.29
-69.11
-68.18
-65.06
-60.62
-55.76
-51.16
-47.26
-44.21
-41.97
-40.42
-39.40
-38.76
-38.50
-38.78
-40.01
-42.69
-47.16
-53.26
-60.15
-66.38
-70.29
-70.57
-66.66
-58.85
-48.08
-35.50
-22.03
-8.30
5.35
18.64
31.16
42.36
51.66
58.59
62.90
64.62
64.06
61.65
57.88
53.06
47.27
40.44
32.50
23.59
14.22
5.18
-2.61
-8.42
-11.89
-13.11
-12.53
-10.74
-8.25
-5.56
-3.11
-1.43
-1.13
-2.79
-6.68
-12.66
-20.03
-27.81
-34.98
-40.86
-45.36
-48.86
-52.00
-55.34
-59.06
-62.91
-66.22
-68.20
-68.03
-65.01
-58.52
-48.08
-33.50
-15.07
6.27
28.90
50.84
70.14
85.34
95.82
101.72
103.93
103.89
103.46
104.77
109.88
120.26
136.04
155.52
175.23
190.80
198.25
195.30
181.96
160.12
132.47
101.40
68.46
34.56
0.66
-31.90
-61.48
-86.82
-107.55
-124.22
-137.73
-148.50
-156.03
-159.06
-156.38
-147.63
-133.65
-116.22
-97.52
-79.40
-63.09
-49.12
-37.56
-28.18
-20.66
-14.57
-9.52
-5.15
-1.27
2.03
4.42
5.33
4.26
0.97
-4.28
-10.64
-16.85
-21.43
-23.09
-21.00
-15.06
-5.89
5.29
16.83
27.05
34.44
37.86
36.65
30.57
19.81
5.08
-12.36
-30.66
-47.66
-61.29
-70.06
-73.34
-71.36
-64.98
-55.47
-44.29
-33.14
-23.89
-18.38
-17.84
-22.41
-30.82
-40.74
-49.55
-55.30
-57.34
-56.36
-53.75
-50.82
-48.26
-45.93
-43.25
-39.55
-34.45
-27.80
-19.55
-9.54
2.53
16.89
33.42
51.39
69.39
85.56
98.00
105.35
107.14
103.92
97.00
87.98
78.22
68.53
59.11
49.75
40.05
29.66
18.38
6.18
-6.74
-19.97
-32.86
-44.70
-54.82
-62.76
-68.28
-71.25
-71.56
-68.95
-63.08
-53.66
-40.56
-23.97
-4.36
17.52
40.84
64.74
88.31
110.61
130.66
147.45
160.11
168.10
171.39
170.48
166.33
160.05
152.74
145.15
137.59
129.96
121.79
112.46
101.35
88.01
72.26
54.21
34.29
13.17
-8.30
-29.23
-48.76
-66.19
-81.11
-93.41
-103.22
-110.87
-116.72
-121.06
-124.01
-125.50
-125.30
-123.05
-118.44
-111.29
-101.70
-90.04
-76.90
-63.06
-49.25
-36.16
-24.26
-13.80
-4.76
3.04
9.86
15.87
20.98
24.95
27.50
28.53
28.27
27.22
25.92
24.69
23.50
22.00
19.81
16.77
13.05
9.05
5.13
1.48
-1.97
-5.34
-8.61
-11.59
-13.93
-15.32
-15.71
-15.34
-14.65
-14.18
-14.37
-15.50
-17.59
-20.48
-23.79
-26.99
-29.52
-30.85
-30.68
-28.95
-25.87
-21.83
-17.23
-12.43
-7.66
-3.12
1.06
4.71
7.67
9.75
10.80
10.71
9.46
7.15
4.01
0.40
-3.26
-6.58
-9.31
-11.34
-12.71
-13.55
-13.98
-14.15
-14.24
-14.54
-15.52
-17.67
-21.43
-26.93
-33.93
-41.74
-49.51
-56.35
-61.66
-65.17
-66.85
-66.71
-64.76
-61.05
-55.86
-49.80
-43.67
-38.21
-33.82
-30.64
-28.77
-28.69
-31.26
-37.35
-47.19
-59.92
-73.75
-86.71
-97.60
-106.53
-114.72
-123.69
-134.25
-146.05
-157.69
-167.41
-173.87
-176.53
-175.61
-171.71
-165.31
-156.61
-145.53
-131.83
-115.32
-95.84
-73.27
-47.49
-18.39
14.02
49.44
87.09
125.73
163.80
199.63
231.72
258.86
280.14
294.97
303.07
304.55
300.02
290.59
277.73
262.91
247.21
231.02
214.00
195.53
175.16
153.13
130.42
108.49
88.71
71.88
58.00
46.41
36.24
26.76
17.65
8.88
0.53
-7.46
-15.28
-23.17
-31.33
-39.67
-48.00
-56.03
-63.69
-71.19
-79.05
-87.88
-98.16
-109.95
-122.79
-135.82
-148.09
-159.00
-168.49
-177.10
-185.61
-194.62
-204.10
-213.28
-220.71
-224.54
-222.99
-214.59
-198.57
-175.01
-144.92
-110.05
-72.61
-34.66
2.33
37.73
71.71
104.69
136.94
168.16
197.54
224.11
247.03
265.93
280.77
291.58
298.22
300.18
296.83
287.71
272.96
253.47
230.74
206.52
182.31
159.01
136.81
115.45
94.54
73.98
54.10
35.57
19.06
4.91
-7.03
-17.36
-26.75
-35.68
-44.21
-52.04
-58.73
-64.00
-67.87
-70.62
-72.69
-74.34
-75.61
-76.31
-76.19
-75.12
-73.20
-70.82
-68.45
-66.49
-65.05
-63.89
-62.42
-59.92
-55.79
-49.77
-42.06
-33.30
-24.29
-15.75
-8.22
-1.95
3.01
6.69
9.15
10.47
10.74
10.20
9.19
8.08
7.17
6.60
6.41
6.47
6.60
6.61
6.50
6.45
6.68
7.24
8.02
8.85
9.55
10.08
10.87
12.96
17.97
27.51
42.53
63.17
88.84
117.85
147.49
174.46
195.49
208.10
210.87
203.38
186.74
163.87
138.42
113.88
92.74
75.91
62.39
49.21
32.06
7.42
-25.31
-64.28
-106.09
-147.43
-186.46
-221.10
-246.81
-260.86
-264.54
-260.70
-251.82
-239.33
-224.33
-208.06
-191.66
-176.07
-162.08
-151.56
-142.51
-133.29
-123.18
-111.94
-99.56
-85.83
-70.52
-54.08
-37.49
-21.66
-7.84
1.69
5.94
5.76
3.62
2.12
2.51
4.37
6.55
7.68
7.10
5.42
3.77
3.04
3.44
4.65
6.54
9.92
15.91
25.43
38.63
54.43
70.82
85.54
96.75
103.58
106.22
105.43
102.09
96.93
90.33
82.34
72.94
62.16
50.23
37.52
24.37
10.93
-2.75
-16.81
-31.42
-46.69
-62.60
-79.02
-95.66
-112.13
-128.00
-142.75
-155.90
-167.02
-175.76
-181.90
-185.28
-185.81
-183.44
-178.03
-169.50
-157.91
-143.62
-127.27
-109.56
-90.85
-70.89
-48.85
-23.66
5.33
37.88
72.70
107.76
140.81
170.02
194.19
212.87
226.19
234.81
239.68
241.87
242.30
241.41
238.97
234.22
226.01
213.25
195.09
171.15
141.61
107.19
69.17
29.34
-10.15
-47.07
-79.43
-105.68
-124.92
-136.94
-142.17
-141.60
-136.66
-128.93
-120.00
-111.24
-103.65
-97.82
-93.81
-91.17
-88.99
-86.07
-81.25
-73.70
-63.14
-49.88
-34.66
-18.38
-2.01
13.44
26.89
37.22
43.39
44.71
40.96
32.39
19.52
2.90
-17.06
-40.04
-65.66
-93.28
-121.88
-150.16
-176.73
-200.30
-219.91
-234.90
-244.82
-249.44
-248.64
-242.44
-230.98
-214.44
-192.86
-166.06
-133.55
-94.78
-49.43
2.22
59.11
119.46
181.13
242.19
301.26
357.53
410.31
458.37
499.46
530.48
548.22
550.41
536.59
508.25
468.26
420.01
366.70
311.20
256.27
204.78
159.54
122.56
94.30
73.37
56.86
41.49
24.80
6.05
-13.73
-32.39
-47.74
-58.53
-64.86
-67.99
-69.68
-71.42
-73.99
-77.42
-81.33
-85.31
-89.20
-93.10
-97.15
-101.41
-105.66
-109.50
-112.51
-114.44
-115.35
-115.61
-115.84
-116.75
-118.90
-122.67
-128.15
-135.21
-143.57
-152.69
-161.82
-169.96
-175.95
-178.80
-178.04
-173.97
-167.61
-160.49
-154.05
-149.34
-146.77
-146.24
-147.43
-149.97
-153.44
-157.18
-160.17
-161.13
-158.83
-152.47
-141.87
-127.41
-109.85
-90.06
-68.91
-47.27
-25.92
-5.44
13.98
32.59
50.90
69.35
87.95
106.16
123.15
138.14
150.77
161.10
169.35
175.67
179.85
181.50
180.28
176.21
169.81
161.96
153.59
145.42
137.71
130.42
123.30
116.18
109.05
102.03
95.28
88.84
82.60
76.39
70.06
63.61
57.20
51.05
45.35
40.17
35.51
31.30
27.47
23.96
20.74
17.79
15.06
12.55
10.25
8.16
6.27
4.54
2.89
1.31
-0.17
-1.46
-2.42
-3.02
-3.32
-3.51
-3.82
-4.44
-5.39
-6.52
-7.58
-8.30
-8.56
-8.42
-8.05
-7.70
-7.56
-7.76
-8.27
-8.97
-9.61
-9.87
-9.55
-8.62
-7.42
-6.49
-6.46
-7.66
-9.98
-12.87
-15.53
-17.31
-17.86
-17.15
-15.37
-12.75
-9.52
-6.01
-2.66
-0.03
1.44
1.60
0.68
-0.76
-2.11
-2.86
-2.83
-2.10
-0.92
0.45
1.80
3.05
4.18
5.22
6.18
7.08
7.88
8.50
8.86
8.89
8.60
8.03
7.25
6.37
5.42
4.41
3.29
1.99
0.45
-1.30
-3.18
-5.07
-6.86
-8.46
-9.83
-10.95
-11.80
-12.38
-12.71
-12.86
-12.92
-12.97
-13.02
-13.03
-12.91
-12.59
-12.10
-11.56
-11.11
-10.89
-10.93
-11.16
-11.44
-11.60
-11.56
-11.28
-10.85
-10.37
-9.94
-9.59
-9.31
-9.07
-8.81
-8.50
-8.09
-7.53
-6.78
-5.78
-4.55
-3.20
-1.87
-0.67
0.30
1.06
1.62
1.97
2.09
1.94
1.56
1.04
0.55
0.21
0.13
0.24
0.45
0.62
0.59
0.25
-0.48
-1.59
-3.04
-4.72
-6.57
-8.56
-10.73
-13.13
-15.74
-18.48
-21.18
-23.65
-25.76
-27.44
-28.66
-29.46
-29.85
-29.92
-29.78
-29.63
-29.72
-30.27
-31.38
-32.95
-34.69
-36.16
-36.89
-36.60
-35.28
-33.16
-30.56
-27.73
-24.70
-21.33
-17.47
-13.11
-8.47
-3.87
0.42
4.36
8.13
12.00
16.08
20.27
24.19
27.43
29.65
30.82
31.22
31.27
31.31
31.49
31.79
32.11
32.38
32.56
32.65
32.54
32.00
30.60
28.11
24.67
20.88
17.53
15.14
13.71
12.64
11.02
7.83
2.70
-3.72
-10.04
-14.70
-16.67
-15.63
-11.91
-6.17
0.23
6.20
11.19
15.27
18.64
21.33
23.34
24.85
26.17
26.57
25.21
21.27
14.34
3.94
-10.44
-28.86
-50.43
-73.34
-96.62
-119.11
-139.55
-156.36
-168.54
-176.04
-179.14
-177.85
-164.15
-134.07
-90.64
-43.25
-0.66
33.00
57.75
75.65
88.99
99.14
105.07
107.13
104.17
96.82
86.76
75.71
64.88
54.91
45.98
37.14
27.84
18.14
9.54
4.15
3.23
6.81
13.78
22.41
30.36
35.95
38.25
38.11
37.47
38.31
41.82
47.97
55.67
63.06
68.05
67.90
60.94
47.08
27.69
4.97
-18.67
-40.63
-58.19
-69.20
-73.59
-71.55
-62.70
-46.49
-23.51
3.68
31.13
54.72
69.99
71.52
55.96
23.97
-19.89
-69.14
-117.71
-160.85
-195.46
-209.08
-195.45
-160.27
-117.42
-77.98
-45.47
-18.87
0.52
15.92
28.40
36.17
37.79
33.90
26.73
19.79
14.06
9.20
4.93
0.51
-5.59
-14.06
-23.89
-33.04
-39.94
-44.57
-47.69
-49.77
-51.40
-53.56
-56.59
-59.81
-61.97
-62.11
-60.26
-56.93
-52.43
-47.21
-41.84
-36.64
-31.49
-25.99
-19.94
-13.60
-7.36
-1.45
3.95
8.73
13.08
17.48
22.72
29.54
38.28
48.86
60.80
73.32
85.64
96.97
106.70
114.42
119.99
123.48
125.20
125.69
125.75
126.17
127.13
128.26
128.81
128.13
125.72
121.28
114.70
106.01
95.41
82.71
67.78
51.05
33.78
17.62
3.89
-6.90
-15.11
-21.71
-28.62
-37.67
-49.91
-65.15
-82.54
-101.25
-120.78
-140.75
-155.91
-160.70
-152.53
-133.94
-110.38
-86.90
-66.57
-50.53
-38.43
-28.94
-21.37
-15.67
-12.11
-10.69
-11.25
-12.87
-14.64
-15.85
-15.76
-14.34
-11.69
-7.74
-1.76
6.80
17.65
29.22
38.82
44.45
43.65
35.31
20.05
0.37
-20.60
-40.18
-56.90
-71.10
-82.74
-92.15
-100.18
-107.70
-114.66
-120.42
-123.98
-124.41
-122.16
-116.16
-105.52
-90.33
-71.11
-47.92
-20.67
10.57
45.27
80.81
116.70
152.96
189.25
216.91
227.51
217.61
191.30
167.43
148.43
132.73
119.17
102.60
83.42
65.02
50.94
42.86
39.72
36.80
31.20
21.43
7.15
-9.54
-25.42
-37.81
-45.64
-49.62
-52.66
-56.03
-60.13
-65.05
-69.16
-70.78
-69.23
-65.05
-59.38
-53.77
-47.97
-41.03
-31.99
-18.72
0.12
24.14
51.27
78.79
104.18
126.41
145.42
152.83
143.85
120.38
90.52
62.76
41.57
27.30
18.27
12.09
6.73
2.15
-1.12
-3.13
-4.58
-6.28
-8.50
-10.54
-12.93
-15.84
-18.27
-18.92
-17.39
-14.10
-9.76
-4.90
0.10
4.79
8.96
13.08
17.95
23.48
28.82
32.57
33.93
32.72
29.21
24.10
18.00
12.81
9.61
8.55
9.18
11.30
15.25
21.37
29.66
37.18
43.65
48.58
51.57
52.57
51.81
49.27
44.15
38.05
31.23
24.15
16.85
9.35
1.68
-6.18
-14.31
-22.69
-30.79
-38.00
-42.91
-44.49
-42.36
-36.96
-29.57
-21.98
-15.94
-12.42
-11.61
-12.27
-12.55
-10.50
-4.76
4.86
17.13
29.58
39.17
42.88
38.95
27.19
9.22
-12.06
-33.31
-51.74
-65.74
-74.99
-80.26
-82.66
-83.34
-83.24
-83.14
-83.64
-85.14
-87.60
-90.50
-92.94
-94.06
-93.42
-91.37
-88.86
-87.09
-86.95
-88.64
-91.64
-95.02
-97.90
-99.75
-100.56
-100.68
-100.59
-100.62
-100.78
-100.67
-99.54
-96.45
-90.54
-81.27
-68.67
-53.41
-36.70
-20.00
-4.66
8.34
18.56
26.05
31.14
34.29
35.97
36.59
36.55
36.22
35.92
35.83
35.98
36.26
36.50
36.60
36.52
36.32
36.07
35.75
35.25
34.38
32.91
30.71
27.79
24.31
20.60
16.96
13.61
10.58
7.66
4.53
0.96
-2.97
-6.76
-9.58
-10.45
-8.69
-4.14
2.69
10.74
18.75
25.56
30.51
33.41
34.48
34.08
32.54
30.04
26.69
22.65
18.20
13.77
9.87
6.87
5.07
4.51
5.12
6.70
8.94
11.49
13.95
15.91
17.03
17.10
16.05
13.96
11.07
7.71
4.16
0.70
-2.45
-5.17
-7.34
-8.96
-10.15
-11.17
-12.37
-14.13
-16.71
-20.16
-24.27
-28.51
-32.11
-34.18
-33.86
-30.56
-24.13
-15.02
-4.27
6.78
16.77
24.61
29.71
31.95
31.56
29.01
24.81
19.50
13.65
7.87
2.78
-1.03
-3.19
-3.58
-2.42
-0.14
2.77
5.89
8.87
11.48
13.50
14.74
15.08
14.54
13.29
11.60
9.70
7.71
5.58
3.20
0.53
-2.33
-5.18
-7.86
-10.31
-12.66
-15.13
-17.94
-21.17
-24.77
-28.55
-32.11
-34.96
-36.39
-35.63
-31.99
-25.12
-15.25
-3.25
9.53
21.60
31.68
38.98
43.29
44.82
44.04
41.40
37.33
32.18
26.41
20.60
15.48
11.74
9.84
9.85
11.43
13.98
16.83
19.51
21.74
23.43
24.52
24.88
24.30
22.62
19.80
16.04
11.71
7.27
3.09
-0.61
-3.86
-6.76
-9.50
-12.17
-14.85
-17.54
-20.35
-23.36
-26.59
-29.82
-32.46
-33.61
-32.35
-28.01
-20.49
-10.38
1.22
12.93
23.44
31.75
37.30
39.95
39.85
37.41
33.19
27.85
22.09
16.62
12.08
8.94
7.36
7.21
8.13
9.62
11.23
12.66
13.78
14.54
14.90
14.77
14.05
12.67
10.66
8.12
5.24
2.19
-0.93
-4.10
-7.42
-10.99
-14.97
-19.37
-24.00
-28.38
-31.72
-33.10
-31.72
-27.16
-19.59
-9.75
1.18
11.91
21.29
28.54
33.32
35.64
35.73
33.92
30.58
26.17
21.21
16.29
12.04
9.01
7.51
7.59
8.95
11.07
13.31
15.12
16.14
16.29
15.74
14.74
13.52
12.16
10.60
8.70
6.32
3.43
0.16
-3.28
-6.66
-9.78
-12.56
-15.01
-17.26
-19.51
-22.00
-24.96
-28.46
-32.28
-35.84
-38.25
-38.52
-35.87
-30.08
-21.55
-11.22
-0.35
9.84
18.41
24.80
28.85
30.63
30.40
28.51
25.41
21.55
17.43
13.54
10.30
8.00
6.79
6.56
7.04
7.85
8.65
9.18
9.39
9.31
8.99
8.43
7.54
6.18
4.25
1.79
-1.01
-3.88
-6.58
-8.97
-11.10
-13.11
-15.17
-17.47
-20.10
-23.10
-26.37
-29.64
-32.38
-33.92
-33.57
-30.83
-25.64
-18.44
-10.09
-1.66
5.82
11.55
15.11
16.45
15.81
13.67
10.56
6.94
3.18
-0.46
-3.79
-6.64
-8.79
-10.09
-10.48
-10.12
-9.33
-8.60
-8.32
-8.78
-10.00
-11.82
-13.96
-16.09
-17.91
-19.15
-19.60
-19.15
-17.88
-15.98
-13.77
-11.50
-9.23
-6.82
-3.98
-0.53
3.45
7.54
11.14
13.62
14.56
13.85
11.69
8.54
5.06
2.03
0.21
0.19
2.15
5.78
10.33
14.90
18.72
21.42
23.03
23.83
24.16
24.27
24.31
24.37
24.53
24.81
25.09
25.14
24.66
23.51
21.83
20.10
18.93
18.91
20.32
23.07
26.65
30.20
32.66
32.91
30.00
23.40
13.13
-0.25
-15.80
-32.42
-49.11
-65.03
-79.49
-91.95
-102.03
-109.57
-114.66
-117.45
-118.02
-116.18
-111.47
-103.42
-91.86
-77.13
-60.10
-41.92
-23.63
-5.91
10.96
26.94
42.10
56.65
71.05
86.14
102.93
121.98
142.81
163.51
181.00
191.94
193.86
186.00
169.50
146.97
121.57
96.22
72.93
52.56
34.78
18.36
1.70
-16.47
-36.58
-57.98
-79.21
-98.49
-114.29
-125.59
-131.88
-132.97
-128.92
-120.04
-106.89
-90.28
-71.02
-49.77
-26.95
-2.98
21.48
45.29
66.93
84.69
97.04
102.98
102.17
95.03
82.63
66.51
48.40
30.00
12.72
-2.42
-14.87
-24.52
-31.64
-36.75
-40.40
-43.09
-45.12
-46.65
-47.78
-48.76
-49.95
-51.67
-54.06
-56.93
-59.82
-62.25
-63.95
-64.92
-65.38
-65.50
-65.29
-64.58
-63.14
-60.87
-57.90
-54.53
-51.10
-47.88
-44.98
-42.36
-39.80
-36.93
-33.20
-27.95
-20.67
-11.24
-0.10
11.71
22.86
32.06
38.48
41.87
42.49
40.96
37.91
33.87
29.28
24.52
20.09
16.62
14.77
15.11
17.92
23.03
29.83
37.38
44.63
50.56
54.28
55.11
52.62
46.78
37.99
27.10
15.28
3.73
-6.61
-15.21
-21.99
-27.16
-31.03
-33.84
-35.77
-36.97
-37.63
-38.06
-38.63
-39.73
-41.65
-44.45
-47.88
-51.42
-54.31
-55.77
-55.23
-52.46
-47.70
-41.47
-34.41
-27.10
-19.97
-13.25
-7.10
-1.65
2.94
6.54
9.11
10.75
11.74
12.49
13.51
15.24
18.02
21.94
26.86
32.40
38.03
43.15
47.23
49.90
51.03
50.70
49.17
46.74
43.66
40.00
35.77
30.98
25.79
20.52
15.54
11.10
7.19
3.49
-0.38
-4.72
-9.57
-14.68
-19.62
-23.91
-27.16
-29.00
-29.18
-27.53
-23.99
-18.75
-12.26
-5.25
1.41
6.84
10.34
11.54
10.52
7.74
3.89
-0.30
-4.23
-7.58
-10.27
-12.40
-14.08
-15.39
-16.36
-16.98
-17.28
-17.36
-17.39
-17.57
-18.09
-19.02
-20.21
-21.31
-21.64
-20.30
-16.30
-8.84
2.40
16.97
33.66
50.78
66.62
79.95
90.29
97.95
103.69
108.32
112.33
115.76
118.15
118.82
117.09
112.50
104.98
94.79
82.44
68.49
53.44
37.68
21.54
5.56
-9.51
-22.72
-33.17
-40.25
-43.91
-44.61
-43.23
-40.75
-37.96
-35.36
-33.17
-31.45
-30.25
-29.63
-29.67
-30.30
-31.33
-32.43
-33.29
-33.77
-33.93
-33.99
-34.21
-34.76
-35.66
-36.81
-38.06
-39.36
-40.69
-42.04
-43.28
-43.98
-43.55
-41.27
-36.66
-29.69
-20.89
-11.32
-2.19
5.41
10.87
14.08
15.29
14.95
13.45
11.15
8.34
5.37
2.62
0.46
-0.80
-1.08
-0.46
0.82
2.48
4.23
5.85
7.19
8.20
8.85
9.18
9.25
9.12
8.81
8.31
7.63
6.79
5.84
4.91
4.10
3.50
3.13
2.89
2.62
2.06
0.97
-0.82
-3.26
-6.03
-8.53
-10.01
-9.76
-7.36
-2.82
3.42
10.56
17.74
24.16
29.30
32.89
34.84
35.19
34.04
31.58
28.11
24.05
19.85
15.94
12.60
10.01
8.21
7.11
6.49
6.02
5.30
4.03
2.17
-0.02
-2.09
-3.61
-4.43
-4.74
-4.92
-5.30
-5.99
-6.83
-7.54
-7.94
-8.11
-8.33
-8.93
-10.10
-11.82
-13.89
-16.08
-18.16
-19.98
-21.35
-21.99
-21.54
-19.70
-16.36
-11.80
-6.61
-1.57
2.65
5.62
7.31
7.91
7.70
6.88
5.57
3.87
2.02
0.38
-0.69
-0.97
-0.49
0.48
1.57
2.51
3.18
3.54
3.63
3.39
2.79
1.79
0.44
-1.16
-2.89
-4.70
-6.61
-8.71
-11.06
-13.68
-16.55
-19.62
-22.80
-25.94
-28.75
-30.85
-31.76
-31.07
-28.56
-24.31
-18.73
-12.44
-6.09
-0.21
4.88
8.97
11.91
13.56
13.79
12.64
10.41
7.62
4.89
2.77
1.57
1.39
2.15
3.68
5.72
7.96
10.01
11.46
12.05
11.71
10.61
9.02
7.19
5.28
3.28
1.15
-1.10
-3.41
-5.62
-7.61
-9.30
-10.71
-11.94
-13.13
-14.47
-16.08
-18.01
-20.23
-22.52
-24.55
-25.79
-25.72
-23.89
-20.21
-14.95
-8.79
-2.58
2.91
7.22
10.21
11.96
12.66
12.41
11.23
9.17
6.40
3.35
0.53
-1.56
-2.68
-2.87
-2.45
-1.83
-1.35
-1.15
-1.19
-1.40
-1.74
-2.28
-3.18
-4.54
-6.33
-8.33
-10.25
-11.90
-13.30
-14.65
-16.29
-18.42
-21.10
-24.12
-27.21
-30.12
-32.67
-34.76
-36.22
-36.73
-35.90
-33.35
-28.95
-22.96
-16.04
-9.07
-2.92
1.73
4.54
5.53
5.09
3.95
3.09
3.50
5.93
10.61
17.00
23.87
29.61
32.73
32.37
28.61
22.36
15.12
8.40
3.27
0.19
-1.05
-1.04
-0.59
-0.49
-1.36
-3.56
-7.12
-11.79
-17.03
-22.17
-26.62
-29.96
-32.05
-32.95
-32.83
-31.83
-29.96
-27.05
-22.81
-16.91
-9.21
0.18
10.68
21.30
30.83
38.12
42.38
43.33
41.16
36.37
29.65
21.69
13.12
4.47
-3.92
-11.96
-19.77
-27.47
-35.05
-42.17
-48.26
-52.68
-54.95
-54.85
-52.28
-47.18
-39.39
-28.65
-14.78
2.09
21.40
42.08
62.65
81.50
97.05
108.13
114.16
115.30
112.39
106.70
99.58
92.11
84.90
78.04
71.30
64.32
56.83
48.78
40.27
31.49
22.63
13.86
5.33
-2.85
-10.50
-17.48
-23.52
-28.44
-32.18
-34.79
-36.35
-37.08
-37.37
-37.68
-38.64
-40.32
-42.60
-45.29
-48.04
-50.43
-52.06
-52.85
-52.78
-52.24
-51.04
-48.91
-45.76
-41.32
-35.03
-26.02
-13.65
2.54
22.11
44.99
69.62
91.78
106.71
112.20
109.67
102.11
95.16
88.98
82.98
76.31
67.48
55.20
37.51
14.62
-12.51
-42.75
-76.39
-112.67
-146.85
-173.31
-188.19
-191.57
-185.76
-173.80
-157.96
-141.13
-123.87
-106.02
-88.02
-72.11
-57.05
-39.70
-16.49
15.29
54.53
99.73
148.52
197.69
245.33
280.66
296.23
288.93
270.88
245.59
215.62
183.79
148.01
109.45
69.00
27.82
-13.34
-53.98
-95.08
-135.49
-172.92
-205.17
-230.27
-247.84
-257.73
-259.93
-255.26
-246.70
-236.26
-225.17
-213.88
-201.97
-189.33
-175.35
-158.11
-136.13
-110.28
-82.18
-53.82
-26.95
-2.62
18.22
35.25
50.71
66.78
83.65
100.32
115.68
129.32
141.68
153.42
165.54
181.85
205.44
236.13
270.60
304.15
332.66
353.78
367.20
356.21
313.82
247.48
174.53
109.60
58.25
19.29
-10.19
-32.48
-47.34
-54.61
-54.51
-49.46
-43.46
-39.86
-40.45
-45.01
-52.09
-60.08
-65.20
-64.56
-57.87
-47.12
-34.84
-24.13
-16.86
-13.27
-12.21
-10.74
-6.34
1.88
13.23
26.29
37.59
44.34
45.35
40.99
32.56
20.81
5.55
-13.63
-36.79
-65.64
-100.49
-139.38
-178.86
-215.88
-249.26
-279.42
-307.29
-316.87
-298.64
-255.29
-200.32
-147.44
-104.14
-72.16
-49.72
-33.58
-20.70
-11.42
-6.43
-5.25
-5.88
-6.24
-4.90
-1.94
4.35
14.66
26.55
37.27
45.34
51.14
55.65
59.79
65.03
72.79
83.40
95.05
105.69
114.64
123.43
132.46
139.80
144.32
145.47
143.41
138.48
131.38
122.60
111.63
98.54
79.16
51.54
17.32
-19.31
-54.30
-85.56
-113.94
-139.32
-161.90
-180.57
-191.38
-188.74
-168.21
-129.11
-74.61
-10.00
59.51
128.60
188.32
224.90
227.88
198.47
149.81
99.98
63.57
48.38
49.11
56.69
62.38
61.45
53.60
40.53
22.66
0.16
-26.42
-56.48
-88.96
-122.76
-156.00
-187.01
-215.38
-240.73
-263.01
-280.32
-289.69
-288.07
-273.96
-246.44
-206.07
-155.66
-92.86
-25.21
35.16
79.09
105.28
117.82
123.13
130.10
140.10
152.55
165.41
178.21
192.10
209.26
224.94
237.01
244.03
244.64
238.77
226.07
207.09
182.91
154.65
123.16
90.40
58.46
28.85
2.88
-19.67
-39.60
-57.92
-75.56
-93.24
-110.21
-125.21
-136.98
-143.93
-145.09
-139.92
-128.54
-112.05
-92.53
-72.10
-52.95
-36.76
-24.11
-14.88
-8.48
-4.41
-2.48
-2.62
-4.33
-6.23
-6.06
-1.27
9.82
27.27
49.41
73.50
96.67
116.70
132.58
144.36
152.48
157.12
157.91
154.24
145.69
131.98
112.21
85.19
49.69
5.18
-46.97
-102.50
-154.34
-193.99
-214.08
-211.73
-187.18
-142.33
-79.86
-3.62
80.72
165.30
240.52
296.69
324.02
319.05
286.62
237.12
181.18
125.66
72.67
20.59
-34.20
-99.44
-178.97
-268.63
-357.78
-433.06
-482.34
-497.81
-478.99
-434.38
-385.37
-352.94
-347.59
-367.69
-402.03
-435.81
-455.62
-453.49
-394.00
-271.19
-115.64
26.92
125.34
172.80
177.57
155.10
123.02
96.88
82.49
82.37
98.39
127.67
163.96
200.82
233.82
261.58
286.45
307.29
316.02
319.24
311.65
287.24
242.58
180.23
109.34
42.72
-10.19
-42.87
-51.30
-32.44
5.78
43.53
60.99
51.38
21.40
-16.79
-50.46
-68.94
-68.62
-55.06
-33.70
-11.06
6.60
14.17
8.05
-12.41
-43.09
-77.65
-108.90
-126.53
-122.70
-94.51
-45.50
15.02
73.55
114.07
126.38
112.16
82.37
48.76
19.33
-2.47
-15.50
-19.43
-12.70
5.01
31.36
61.16
86.85
101.70
102.19
89.48
62.06
26.85
-7.10
-33.89
-52.87
-67.23
-80.18
-94.19
-106.14
-111.65
-106.47
-89.65
-63.41
-31.83
0.92
31.74
55.23
67.64
67.68
57.15
38.46
14.18
-12.66
-38.45
-59.10
-70.66
-70.06
-56.70
-32.09
-0.52
31.77
57.89
72.85
72.55
55.50
24.53
-13.98
-51.35
-79.39
-92.43
-88.75
-70.52
-42.19
-9.26
23.52
52.57
75.75
92.14
102.31
108.60
110.51
110.57
111.60
115.33
121.77
129.27
135.45
138.86
139.71
139.89
142.84
151.69
168.03
191.36
218.99
246.64
269.47
283.35
285.89
277.61
261.23
240.80
220.43
202.78
188.22
174.82
159.23
138.05
109.35
72.88
30.11
-16.20
-62.85
-106.95
-146.76
-182.27
-215.10
-247.59
-281.60
-317.13
-351.55
-380.10
-397.51
-399.93
-386.48
-359.63
-324.39
-286.87
-252.69
-225.66
-207.29
-196.81
-191.74
-188.76
-184.60
-176.86
-164.46
-147.92
-129.17
-111.03
-96.35
-87.09
-83.57
-84.36
-86.89
-88.33
-86.72
-81.47
-73.35
-63.98
-55.14
-48.24
-43.94
-42.09
-41.84
-41.99
-41.44
-39.54
-36.33
-32.39
-28.52
-25.31
-22.93
-21.16
-19.63
-18.11
-16.72
-15.84
-15.95
-17.37
-19.98
-23.10
-25.45
-25.33
-21.02
-11.29
4.08
24.04
46.28
67.83
85.64
97.38
101.76
98.62
88.74
73.51
54.85
35.01
16.41
1.07
-9.91
-16.78
-21.07
-24.76
-29.25
-34.74
-40.07
-43.29
-42.53
-36.57
-25.21
-9.17
10.17
31.17
51.98
70.82
86.34
98.06
106.39
112.36
117.03
121.25
125.60
130.34
135.45
140.77
145.97
150.45
153.17
152.84
149.04
142.87
136.56
132.56
132.79
138.18
148.64
162.57
176.97
189.06
197.39
201.32
200.22
193.62
181.98
167.18
151.35
135.82
121.91
111.26
104.35
99.57
94.49
87.51
78.66
67.66
52.12
28.88
-4.74
-51.35
-113.16
-189.60
-275.00
-351.61
-393.15
-385.43
-336.90
-268.33
-198.47
-139.10
-95.44
-68.51
-57.85
-62.96
-82.94
-112.68
-140.81
-153.44
-141.47
-104.19
-48.96
11.51
63.75
93.35
94.16
75.65
56.58
51.13
62.17
82.58
103.18
116.01
117.05
107.14
90.28
70.17
45.61
12.09
-34.19
-94.71
-160.62
-218.92
-258.24
-281.75
-291.72
-291.76
-285.93
-268.71
-237.97
-193.71
-139.66
-82.30
-27.17
21.68
60.30
86.80
102.95
112.48
119.56
125.95
130.49
132.75
131.79
125.68
114.71
103.71
100.77
113.58
145.13
191.92
248.33
304.56
348.35
370.02
366.50
341.69
301.58
249.95
170.84
67.40
-40.51
-130.97
-195.08
-238.96
-266.41
-279.60
-275.92
-254.44
-211.48
-147.75
-71.08
5.61
60.53
77.90
59.56
23.78
-7.29
-17.11
-4.67
18.62
38.46
45.92
41.73
33.80
26.00
18.00
8.97
-3.92
-22.89
-47.09
-72.97
-95.01
-109.32
-115.64
-116.82
-111.89
-102.13
-89.09
-72.80
-52.25
-25.64
7.90
47.39
89.90
132.54
170.20
192.26
191.64
169.92
136.56
101.67
73.90
51.33
32.00
13.29
-5.98
-22.85
-33.71
-37.39
-36.36
-35.24
-38.59
-47.58
-62.91
-83.17
-104.79
-124.43
-141.24
-157.03
-174.28
-194.85
-206.25
-200.00
-176.08
-141.87
-105.82
-73.42
-47.23
-27.30
-13.06
-2.90
2.22
0.57
-8.57
-24.14
-43.29
-62.02
-75.34
-81.44
-79.00
-70.60
-60.84
-53.71
-50.85
-51.67
-54.27
-55.75
-54.82
-50.80
-44.26
-36.22
-27.23
-16.79
-3.57
9.56
26.25
48.60
74.16
101.02
127.15
150.95
171.50
188.37
201.06
209.55
213.03
211.68
207.91
204.32
202.67
203.11
204.08
202.74
196.37
182.38
160.20
132.67
103.21
74.51
47.86
23.17
-0.45
-24.01
-48.47
-77.54
-107.52
-130.20
-138.39
-130.86
-112.04
-88.79
-66.78
-49.93
-40.46
-37.83
-40.62
-47.04
-55.08
-64.47
-73.00
-78.96
-81.87
-81.75
-77.70
-69.02
-55.70
-38.78
-20.14
-1.92
13.41
23.94
29.00
29.57
26.99
22.09
15.19
6.66
-2.65
-11.89
-20.26
-26.94
-30.93
-31.64
-29.38
-24.87
-18.45
-9.91
1.02
14.35
30.08
47.89
66.90
85.19
100.59
112.26
120.41
125.86
129.04
130.00
128.20
122.89
112.86
97.54
77.68
54.47
28.95
1.21
-28.68
-60.26
-87.81
-104.43
-111.36
-112.36
-111.43
-108.67
-105.28
-101.41
-95.28
-83.04
-60.98
-26.96
17.04
64.46
106.30
133.53
140.98
128.21
98.93
58.44
12.05
-36.84
-86.33
-134.87
-174.62
-196.29
-197.75
-186.05
-180.33
-185.03
-198.13
-215.98
-227.82
-226.66
-207.97
-171.02
-118.14
-53.26
19.19
94.66
168.57
231.92
272.05
282.94
268.73
239.73
213.47
192.88
177.50
166.65
160.42
155.66
152.08
148.72
143.76
135.58
123.08
107.29
89.94
72.56
55.61
38.83
20.19
-2.95
-32.35
-68.97
-111.69
-158.63
-207.50
-255.29
-297.63
-329.67
-346.41
-343.94
-321.54
-281.37
-228.46
-169.27
-110.20
-56.97
-14.58
13.46
25.81
23.13
9.06
-10.17
-27.15
-31.20
-16.37
12.40
42.60
63.49
70.94
66.64
55.04
41.15
27.45
15.25
6.01
2.50
8.14
24.92
52.01
85.32
117.77
141.96
152.84
149.85
137.43
122.81
112.31
108.58
110.25
113.40
114.07
109.94
100.98
89.18
77.15
66.52
57.43
49.10
40.77
32.48
25.07
19.75
17.47
18.31
21.14
23.90
24.44
21.38
14.64
5.39
-4.65
-13.81
-21.08
-26.24
-29.61
-31.62
-32.43
-31.98
-30.28
-27.99
-26.59
-28.15
-34.47
-46.32
-62.86
-81.74
-99.94
-114.81
-125.01
-130.77
-133.52
-134.99
-136.46
-138.27
-139.98
-140.71
-139.64
-136.25
-130.41
-122.17
-111.68
-99.15
-84.85
-69.28
-53.18
-37.51
-23.23
-11.08
-1.43
5.78
10.89
14.45
17.03
19.12
21.14
23.37
25.97
28.93
32.04
34.90
37.03
38.05
37.72
36.03
33.12
29.30
25.02
20.72
16.79
13.48
10.96
9.33
8.45
7.90
7.04
5.28
2.37
-1.36
-4.92
-6.68
-4.92
1.43
12.24
26.25
41.54
56.15
68.48
77.51
83.33
86.51
87.34
85.41
80.01
70.79
57.97
42.32
24.86
7.71
-6.72
-17.16
-24.15
-29.32
-34.21
-39.80
-46.43
-53.96
-60.30
-62.58
-59.48
-52.23
-43.56
-35.90
-30.61
-28.17
-28.30
-27.85
-21.75
-5.80
21.66
60.54
110.20
169.46
236.06
291.33
315.39
300.35
255.98
199.66
144.35
95.72
54.54
19.48
-7.57
-27.66
-39.16
-41.28
-36.35
-28.93
-23.49
-22.98
-28.49
-41.08
-57.47
-71.96
-80.35
-81.98
-78.89
-73.73
-68.48
-64.23
-61.26
-58.29
-53.22
-45.08
-34.68
-23.61
-13.03
-3.25
5.57
13.40
20.93
29.39
39.47
50.97
63.17
75.52
87.78
98.91
108.27
116.39
124.92
135.29
147.82
161.52
174.64
185.22
189.23
183.64
167.92
144.26
115.99
86.25
57.49
31.62
9.98
-10.55
-33.49
-60.65
-91.36
-123.93
-156.65
-188.10
-216.57
-240.08
-261.96
-286.18
-315.02
-348.42
-385.85
-427.31
-473.58
-524.41
-548.04
-521.85
-444.94
-338.93
-229.23
-131.18
-49.23
16.85
68.90
109.16
135.01
145.06
142.20
134.35
130.50
139.02
162.61
198.48
239.86
274.33
291.44
286.76
263.37
224.27
179.88
139.37
107.55
85.23
67.42
50.60
33.65
17.57
3.21
-9.48
-23.10
-41.07
-62.58
-86.37
-109.19
-127.14
-136.62
-136.02
-125.93
-110.07
-93.58
-80.20
-71.63
-66.54
-62.02
-54.22
-39.96
-17.24
14.76
51.65
85.62
109.62
121.66
123.94
120.67
115.29
109.67
103.59
95.89
86.32
75.96
68.98
66.75
69.61
75.93
82.24
83.94
77.00
60.16
35.73
10.02
-9.31
-15.41
-4.83
22.62
62.86
108.58
151.24
182.35
196.15
189.54
161.79
113.70
47.77
-31.11
-112.71
-187.52
-248.13
-288.57
-306.41
-303.32
-284.37
-255.75
-222.33
-186.92
-142.47
-90.68
-40.39
-1.50
22.44
34.98
42.44
49.32
56.06
59.76
55.91
43.53
25.88
8.48
-4.01
-10.06
-9.84
-5.57
-0.23
2.71
2.15
-0.68
-3.50
-4.16
-1.14
6.91
21.26
43.22
69.58
93.22
106.74
106.88
95.76
78.88
62.21
49.37
40.52
32.75
23.18
11.15
-1.63
-12.35
-18.95
-21.27
-21.08
-20.96
-23.24
-28.27
-32.70
-34.25
-31.38
-24.23
-14.77
-5.83
-0.05
0.74
-4.11
-14.33
-29.32
-47.61
-66.73
-83.39
-94.11
-96.32
-89.50
-75.36
-56.97
-37.80
-20.70
-5.91
6.54
16.60
24.07
28.75
30.87
31.25
31.01
31.37
32.25
33.49
34.46
34.86
34.79
34.68
35.28
35.93
35.82
34.24
31.08
27.01
23.45
21.74
22.67
26.20
31.67
38.37
45.69
53.14
60.15
66.21
70.52
72.24
70.98
67.21
62.44
58.97
59.24
63.54
71.85
82.75
93.82
102.61
107.66
108.93
107.61
105.33
103.38
102.44
102.29
101.99
100.18
95.34
85.91
70.52
48.49
20.21
-12.56
-47.13
-80.46
-109.99
-134.35
-153.63
-169.09
-182.44
-194.95
-206.93
-218.14
-228.23
-237.24
-245.56
-253.32
-260.11
-264.63
-264.81
-258.52
-244.60
-223.39
-196.48
-166.20
-134.70
-104.12
-76.14
-51.62
-30.54
-12.54
2.72
15.32
25.13
32.43
37.39
40.79
44.78
52.40
66.34
87.75
115.75
147.44
178.85
204.54
219.08
219.14
204.35
176.79
139.88
97.09
48.67
0.74
-39.16
-67.07
-82.75
-87.24
-82.15
-70.24
-55.30
-41.09
-29.50
-20.95
-14.71
-9.17
-2.68
5.53
14.91
24.29
32.77
40.37
47.49
54.16
60.31
65.94
70.94
75.30
79.31
83.94
87.52
90.04
91.58
92.43
93.00
93.42
93.42
91.81
87.03
77.89
64.61
48.40
31.33
15.74
3.30
-5.28
-10.95
-15.38
-20.28
-26.32
-33.71
-42.41
-52.17
-62.69
-70.51
-72.01
-65.71
-53.80
-39.93
-27.24
-17.54
-11.29
-8.24
-6.83
-6.91
-8.07
-10.01
-11.95
-13.02
-12.55
-10.47
-7.83
-5.11
-4.32
-6.81
-13.59
-24.25
-37.31
-51.42
-64.33
-76.23
-87.80
-101.99
-121.08
-145.01
-170.95
-194.17
-209.48
-212.10
-203.91
-180.73
-141.16
-87.55
-25.39
38.81
99.90
155.73
207.80
250.21
280.26
296.59
298.64
285.96
258.72
219.21
172.05
123.47
79.51
45.57
23.28
10.41
2.48
-6.77
-21.79
-44.58
-74.42
-108.41
-142.70
-174.92
-205.33
-236.22
-269.88
-306.16
-341.63
-371.05
-382.15
-367.83
-327.16
-265.13
-190.10
-110.69
-33.49
37.33
99.21
150.51
189.83
217.79
237.68
255.03
275.61
302.96
336.58
372.14
403.57
424.55
431.75
425.64
410.20
391.36
374.87
363.82
357.56
351.59
338.80
312.90
270.74
213.19
144.07
68.23
-10.17
-87.74
-161.44
-228.27
-285.38
-331.44
-367.72
-397.65
-424.92
-451.40
-475.10
-491.63
-496.20
-485.71
-459.79
-420.32
-370.16
-311.84
-247.86
-178.80
-106.15
-32.00
40.78
108.51
166.96
212.17
241.75
254.75
256.69
254.07
253.38
258.54
269.82
284.93
301.28
318.01
333.61
351.23
368.87
380.71
378.83
356.89
313.64
254.02
186.72
116.78
51.45
-10.19
-72.26
-138.82
-211.42
-288.94
-368.86
-428.47
-489.49
-547.22
-599.43
-642.54
-672.02
-683.56
-674.40
-644.06
-594.40
-532.42
-459.93
-381.89
-302.48
-224.52
-149.32
-77.22
-8.25
57.17
115.80
169.50
218.60
264.74
310.04
356.14
402.86
447.39
484.53
506.86
511.60
497.84
468.58
429.52
387.04
346.10
308.92
274.76
240.68
205.49
168.60
131.18
94.87
61.43
32.25
8.02
-12.09
-29.48
-44.58
-57.41
-67.08
-74.19
-79.90
-85.33
-91.05
-98.10
-105.68
-110.70
-108.72
-94.80
-69.05
-35.09
1.67
35.20
57.94
64.99
55.53
32.44
2.43
-31.76
-68.91
-107.79
-147.72
-191.22
-239.94
-293.05
-347.10
-395.02
-435.50
-469.62
-499.16
-502.48
-466.23
-392.77
-299.92
-226.78
-173.42
-133.31
-101.85
-70.88
-40.23
-15.65
-2.35
-1.83
-11.05
-21.51
-29.07
-31.08
-25.11
-10.14
11.55
37.00
63.72
90.23
117.81
144.23
167.24
186.15
200.98
210.94
215.23
213.20
204.71
191.37
173.18
151.02
127.69
107.08
93.18
89.71
99.17
122.05
157.01
199.30
242.72
281.54
311.65
331.33
340.98
342.11
336.24
324.92
309.30
290.49
269.19
245.14
216.92
182.06
137.67
81.47
13.47
-63.66
-145.27
-225.80
-299.09
-358.47
-397.73
-413.05
-404.72
-376.56
-334.19
-283.08
-227.20
-168.24
-105.87
-39.08
32.13
100.55
153.36
179.26
176.40
152.40
118.16
82.81
52.22
29.19
13.70
4.77
1.60
3.61
9.82
18.51
27.33
33.74
35.81
32.64
25.24
16.42
9.34
6.37
8.83
15.03
21.54
24.16
18.62
2.44
-23.39
-54.82
-85.23
-107.73
-116.01
-111.06
-98.60
-85.17
-74.42
-65.56
-55.59
-42.52
-24.65
-3.20
17.42
33.19
42.15
44.55
41.59
32.87
16.98
-7.42
-40.48
-81.22
-125.01
-163.51
-187.78
-185.78
-159.00
-120.95
-92.79
-84.47
-98.14
-127.65
-161.30
-188.56
-204.88
-209.18
-204.89
-194.81
-179.84
-161.23
-140.60
-118.98
-98.58
-81.47
-68.52
-58.23
-44.81
-22.28
11.72
56.39
111.47
174.45
240.30
301.99
351.91
387.46
408.78
416.81
413.69
405.81
398.36
393.50
390.51
386.29
381.63
377.59
373.79
346.91
287.41
203.93
117.00
54.53
12.46
-16.04
-36.05
-52.72
-66.77
-73.56
-69.48
-54.82
-34.07
-15.12
-1.68
5.13
6.93
8.36
17.48
39.39
73.17
112.31
147.08
172.12
185.87
189.77
187.26
183.06
179.24
174.24
164.23
145.03
116.22
79.51
37.05
-8.66
-54.30
-96.49
-131.94
-157.50
-171.16
-171.88
-161.18
-144.05
-125.84
-110.01
-97.75
-88.83
-82.68
-79.54
-80.42
-87.25
-104.18
-133.32
-173.33
-220.25
-269.65
-318.04
-363.92
-407.48
-450.32
-498.13
-554.74
-619.42
-687.17
-750.71
-801.37
-831.44
-835.46
-811.80
-767.46
-710.47
-645.53
-573.79
-495.27
-409.50
-317.88
-223.31
-102.80
44.56
200.03
338.00
442.66
512.49
555.16
578.25
586.71
583.39
570.95
549.18
522.63
498.63
476.42
459.21
448.07
441.29
434.63
419.04
387.10
337.78
279.14
216.77
157.81
107.76
69.10
41.03
18.46
-3.28
-25.41
-46.83
-62.52
-72.02
-77.98
-83.94
-91.97
-102.71
-114.35
-123.28
-126.47
-123.61
-116.32
-106.75
-96.61
-86.38
-76.31
-66.78
-58.17
-50.99
-45.38
-41.08
-35.46
-26.57
-14.14
0.01
12.76
21.39
24.71
23.44
19.49
15.21
11.76
9.07
6.28
3.14
0.29
-1.44
-1.59
-0.56
0.81
1.31
0.00
-3.33
-8.24
-12.89
-15.62
-15.82
-14.17
-11.94
-10.68
-11.70
-15.65
-20.59
-23.52
-22.12
-15.61
-4.96
8.15
21.90
34.84
46.07
57.68
72.67
93.17
119.90
152.35
190.15
233.34
281.83
320.43
335.08
318.99
276.51
218.55
155.02
92.68
35.75
-13.33
-53.83
-84.35
-103.57
-113.88
-118.24
-120.29
-123.05
-128.61
-138.23
-152.54
-169.61
-186.69
-201.80
-212.21
-217.34
-217.72
-214.55
-209.29
-203.28
-196.37
-187.71
-176.57
-162.48
-145.64
-126.04
-103.29
-76.96
-47.14
-14.37
19.76
52.62
81.25
102.88
115.94
120.35
117.20
108.31
96.08
83.19
72.50
66.95
68.95
79.81
99.20
124.86
153.09
179.79
201.56
216.52
224.47
226.36
223.72
218.01
210.31
201.31
191.37
180.74
169.54
157.92
145.92
133.58
120.79
107.36
93.09
78.00
62.54
47.58
34.16
22.92
13.69
5.38
-3.52
-14.15
-26.59
-39.68
-51.53
-60.38
-65.38
-66.87
-65.95
-63.79
-61.10
-57.94
-54.02
-49.09
-43.14
-36.37
-29.05
-21.39
-13.59
-5.96
1.05
6.92
11.33
14.35
16.35
17.88
19.36
20.98
22.81
24.89
27.26
29.90
32.54
34.61
35.35
34.17
30.97
26.16
20.49
14.56
8.55
2.13
-5.16
-13.56
-22.80
-32.19
-40.96
-48.62
-55.15
-60.84
-65.94
-70.53
-74.43
-77.41
-79.51
-81.09
-82.64
-84.58
-86.93
-89.24
-90.74
-90.53
-87.80
-82.03
-73.05
-60.98
-46.20
-29.21
-10.56
9.18
29.48
49.75
69.17
86.83
101.73
112.88
119.37
120.49
115.79
105.22
89.18
68.48
44.40
18.45
-8.13
-34.74
-61.61
-89.59
-119.55
-151.72
-185.44
-218.81
-249.01
-273.06
-288.59
-294.43
-290.76
-278.94
-261.13
-240.37
-219.25
-199.38
-181.33
-165.12
-150.60
-137.61
-125.95
-115.28
-106.32
-99.03
-92.55
-85.65
-77.81
-69.52
-61.88
-55.77
-51.45
-50.35
-52.69
-57.44
-63.18
-69.34
-76.44
-85.24
-95.69
-106.58
-118.28
-129.78
-138.67
-142.13
-138.52
-127.99
-111.78
-91.17
-51.94
9.51
85.13
159.79
221.45
265.84
294.09
309.12
313.89
310.84
299.68
281.24
258.18
234.25
212.35
193.61
177.70
163.95
151.76
138.98
124.63
109.38
94.94
82.85
74.05
68.08
64.36
62.23
59.80
55.86
50.35
44.17
38.32
33.37
29.28
25.90
22.98
19.79
16.06
12.05
8.44
5.81
4.43
4.29
5.45
8.06
12.12
17.72
24.88
33.16
41.63
49.03
54.23
56.65
56.63
55.30
54.25
54.99
58.32
63.88
70.31
75.63
77.91
75.83
69.03
58.35
45.56
32.88
22.20
14.66
10.53
9.30
9.93
11.23
12.17
12.17
11.16
9.19
6.76
4.82
4.41
6.18
9.84
14.38
18.35
20.45
18.97
13.34
4.67
-4.63
-11.87
-15.13
-13.51
-7.18
2.64
11.82
16.28
13.93
5.11
-8.49
-25.16
-43.56
-62.84
-82.49
-105.53
-133.92
-166.24
-197.89
-223.80
-240.89
-248.71
-249.22
-246.05
-247.66
-260.68
-286.55
-321.69
-361.09
-401.30
-440.91
-479.88
-489.07
-451.49
-370.93
-269.24
-169.05
-82.92
-14.48
37.15
74.68
98.52
110.34
112.93
110.98
110.24
114.45
124.22
138.43
155.96
175.21
191.85
204.87
217.22
234.29
260.09
295.50
338.54
385.64
433.01
462.38
461.37
430.33
381.61
328.92
279.11
232.16
185.72
138.66
91.31
47.40
11.07
-15.17
-31.80
-40.96
-45.34
-47.59
-50.13
-55.58
-64.33
-75.14
-85.82
-94.87
-101.32
-104.94
-106.17
-106.09
-105.99
-106.18
-107.13
-107.34
-107.77
-109.77
-114.04
-119.99
-125.87
-129.23
-127.20
-117.93
-101.43
-80.33
-58.53
-39.98
-27.40
-21.57
-21.30
-23.93
-26.52
-26.86
-24.24
-18.88
-11.42
-2.67
6.60
15.59
23.53
29.78
34.10
36.45
37.26
37.10
36.45
35.49
34.03
31.58
27.56
21.51
13.33
3.54
-6.86
-16.79
-25.73
-33.95
-42.42
-52.08
-63.04
-74.38
-84.30
-91.02
-93.57
-92.15
-87.95
-82.54
-77.29
-73.04
-70.00
-67.78
-65.58
-62.41
-57.40
-50.00
-40.20
-28.34
-14.86
-0.19
15.17
30.35
44.08
55.01
62.35
66.42
68.56
70.45
73.06
76.30
79.03
79.88
78.14
74.21
69.36
64.90
61.55
59.20
57.28
55.23
52.76
50.03
47.45
45.77
45.69
47.71
52.03
58.60
66.82
75.67
83.93
90.57
95.26
97.55
96.77
92.12
83.53
71.49
56.99
41.28
25.57
11.73
0.81
-6.60
-10.06
-8.08
0.41
15.29
35.04
57.36
81.18
105.13
127.73
147.60
164.85
179.34
190.01
195.23
193.52
185.80
172.58
153.82
129.28
100.79
70.45
39.90
10.29
-27.41
-71.60
-113.79
-143.02
-162.79
-177.74
-190.61
-202.22
-212.66
-221.56
-226.86
-227.87
-225.11
-219.54
-209.96
-195.13
-175.02
-151.11
-125.83
-100.41
-76.32
-54.81
-36.59
-20.47
-5.22
9.50
23.29
35.65
47.19
58.16
68.33
76.86
83.51
88.02
89.99
89.17
85.59
79.86
72.16
62.10
48.83
31.99
11.72
-11.17
-35.14
-58.24
-78.43
-94.38
-105.69
-112.66
-115.72
-115.26
-111.51
-104.66
-95.01
-83.05
-69.43
-54.80
-39.60
-24.09
-8.39
7.28
22.52
36.66
48.95
58.85
66.18
71.24
74.58
76.68
77.68
77.37
75.46
71.87
66.85
60.88
54.33
47.25
39.35
30.33
20.19
9.33
-1.62
-12.16
-22.21
-31.98
-41.74
-51.45
-60.73
-68.94
-75.47
-79.95
-82.26
-82.44
-80.60
-76.87
-71.34
-64.07
-55.11
-44.53
-32.48
-19.15
-4.86
10.01
25.09
40.00
54.34
67.58
79.12
88.37
94.96
98.88
100.52
100.58
99.87
99.10
98.82
99.30
100.57
102.43
104.54
106.49
107.99
108.87
109.14
108.89
108.15
106.83
104.73
101.66
97.48
92.22
85.99
78.88
70.92
62.07
52.32
41.79
30.74
19.54
8.55
-1.89
-11.48
-19.87
-26.69
-31.72
-35.01
-37.05
-38.59
-40.47
-43.19
-46.78
-50.90
-54.97
-58.52
-61.30
-63.30
-64.63
-65.39
-65.68
-65.50
-64.94
-64.10
-63.15
-62.25
-61.57
-61.28
-61.49
-62.29
-63.65
-65.47
-67.52
-69.56
-71.38
-72.86
-74.04
-75.13
-76.44
-78.28
-80.81
-83.93
-87.18
-89.81
-90.96
-89.82
-85.98
-79.48
-70.83
-60.86
-50.46
-40.32
-30.82
-22.07
-13.99
-6.47
0.55
7.08
13.12
18.72
23.96
28.82
33.19
36.84
39.63
41.61
43.11
44.57
46.29
48.27
50.11
51.16
50.86
48.89
45.33
40.48
34.71
28.34
21.51
14.36
7.04
-0.21
-7.08
-13.24
-18.39
-22.26
-24.59
-25.17
-23.86
-20.69
-15.93
-10.04
-3.61
2.77
8.69
13.95
18.50
22.37
25.53
27.87
29.26
29.65
29.08
27.76
25.95
23.86
21.61
19.15
16.43
13.38
10.07
6.69
3.56
0.95
-0.97
-2.29
-3.27
-4.31
-5.76
-7.79
-10.40
-13.40
-16.58
-19.78
-22.98
-26.26
-29.75
-33.54
-37.67
-42.00
-46.24
-49.95
-52.61
-53.66
-52.65
-49.29
-43.50
-35.38
-25.18
-13.24
0.02
14.16
28.73
43.27
57.33
70.32
81.56
90.26
95.64
97.14
94.64
88.59
79.90
69.70
59.02
48.54
38.52
28.92
19.57
10.38
1.41
-7.23
-15.39
-23.00
-30.01
-36.40
-42.11
-47.13
-51.62
-55.88
-60.42
-65.74
-72.09
-79.25
-86.48
-92.63
-96.50
-97.13
-94.07
-87.47
-77.94
-66.30
-53.35
-39.76
-26.03
-12.58
0.16
11.72
21.65
29.57
35.31
38.94
40.71
40.97
40.06
38.25
35.69
32.47
28.65
24.41
19.95
15.48
11.09
6.79
2.55
-1.62
-5.67
-9.44
-12.75
-15.44
-17.45
-18.85
-19.77
-20.30
-20.51
-20.46
-20.20
-19.74
-19.01
-17.86
-16.29
-14.31
-11.97
-9.33
-6.50
-3.55
-0.55
2.37
4.93
6.43
6.40
4.90
2.53
0.09
-1.72
-2.49
-2.23
-1.39
-1.27
-2.67
-5.49
-8.98
-12.37
-15.28
-17.78
-20.42
-24.07
-30.72
-41.45
-55.85
-72.44
-89.56
-106.03
-121.19
-134.96
-147.65
-160.88
-174.83
-187.27
-194.11
-190.95
-174.31
-142.36
-95.25
-27.12
57.88
146.57
222.66
274.66
298.96
297.95
277.67
246.00
211.68
180.81
156.61
138.97
124.16
106.69
82.43
51.29
17.44
-13.87
-38.94
-56.29
-66.19
-70.83
-72.88
-74.30
-73.55
-71.08
-66.73
-61.10
-56.65
-52.80
-48.48
-42.30
-33.15
-20.64
-5.61
10.60
25.94
37.03
42.54
42.60
38.75
33.06
27.58
23.50
21.32
21.69
22.57
22.53
20.63
17.05
12.57
8.29
4.93
3.01
2.52
2.93
4.42
5.75
7.06
8.94
12.14
17.20
24.38
33.43
43.45
53.63
63.11
71.59
79.17
86.45
94.28
103.45
114.27
126.27
138.48
149.49
157.98
163.04
164.64
164.06
163.68
166.16
173.07
183.68
194.45
199.89
194.42
174.72
141.17
97.81
50.78
6.04
-32.36
-62.93
-86.09
-103.21
-115.78
-125.27
-133.36
-141.95
-152.51
-165.14
-177.65
-185.70
-183.92
-167.81
-135.47
-88.32
-30.85
30.74
89.89
140.76
178.65
200.12
203.13
187.34
154.33
107.59
52.01
-6.93
-64.06
-115.56
-159.01
-193.24
-217.91
-233.06
-238.77
-235.26
-223.29
-204.56
-181.86
-158.28
-136.14
-116.30
-98.10
-80.11
-61.05
-40.58
-19.28
1.41
20.40
37.50
53.18
67.90
81.70
94.23
105.20
114.66
121.85
126.50
128.80
128.90
126.17
119.39
107.45
90.14
68.27
41.04
8.75
-26.77
-63.03
-98.27
-131.96
-163.93
-193.54
-219.60
-244.48
-269.43
-293.44
-314.11
-329.64
-339.67
-344.50
-344.27
-339.15
-334.38
-333.51
-336.24
-339.09
-338.51
-332.70
-321.38
-305.06
-255.12
-162.36
-41.70
77.81
174.57
242.57
285.67
310.84
324.46
331.11
328.73
316.16
296.77
275.27
255.64
239.51
226.83
216.91
208.90
198.53
183.55
165.15
146.55
129.68
114.15
98.56
81.92
64.17
43.83
20.78
-3.39
-22.46
-32.22
-32.90
-27.81
-20.26
-12.20
-5.78
-2.32
-1.97
-5.00
-9.77
-14.83
-18.81
-20.65
-20.05
-18.00
-15.82
-14.56
-13.53
-12.73
-12.29
-12.05
-11.61
-10.72
-9.34
-7.62
-5.76
-3.91
-2.59
-2.38
-3.59
-6.12
-9.47
-12.82
-15.17
-15.56
-13.32
-8.53
-1.83
5.80
13.39
20.17
25.58
29.41
31.70
32.63
32.33
30.94
28.61
25.54
22.03
18.42
15.09
12.34
10.33
8.91
7.80
6.71
5.50
4.23
3.11
2.30
1.77
1.21
0.17
-1.83
-5.01
-9.32
-14.42
-19.80
-24.88
-29.16
-32.14
-33.43
-32.64
-29.55
-24.15
-16.74
-7.95
1.33
10.20
17.89
23.91
28.02
30.17
30.43
28.97
26.07
22.20
17.89
13.68
9.98
7.03
4.88
3.46
2.66
2.33
2.28
2.24
1.90
1.03
-0.44
-2.38
-4.49
-6.46
-8.03
-9.05
-9.50
-9.37
-8.74
-7.67
-6.26
-4.54
-2.40
0.41
4.23
9.23
15.28
21.91
28.42
34.13
38.66
41.94
44.16
45.48
45.93
45.31
43.33
39.85
35.01
29.30
23.43
18.11
13.89
10.98
9.31
8.62
8.63
9.07
9.69
10.27
10.60
10.46
9.76
8.53
6.85
4.80
2.31
-0.79
-4.67
-9.40
-14.72
-20.11
-24.77
-27.91
-28.90
-27.53
-24.07
-19.19
-13.78
-8.68
-4.47
-1.37
0.66
1.85
2.40
2.43
2.01
1.23
0.28
-0.63
-1.30
-1.71
-2.02
-2.52
-3.54
-5.25
-7.65
-10.54
-13.68
-16.91
-20.22
-23.65
-27.23
-30.83
-34.21
-37.03
-39.06
-40.20
-40.55
-40.22
-39.17
-37.16
-33.96
-29.47
-23.87
-17.52
-10.78
-3.81
3.51
11.45
20.18
29.54
39.01
48.01
56.15
63.36
69.85
75.89
81.74
87.43
92.59
96.61
98.89
99.05
96.97
92.68
86.38
78.65
70.16
61.28
51.94
41.78
30.29
16.99
1.40
-16.69
-36.77
-57.81
-79.03
-100.12
-120.97
-141.22
-160.03
-176.01
-187.15
-190.69
-184.06
-166.13
-137.63
-100.42
-56.56
-7.82
42.99
88.62
121.12
137.13
139.25
133.25
124.97
118.64
116.11
116.73
118.22
118.39
115.91
109.99
99.78
84.66
64.58
41.01
17.22
-2.26
-13.08
-12.83
-2.01
15.51
34.14
48.70
56.27
56.72
52.25
46.15
41.98
42.53
49.03
61.20
76.98
93.00
105.19
109.71
103.36
85.12
57.50
25.66
-3.67
-25.29
-36.57
-38.03
-32.70
-25.87
-21.50
-20.84
-23.24
-27.67
-36.27
-52.60
-79.77
-118.58
-168.75
-225.80
-281.49
-326.47
-353.03
-359.98
-350.22
-329.02
-302.49
-279.17
-264.69
-259.89
-261.72
-264.85
-267.59
-268.98
-267.80
-243.17
-185.81
-102.69
-12.70
57.75
108.10
140.54
157.45
161.62
155.53
139.32
114.46
84.95
55.80
31.02
10.54
-6.03
-18.93
-28.01
-35.01
-40.60
-42.26
-36.74
-23.51
-4.95
16.96
40.01
62.28
80.83
93.71
102.92
111.29
117.74
121.03
122.18
122.24
122.46
123.35
125.51
132.76
148.16
168.11
189.52
211.93
234.67
257.29
278.94
280.39
251.17
220.87
201.21
185.16
170.76
156.93
143.16
128.74
112.62
96.96
83.54
68.16
49.27
28.38
7.07
-12.94
-31.04
-48.01
-62.88
-75.22
-89.16
-106.18
-125.69
-146.99
-164.98
-174.02
-171.77
-158.65
-137.16
-116.78
-97.76
-78.85
-60.17
-42.88
-27.23
-15.12
-6.92
-1.70
1.04
3.30
6.64
12.09
20.26
30.69
41.87
52.58
61.98
69.23
74.63
78.37
80.77
82.32
83.12
82.70
80.78
77.42
72.90
67.84
62.29
56.23
49.81
43.19
36.44
29.73
23.12
16.38
9.14
0.76
-9.16
-20.51
-32.77
-45.32
-57.60
-69.27
-80.31
-90.83
-100.93
-110.57
-119.41
-127.07
-133.27
-137.92
-141.22
-143.51
-145.14
-146.38
-147.19
-147.12
-145.29
-140.58
-132.04
-119.43
-103.54
-86.16
-69.58
-55.81
-45.83
-39.35
-34.98
-30.89
-25.52
-18.06
-8.58
2.14
12.99
22.76
30.43
35.30
37.10
36.08
33.04
29.23
26.09
24.81
25.92
28.97
32.70
35.34
35.37
31.93
25.13
15.86
5.39
-5.11
-14.82
-23.28
-30.31
-35.87
-39.99
-42.78
-44.43
-45.05
-44.62
-42.93
-39.61
-34.42
-27.40
-18.96
-9.77
-0.59
7.90
15.19
20.91
24.81
26.79
26.93
25.57
23.23
20.50
17.94
15.99
14.94
14.91
15.89
17.68
19.89
21.98
23.35
23.53
22.25
19.59
15.91
11.74
7.72
4.38
2.05
0.79
0.38
0.39
0.30
-0.38
-1.95
-4.38
-7.31
-10.10
-12.00
-12.32
-10.72
-7.25
-2.36
3.27
8.92
14.05
18.37
21.86
24.66
26.92
28.72
29.98
30.52
30.17
28.98
27.22
25.39
23.99
23.39
23.60
24.39
25.40
26.28
26.73
26.52
25.40
23.20
19.81
15.40
10.32
5.06
0.05
-4.49
-8.54
-12.25
-15.71
-18.84
-21.36
-22.76
-22.53
-20.30
-16.02
-10.07
-3.18
3.81
10.13
15.31
19.20
21.79
23.15
23.26
22.12
19.80
16.50
12.59
8.42
4.34
0.61
-2.56
-4.99
-6.54
-7.16
-6.98
-6.25
-5.34
-4.58
-4.24
-4.48
-5.34
-6.77
-8.60
-10.64
-12.69
-14.63
-16.44
-18.23
-20.13
-22.25
-24.57
-26.85
-28.60
-29.14
-27.73
-23.78
-17.18
-8.37
1.69
11.79
20.83
28.06
33.20
36.30
37.54
37.14
35.34
32.51
29.11
25.66
22.55
19.93
17.74
15.78
13.92
12.15
10.64
9.55
8.95
8.79
8.91
9.11
9.24
9.23
8.97
8.35
7.22
5.52
3.33
0.88
-1.49
-3.57
-5.34
-7.07
-9.16
-11.98
-15.66
-20.05
-24.80
-29.48
-33.68
-37.04
-39.21
-39.80
-38.50
-35.19
-30.07
-23.67
-16.67
-9.72
-3.31
2.28
6.90
10.42
12.76
13.95
14.17
13.79
13.23
12.81
12.63
12.54
12.27
11.53
10.12
7.95
4.97
1.16
-3.43
-8.69
-14.38
-20.15
-25.65
-30.67
-35.21
-39.47
-43.76
-48.29
-53.12
-58.10
-62.99
-67.62
-72.00
-76.24
-80.37
-84.17
-87.10
-88.57
-88.19
-86.02
-82.69
-79.13
-76.32
-74.90
-75.14
-77.01
-80.35
-85.07
-91.11
-98.38
-106.66
-115.50
-124.35
-132.60
-139.75
-145.42
-149.34
-151.24
-150.77
-147.60
-141.49
-132.49
-121.06
-108.02
-94.32
-80.86
-68.26
-56.91
-47.00
-38.59
-31.53
-25.45
-19.74
-13.80
-7.28
-0.30
6.62
12.87
18.13
22.59
26.76
31.10
35.68
40.02
43.36
45.03
44.81
43.03
40.39
37.72
35.81
35.33
36.82
40.69
47.27
56.71
68.93
83.66
100.45
118.81
138.24
158.37
178.84
199.27
219.09
237.45
253.32
265.59
273.39
276.30
274.35
268.01
258.00
245.23
230.72
215.67
201.30
188.60
178.08
169.55
162.27
155.20
147.53
138.98
129.77
120.39
111.22
102.25
93.14
83.43
72.87
61.60
50.12
39.06
28.97
20.26
13.27
8.31
5.67
5.33
6.76
8.80
9.83
8.34
3.39
-5.01
-15.98
-28.13
-40.16
-51.19
-60.83
-69.07
-75.92
-81.37
-85.30
-87.62
-88.39
-87.72
-85.74
-82.46
-77.86
-71.96
-65.07
-57.72
-50.59
-44.26
-39.01
-34.81
-31.38
-28.36
-25.36
-21.99
-17.84
-12.57
-6.08
1.46
9.35
16.62
22.32
25.93
27.39
26.98
25.09
21.98
17.93
13.12
7.80
2.43
-2.39
-6.13
-8.55
-9.85
-10.60
-11.25
-12.34
-14.27
-17.04
-20.28
-23.41
-26.02
-27.97
-29.56
-30.59
-31.50
-33.00
-35.55
-38.88
-42.21
-44.71
-45.54
-44.21
-39.01
-29.62
-17.16
-3.32
10.58
23.95
37.00
51.18
68.42
92.79
125.40
163.95
204.45
243.32
278.06
306.78
328.04
339.76
342.38
334.07
311.59
272.94
219.31
154.55
83.51
11.19
-76.23
-173.57
-263.55
-330.72
-371.03
-388.46
-388.41
-378.04
-359.37
-333.94
-301.20
-263.65
-225.88
-191.52
-161.93
-136.70
-114.38
-92.94
-71.26
-46.74
-19.20
9.34
36.42
60.64
81.65
99.45
114.24
125.64
134.51
140.63
142.83
139.98
131.92
119.43
103.90
87.25
71.23
57.98
48.35
41.52
35.37
27.16
14.25
-5.28
-32.06
-65.51
-103.60
-143.72
-183.24
-219.80
-251.58
-277.52
-297.39
-311.50
-320.36
-324.27
-323.23
-317.11
-306.03
-290.51
-271.31
-248.97
-223.36
-193.62
-158.37
-116.40
-67.31
-12.01
47.07
106.04
160.13
204.53
235.46
251.31
253.10
244.15
228.97
211.82
195.71
182.23
171.92
164.93
161.19
160.14
160.43
159.84
155.96
147.18
133.48
116.43
98.46
81.58
66.63
53.09
39.68
25.37
9.96
-5.73
-20.25
-32.11
-40.20
-44.09
-44.07
-41.13
-36.82
-32.98
-31.23
-32.33
-35.76
-39.71
-41.84
-40.32
-34.76
-26.50
-18.23
-13.01
-12.99
-18.51
-27.73
-37.03
-42.09
-39.14
-26.19
-3.79
24.98
55.16
81.10
97.87
102.42
94.16
74.89
48.13
18.26
-10.49
-34.87
-52.98
-64.24
-69.09
-68.52
-63.70
-55.88
-46.21
-35.55
-24.38
-12.64
0.05
14.09
29.49
45.66
61.41
75.33
86.25
93.59
97.48
98.47
97.14
93.79
88.33
80.47
70.05
57.20
42.51
26.87
11.27
-3.40
-16.65
-28.49
-39.50
-50.59
-62.59
-75.74
-89.43
-102.29
-112.64
-119.19
-121.50
-120.08
-116.07
-110.76
-105.10
-99.50
-93.77
-87.35
-79.65
-70.34
-59.69
-48.67
-38.67
-30.99
-26.32
-24.48
-24.48
-25.02
-24.83
-22.71
-17.50
-8.16
5.71
23.11
41.11
55.22
60.90
55.37
39.20
16.32
-7.36
-26.25
-37.04
-39.43
-35.45
-27.91
-19.26
-10.85
-3.43
2.21
4.80
2.92
-4.33
-16.51
-31.61
-47.03
-59.92
-68.25
-71.02
-67.90
-58.67
-42.91
-20.31
8.83
41.84
74.69
102.54
121.15
128.51
125.52
115.81
104.46
96.95
96.26
103.73
118.36
137.15
156.02
170.83
178.44
177.40
168.76
153.60
134.51
113.91
93.60
74.52
56.85
40.21
20.06
1.33
-17.59
-36.72
-55.33
-72.20
-86.21
-96.97
-104.87
-110.86
-115.25
-119.26
-122.66
-124.88
-125.46
-124.46
-122.54
-120.36
-118.19
-115.43
-112.37
-108.72
-104.57
-100.14
-95.79
-91.97
-88.43
-84.33
-78.65
-71.44
-63.03
-54.15
-45.13
-36.20
-27.87
-19.81
-11.33
-1.97
7.87
17.66
26.84
35.84
45.16
54.26
63.39
73.09
83.37
93.53
102.52
109.44
114.94
119.88
123.89
127.38
130.74
133.20
133.13
128.95
114.91
91.61
71.38
59.17
54.51
56.46
62.58
69.87
75.44
77.44
76.06
71.64
63.17
50.78
36.09
21.46
9.80
2.76
1.23
5.89
16.32
30.18
45.64
61.98
79.09
97.21
113.99
126.48
132.23
129.21
115.43
90.50
56.17
15.40
-28.48
-76.76
-131.59
-193.32
-259.02
-322.93
-376.99
-412.73
-424.38
-410.55
-379.56
-342.25
-307.32
-279.33
-260.18
-250.85
-252.19
-265.13
-265.44
-239.16
-187.58
-124.79
-64.01
-10.98
33.80
71.68
100.42
123.25
136.81
137.72
125.89
105.34
81.86
60.71
47.50
45.10
54.05
68.22
80.34
85.23
81.34
69.93
53.90
36.79
21.33
9.16
-2.42
-16.62
-35.21
-57.44
-80.98
-102.98
-120.66
-132.14
-136.26
-134.14
-127.16
-116.20
-101.20
-82.69
-61.80
-39.59
-16.65
7.33
32.42
58.54
85.20
112.30
138.46
161.84
181.25
196.15
206.06
209.84
206.26
194.87
178.45
160.46
145.13
137.64
143.13
165.02
203.31
254.01
308.92
358.67
391.11
395.03
365.06
303.86
220.85
128.83
40.65
-44.40
-116.87
-167.66
-196.01
-208.24
-211.76
-211.47
-209.25
-204.64
-197.11
-183.93
-165.23
-144.90
-126.28
-110.36
-96.78
-86.04
-77.21
-68.95
-57.70
-42.67
-27.93
-16.33
-7.41
0.28
8.08
16.70
25.94
38.25
55.85
77.54
103.84
136.63
174.85
213.98
247.37
257.09
232.62
193.72
152.35
109.04
67.19
28.55
-6.48
-38.35
-67.81
-93.69
-115.25
-136.09
-158.65
-182.79
-207.91
-231.63
-250.95
-263.64
-267.67
-262.59
-251.42
-235.98
-216.40
-193.73
-168.56
-142.24
-117.36
-96.68
-82.77
-77.78
-80.39
-85.74
-88.08
-79.66
-53.91
-7.91
56.68
134.64
219.62
307.11
394.49
463.70
495.13
476.99
413.69
322.63
224.25
135.64
67.74
23.83
-0.65
-12.42
-18.06
-21.91
-24.99
-28.47
-32.97
-39.38
-49.13
-63.99
-82.65
-101.72
-117.44
-127.58
-132.19
-132.51
-130.38
-125.29
-117.44
-105.69
-88.71
-66.15
-39.64
-12.47
12.24
32.61
48.49
60.60
70.49
79.13
86.24
90.61
91.24
88.75
85.37
83.99
86.76
94.87
108.42
126.73
148.60
172.07
194.36
211.54
219.05
212.85
190.88
153.63
103.70
44.79
-19.36
-85.41
-150.68
-212.40
-267.36
-311.85
-342.37
-356.86
-355.71
-342.09
-321.08
-298.53
-279.08
-264.35
-252.42
-238.95
-219.29
-190.58
-153.12
-110.12
-67.89
-33.39
-11.50
-3.19
-5.16
-10.94
-12.76
-4.04
18.98
54.03
94.22
131.43
159.84
177.84
187.93
195.07
204.13
218.36
235.17
247.91
249.42
234.98
203.21
155.41
94.07
18.87
-60.53
-130.47
-180.88
-209.05
-216.60
-206.53
-182.98
-151.47
-121.78
-96.38
-78.15
-68.84
-67.35
-69.43
-69.57
-62.99
-46.89
-20.25
15.86
56.74
96.40
129.80
153.97
167.97
172.55
169.84
163.02
156.09
150.85
146.97
142.60
135.74
125.51
113.00
100.94
92.44
89.31
89.87
90.01
85.27
73.12
54.03
30.96
7.72
-12.86
-29.75
-43.90
-56.88
-69.55
-81.30
-90.48
-95.46
-95.71
-92.27
-87.19
-82.63
-79.74
-78.46
-77.86
-76.87
-75.04
-72.67
-70.70
-69.93
-70.35
-71.03
-70.50
-67.32
-60.65
-50.55
-37.96
-24.60
-12.22
-1.95
5.94
11.59
15.53
18.68
21.99
26.53
32.36
39.16
46.59
54.37
61.53
67.09
70.69
72.88
75.32
78.32
81.46
83.99
84.80
81.75
73.17
59.10
41.64
25.24
12.33
4.07
0.41
-0.32
-2.64
-11.63
-30.54
-59.62
-95.15
-134.73
-176.35
-218.18
-247.16
-251.45
-226.82
-178.56
-126.90
-75.01
-25.13
19.01
55.40
80.69
92.35
90.94
80.62
66.81
55.12
46.23
38.40
29.59
18.29
2.93
-17.34
-41.89
-67.05
-87.49
-101.36
-109.50
-113.13
-112.49
-107.60
-101.99
-95.35
-88.08
-80.79
-74.96
-71.26
-68.85
-65.17
-58.79
-49.30
-36.96
-23.56
-11.27
-1.93
3.52
5.30
4.40
2.03
-0.48
-1.66
-0.84
2.02
7.60
15.69
24.90
33.08
38.51
41.19
43.09
47.18
56.49
75.03
103.83
139.94
177.38
210.10
234.63
250.62
259.78
264.33
268.56
274.71
282.69
291.08
299.25
307.53
315.35
320.09
299.62
242.22
152.91
50.89
-44.52
-122.75
-180.85
-218.60
-236.74
-234.53
-208.70
-160.74
-99.21
-38.32
8.38
33.17
32.18
8.16
-31.67
-76.70
-117.84
-149.65
-171.55
-185.60
-194.64
-201.55
-207.86
-213.64
-216.98
-215.87
-204.15
-179.01
-142.01
-98.65
-55.62
-16.95
16.35
44.29
66.57
82.12
89.30
87.78
81.06
70.89
60.10
52.56
51.18
57.54
70.60
86.77
101.61
111.42
114.47
105.87
87.62
66.10
49.29
41.12
40.12
41.58
40.76
35.08
25.14
15.05
6.43
-0.70
-8.87
-20.80
-37.62
-58.61
-82.04
-106.12
-129.36
-152.32
-168.46
-173.69
-166.50
-148.47
-123.59
-96.33
-70.03
-46.23
-25.69
-8.48
4.19
12.29
17.26
21.57
27.75
37.35
50.42
65.33
80.00
92.25
97.00
93.29
83.86
73.29
65.76
63.55
66.59
73.21
80.06
83.12
79.18
66.65
46.27
21.92
-0.42
-15.05
-19.22
-14.95
-7.95
-4.55
-7.47
-16.20
-27.27
-36.39
-40.74
-40.47
-38.60
-37.82
-41.45
-49.66
-59.82
-67.76
-70.14
-65.94
-56.76
-45.71
-35.73
-28.98
-23.84
-18.57
-12.01
-4.29
3.42
9.47
12.55
12.38
9.66
6.05
2.85
0.69
-0.81
-2.65
-5.91
-11.21
-18.31
-26.40
-34.26
-41.30
-47.06
-52.06
-57.25
-63.55
-71.35
-80.46
-90.27
-99.90
-108.81
-116.72
-123.75
-130.13
-136.04
-141.45
-146.03
-149.14
-149.87
-147.36
-141.01
-130.78
-117.09
-100.80
-82.93
-64.43
-46.03
-28.28
-11.62
3.50
16.71
27.79
36.68
43.42
48.17
51.17
52.72
53.12
52.82
52.53
53.49
57.24
65.18
78.05
95.54
116.13
137.65
158.07
176.29
192.71
208.15
223.08
237.27
249.98
260.21
267.01
269.54
266.96
259.16
245.88
227.14
204.25
180.05
158.11
141.42
131.48
127.95
130.14
135.53
140.47
141.65
137.33
127.75
114.58
100.15
86.25
74.79
64.91
53.61
38.07
17.74
-5.43
-28.24
-47.87
-73.35
-106.11
-141.74
-174.53
-201.25
-220.54
-231.66
-234.89
-231.63
-224.15
-212.70
-197.46
-179.09
-159.14
-140.21
-125.36
-116.35
-111.92
-107.76
-98.15
-80.54
-57.17
-33.71
-15.93
-6.35
-2.78
1.07
11.21
31.06
58.69
88.01
111.91
125.22
126.54
114.49
92.46
65.35
38.68
17.18
4.02
0.54
5.66
16.11
27.13
34.48
33.54
20.84
-5.30
-43.26
-86.12
-125.04
-154.37
-173.73
-184.87
-190.52
-192.00
-188.52
-178.18
-159.31
-132.62
-101.13
-72.01
-45.50
-21.15
1.80
22.93
39.24
46.24
39.72
19.88
-8.28
-35.52
-53.45
-57.46
-46.89
-26.81
-4.29
13.87
24.46
26.59
21.63
12.21
2.92
-0.20
8.73
34.41
77.46
135.98
200.54
255.35
284.80
282.60
253.74
208.74
164.68
124.25
87.66
53.99
22.26
-8.06
-36.84
-62.10
-81.69
-93.47
-97.01
-91.43
-76.79
-53.56
-22.07
16.64
59.10
98.21
124.79
129.86
110.09
68.68
15.07
-37.55
-76.55
-94.23
-90.08
-69.85
-43.14
-18.77
-2.71
2.89
-0.65
-10.05
-22.08
-34.76
-47.39
-60.02
-72.09
-82.49
-90.14
-94.64
-96.81
-98.53
-101.61
-106.77
-113.00
-117.56
-117.13
-109.09
-92.36
-67.78
-37.92
-7.00
19.63
36.31
38.09
21.92
-12.70
-63.40
-125.26
-191.30
-253.34
-303.05
-333.35
-339.93
-322.81
-286.77
-240.21
-192.62
-151.38
-120.09
-98.51
-83.81
-72.61
-62.69
-53.70
-46.69
-43.05
-42.69
-44.68
-47.51
-49.41
-48.32
-42.08
-28.60
-6.18
26.20
70.01
124.29
184.98
246.01
301.51
347.52
382.67
407.66
424.20
436.51
446.88
455.09
459.58
459.55
455.32
447.73
437.03
422.62
406.80
390.64
373.46
353.66
330.55
304.25
275.16
243.29
188.02
103.89
1.79
-97.75
-178.84
-236.33
-273.45
-296.35
-310.59
-319.65
-321.68
-315.29
-301.49
-285.28
-269.10
-254.17
-240.63
-228.19
-216.62
-203.18
-186.50
-167.21
-147.39
-128.73
-112.42
-98.94
-88.39
-80.84
-74.38
-67.68
-60.93
-55.63
-53.27
-54.79
-60.05
-68.05
-77.48
-86.50
-94.24
-100.86
-106.61
-110.46
-110.01
-102.12
-84.30
-56.05
-19.13
22.49
63.88
100.79
130.88
153.87
170.83
183.01
190.97
194.51
193.06
186.42
175.27
161.08
145.59
130.21
115.62
101.86
88.65
75.77
63.30
51.55
40.75
30.76
21.06
10.89
-0.34
-12.80
-26.09
-39.39
-51.77
-62.50
-71.19
-77.73
-82.10
-84.20
-83.79
-80.56
-74.42
-65.67
-55.10
-43.79
-32.86
-23.08
-14.68
-7.45
-1.05
4.53
8.82
10.84
9.56
4.34
-4.68
-16.48
-29.29
-40.90
-49.01
-51.59
-47.39
-36.27
-19.38
1.01
21.96
40.64
54.92
63.72
67.01
65.55
60.49
53.22
45.12
37.51
31.46
27.71
26.49
27.52
30.07
33.07
35.39
35.92
33.88
29.10
22.13
14.18
6.69
0.71
-3.69
-7.47
-12.26
-19.60
-30.28
-44.11
-60.25
-77.70
-95.61
-113.18
-129.26
-142.10
-149.51
-149.59
-141.64
-126.61
-106.87
-85.42
-64.81
-46.45
-30.61
-16.81
-4.51
6.48
15.94
23.63
29.56
34.29
38.84
44.35
51.68
61.18
72.53
84.97
97.60
109.70
120.82
130.74
139.19
145.70
149.55
150.03
146.68
139.64
129.60
117.57
104.50
90.98
77.09
62.69
47.73
32.58
18.10
5.39
-4.56
-11.22
-14.71
-15.67
-14.94
-13.30
-11.26
-9.14
-7.20
-5.75
-5.16
-5.78
-7.75
-10.93
-14.93
-19.36
-23.87
-28.38
-32.97
-37.77
-42.84
-48.08
-53.26
-58.07
-62.27
-65.77
-68.71
-71.29
-73.80
-76.42
-79.26
-82.31
-85.47
-88.63
-91.54
-93.87
-95.16
-94.85
-92.44
-87.56
-80.12
-70.36
-58.82
-46.24
-33.35
-20.78
-8.97
1.93
11.93
21.08
29.34
36.44
41.97
45.50
46.87
46.32
44.40
41.72
38.63
35.00
30.43
24.49
17.12
8.70
-0.06
-8.50
-16.26
-23.36
-30.10
-36.75
-43.44
-50.06
-56.33
-61.86
-66.20
-68.83
-69.21
-66.93
-61.73
-53.68
-43.13
-30.68
-17.04
-2.97
10.74
23.38
34.28
42.92
48.91
52.05
52.30
49.83
44.93
38.11
30.03
21.44
13.11
5.66
-0.47
-5.12
-8.27
-9.98
-10.39
-9.60
-7.88
-5.57
-3.18
-1.20
0.09
0.74
1.18
2.03
3.83
6.80
10.78
15.41
20.35
25.53
31.11
37.28
44.00
50.81
56.87
61.25
63.11
61.86
57.08
48.45
35.71
18.80
-2.05
-26.19
-52.58
-80.01
-107.19
-133.01
-156.55
-177.20
-194.63
-208.73
-219.49
-226.91
-230.95
-231.74
-229.61
-225.02
-218.22
-208.94
-196.20
-178.60
-155.05
-125.64
-92.03
-57.38
-25.42
0.93
20.56
34.36
44.47
53.07
61.41
69.54
76.62
81.86
85.37
88.37
92.67
99.60
109.32
120.54
131.39
139.98
145.21
147.18
147.07
146.41
146.26
146.94
148.02
149.18
149.67
148.49
145.03
139.36
132.15
124.19
116.07
107.99
100.80
94.25
87.25
79.08
70.33
62.68
57.88
56.84
59.44
66.44
76.98
89.15
101.60
114.55
129.19
146.42
166.14
187.62
211.85
237.31
259.38
271.61
268.10
245.24
202.91
145.20
66.18
-23.78
-104.81
-160.94
-189.95
-199.92
-200.19
-196.11
-189.72
-180.05
-164.65
-144.68
-124.34
-107.98
-97.25
-90.96
-86.39
-81.54
-75.41
-66.74
-56.50
-47.24
-41.11
-38.34
-37.42
-36.42
-34.18
-30.54
-25.29
-19.56
-15.25
-13.76
-15.08
-17.93
-20.77
-22.66
-23.38
-22.98
-22.28
-22.35
-23.82
-26.48
-29.51
-32.21
-34.36
-36.25
-38.24
-40.66
-43.66
-47.09
-50.59
-53.85
-56.85
-59.79
-62.95
-66.50
-70.43
-74.49
-78.28
-81.27
-82.92
-82.75
-80.51
-76.27
-70.47
-63.78
-56.87
-50.28
-44.23
-38.77
-33.84
-29.35
-25.23
-21.38
-17.58
-13.40
-8.30
-1.71
6.87
17.72
31.03
46.69
64.12
82.28
99.76
115.10
127.08
134.84
137.97
136.61
131.22
122.19
109.97
95.00
77.62
57.97
35.99
11.63
-14.42
-40.76
-65.79
-87.76
-105.31
-117.88
-125.62
-129.18
-129.20
-125.37
-116.69
-102.43
-82.10
-56.08
-25.42
8.66
45.20
80.90
112.60
139.05
159.85
174.36
180.85
177.80
165.60
146.89
125.58
105.47
90.19
76.97
62.64
45.29
25.48
6.16
-8.58
-15.41
-13.31
-4.47
5.97
12.97
14.34
10.00
1.70
-8.29
-18.52
-28.76
-39.57
-51.52
-63.26
-71.88
-74.64
-71.26
-64.38
-58.17
-56.28
-60.81
-72.87
-92.33
-118.44
-144.30
-164.13
-175.00
-176.47
-169.20
-154.85
-137.88
-123.95
-117.48
-124.31
-141.96
-164.60
-184.18
-191.68
-180.45
-150.72
-108.33
-61.87
-18.78
11.85
24.70
21.06
8.74
-2.26
-6.21
-1.04
13.96
38.51
72.57
116.62
164.71
207.28
248.20
288.60
320.90
342.35
353.39
356.22
353.22
345.19
331.92
312.32
283.58
244.98
199.48
151.46
105.20
63.40
25.90
-9.44
-46.40
-89.88
-141.86
-199.66
-256.38
-301.63
-324.06
-315.42
-273.37
-203.85
-120.60
-40.46
20.27
49.85
44.32
8.05
-48.79
-113.30
-174.05
-223.07
-249.63
-247.15
-218.88
-175.83
-128.52
-84.52
-42.74
-3.26
31.95
62.00
84.22
97.41
102.59
102.37
99.30
94.92
89.07
81.99
76.76
76.82
85.10
102.94
129.72
163.23
199.96
235.34
256.25
253.21
224.22
177.06
124.41
76.94
40.12
13.84
-5.66
-22.79
-38.92
-53.22
-63.69
-68.66
-68.64
-64.75
-59.17
-54.55
-53.13
-55.21
-60.48
-68.97
-79.91
-93.65
-109.21
-124.32
-135.48
-139.22
-133.23
-117.99
-96.82
-74.23
-55.64
-40.84
-27.93
-14.42
1.47
19.97
39.97
59.58
77.26
91.60
102.09
108.22
109.29
104.60
93.38
75.46
49.87
17.76
-19.58
-61.29
-105.24
-147.81
-183.79
-208.03
-216.41
-207.86
-185.48
-156.67
-130.07
-112.05
-106.06
-107.21
-109.41
-107.84
-100.88
-90.31
-80.17
-74.34
-74.55
-79.86
-87.41
-94.44
-98.62
-99.04
-96.17
-91.37
-85.73
-79.04
-69.72
-55.21
-33.49
-3.38
34.94
80.20
130.38
183.34
236.82
288.17
334.11
370.53
393.45
399.95
389.36
363.70
327.45
286.50
246.59
212.08
185.01
165.24
150.93
139.34
127.48
112.61
92.28
64.33
27.13
-19.73
-74.40
-132.19
-186.12
-228.54
-253.35
-257.76
-242.84
-212.86
-173.96
-132.72
-95.23
-66.60
-50.59
-49.08
-61.38
-84.03
-111.42
-137.32
-156.72
-167.54
-170.86
-169.69
-166.89
-163.22
-156.59
-142.87
-117.92
-79.75
-29.86
27.12
85.19
139.01
185.30
222.99
252.34
273.85
287.60
292.91
288.57
273.40
246.77
209.09
161.98
108.12
50.87
-5.64
-57.53
-101.75
-136.52
-161.27
-176.39
-182.91
-182.26
-175.92
-164.18
-147.03
-124.87
-98.93
-70.96
-42.67
-15.59
8.66
28.07
41.94
49.54
50.01
42.91
29.42
12.81
-2.48
-12.53
-15.16
-7.95
10.10
38.21
73.83
113.63
154.37
193.29
228.48
246.55
239.56
209.55
168.30
128.31
95.27
67.97
42.81
17.71
-6.88
-26.76
-38.59
-42.41
-41.83
-41.03
-41.80
-42.95
-42.03
-38.12
-30.98
-22.60
-15.93
-13.20
-14.45
-17.70
-20.97
-23.61
-28.21
-36.26
-47.93
-61.66
-74.74
-84.32
-88.52
-87.24
-80.87
-72.75
-65.27
-59.62
-55.84
-53.20
-50.72
-47.70
-44.05
-40.26
-37.57
-36.43
-36.57
-37.10
-36.97
-35.50
-32.80
-30.14
-28.22
-27.67
-28.14
-28.61
-28.13
-26.30
-23.52
-20.68
-18.70
-17.90
-18.23
-19.07
-19.71
-19.82
-19.20
-17.63
-15.00
-11.39
-7.22
-3.36
-0.59
0.62
0.03
-2.07
-4.93
-7.89
-10.49
-12.57
-14.18
-15.26
-15.73
-15.84
-15.56
-14.45
-12.08
-8.00
-1.86
6.45
17.09
30.00
44.57
57.96
67.04
69.59
65.50
56.33
44.04
30.38
18.78
8.69
-0.37
-8.21
-14.40
-18.47
-20.19
-20.66
-20.45
-19.95
-19.76
-19.80
-19.49
-18.19
-15.44
-11.27
-6.07
-0.29
5.64
11.14
16.21
21.14
26.22
31.52
36.83
41.72
45.87
49.12
51.23
52.32
52.60
52.21
51.25
49.78
47.99
46.31
45.18
44.82
45.28
46.25
47.16
47.37
46.41
44.05
40.43
35.84
30.61
25.02
19.27
13.46
7.66
1.97
-3.54
-8.81
-13.85
-18.73
-23.52
-28.22
-32.77
-37.04
-40.91
-44.32
-47.36
-50.19
-52.94
-55.64
-58.19
-60.43
-62.26
-63.75
-65.12
-66.64
-68.49
-70.66
-72.98
-75.23
-77.21
-78.77
-79.74
-79.92
-79.14
-77.33
-74.70
-71.68
-68.77
-66.38
-64.67
-63.57
-62.94
-62.71
-62.87
-63.39
-64.09
-64.57
-64.32
-62.89
-60.08
-55.89
-50.47
-43.96
-36.51
-28.26
-19.48
-10.51
-1.67
6.84
15.02
23.01
30.91
38.60
45.75
51.90
56.64
59.72
61.08
60.81
59.09
56.19
52.47
48.44
44.59
41.30
38.74
36.85
35.44
34.32
33.34
32.46
31.70
31.07
30.64
30.48
30.71
31.43
32.64
34.24
36.03
37.77
39.23
40.20
40.56
40.23
39.28
37.97
36.70
35.92
36.02
37.18
39.42
42.63
46.67
51.43
56.77
62.52
68.41
74.05
79.04
83.10
86.15
88.33
89.86
90.96
91.68
91.95
91.71
91.07
90.38
90.10
90.62
92.07
94.23
96.67
98.98
100.98
102.78
104.66
106.86
109.47
112.30
115.00
117.04
117.80
116.55
112.58
105.38
94.72
80.92
64.66
46.77
27.94
8.43
-11.91
-33.42
-56.29
-80.32
-104.83
-128.88
-151.52
-171.92
-189.49
-203.75
-214.31
-220.85
-223.36
-222.17
-217.98
-211.71
-204.15
-195.81
-186.81
-177.09
-166.65
-155.71
-144.73
-134.22
-124.44
-115.25
-106.17
-96.51
-85.69
-73.47
-59.95
-45.55
-30.82
-16.34
-2.69
9.59
19.98
28.13
33.93
37.61
39.73
41.07
42.32
44.00
46.25
48.91
51.60
53.86
55.26
55.52
54.55
52.55
49.88
47.03
44.39
42.09
39.90
37.26
33.53
28.25
21.36
13.27
4.67
-3.67
-11.13
-17.45
-22.64
-26.93
-30.53
-33.50
-35.57
-36.06
-33.87
-27.69
-16.31
0.85
23.37
49.65
77.10
102.80
124.20
139.80
149.24
153.06
152.10
146.99
138.05
125.43
109.50
91.12
71.42
51.51
32.12
13.51
-4.45
-21.85
-38.58
-54.29
-68.61
-81.41
-92.96
-103.68
-114.06
-124.46
-134.94
-145.33
-155.26
-164.27
-171.95
-177.89
-181.65
-182.90
-181.53
-177.65
-171.48
-163.34
-153.44
-141.90
-128.66
-113.39
-95.84
-76.12
-54.56
-31.64
-7.86
16.33
40.27
63.32
85.56
107.22
128.39
149.44
170.84
192.86
215.31
236.81
255.28
269.69
279.11
282.55
279.91
271.86
259.59
244.38
226.53
205.85
183.99
162.14
140.11
117.42
93.45
67.73
40.20
10.40
-22.09
-55.16
-87.44
-119.41
-151.31
-182.51
-211.67
-230.72
-231.89
-225.91
-219.78
-211.12
-198.87
-181.58
-157.97
-127.62
-91.12
-50.88
-10.06
30.04
66.72
94.72
109.27
108.07
92.88
69.37
44.18
22.55
8.21
0.78
-3.67
-8.93
-16.94
-27.47
-39.18
-51.48
-64.84
-78.90
-92.98
-106.36
-117.53
-124.90
-127.48
-125.21
-118.95
-109.92
-98.51
-84.81
-69.11
-51.63
-32.76
-13.06
6.74
25.68
42.74
57.17
68.45
76.41
81.50
84.69
87.23
89.95
92.88
95.12
95.08
91.15
82.44
69.20
52.43
33.15
11.80
-11.59
-36.26
-60.00
-79.33
-90.98
-93.68
-89.20
-81.81
-76.80
-78.38
-88.42
-106.30
-129.61
-155.18
-179.71
-200.13
-213.79
-219.24
-216.56
-207.26
-193.50
-177.21
-159.59
-141.33
-122.74
-103.47
-83.43
-62.74
-41.62
-20.36
0.70
21.39
42.13
64.28
91.07
124.76
165.62
211.78
259.78
305.40
344.50
374.04
392.95
404.29
411.51
417.17
422.34
426.54
427.72
422.78
408.62
383.42
349.63
309.60
264.78
216.42
166.79
119.28
77.60
44.31
4.90
-43.84
-96.75
-146.09
-187.18
-218.07
-237.76
-245.97
-244.44
-236.74
-224.61
-210.94
-199.16
-191.35
-186.93
-184.12
-178.77
-167.93
-151.34
-129.89
-107.68
-89.55
-77.77
-70.54
-62.91
-51.66
-38.58
-29.23
-26.71
-29.86
-33.08
-30.30
-18.95
-2.22
12.53
17.52
9.22
-8.58
-28.29
-42.25
-46.15
-39.75
-25.73
-8.00
10.79
27.01
38.34
42.87
39.26
26.55
4.48
-25.52
-58.21
-87.25
-108.58
-120.69
-124.36
-121.43
-114.42
-105.97
-98.20
-92.29
-88.70
-88.73
-89.84
-89.73
-86.99
-81.51
-74.42
-67.51
-62.58
-61.00
-63.45
-69.17
-77.13
-86.31
-95.54
-103.44
-108.47
-109.15
-104.50
-94.31
-78.74
-58.71
-35.38
-9.97
16.45
42.88
68.51
92.52
114.16
133.22
149.77
164.30
177.48
189.88
201.76
213.04
223.12
231.01
235.73
236.43
232.68
224.45
211.94
195.32
174.63
149.51
119.41
84.11
44.31
1.98
-39.78
-77.18
-106.43
-124.24
-129.29
-122.57
-106.87
-85.81
-62.90
-40.91
-21.50
-5.18
8.93
21.04
30.46
36.18
37.92
36.28
32.32
27.05
21.58
18.38
19.17
24.76
35.62
52.17
74.09
99.57
125.53
148.97
169.20
185.11
194.63
195.40
185.86
165.54
134.91
95.50
38.48
-32.80
-105.55
-166.64
-211.15
-241.20
-260.30
-269.95
-272.56
-266.23
-248.24
-219.70
-185.46
-151.38
-121.23
-95.63
-73.43
-53.21
-32.97
-10.15
15.62
42.30
66.53
85.19
96.34
99.38
95.26
86.58
77.02
69.04
63.27
59.01
55.30
51.40
46.63
40.28
31.84
21.20
8.31
-6.49
-22.26
-37.55
-50.95
-61.59
-69.29
-74.14
-76.23
-75.59
-72.17
-65.82
-56.36
-43.76
-28.37
-10.98
7.23
24.81
40.42
53.13
62.51
68.56
71.37
70.87
66.79
58.90
47.35
32.92
17.03
1.36
-12.63
-23.98
-32.37
-37.83
-40.47
-40.32
-37.42
-32.11
-25.06
-17.18
-9.26
-1.72
5.40
12.17
18.30
22.96
24.89
22.90
16.41
5.77
-7.74
-22.28
-35.87
-46.82
-53.97
-56.86
-55.67
-51.19
-44.64
-37.35
-30.47
-24.73
-20.37
-17.19
-14.82
-12.86
-11.10
-9.57
-8.52
-8.36
-9.63
-12.74
-17.78
-24.21
-30.68
-35.30
-36.11
-31.73
-22.02
-8.07
8.05
24.03
37.98
48.85
56.44
61.11
63.50
64.24
63.88
62.94
61.96
61.42
61.59
62.31
62.98
62.70
60.60
56.29
50.11
43.06
36.47
31.33
27.96
25.80
23.74
20.63
15.79
9.19
1.33
-7.06
-15.39
-23.46
-31.44
-39.72
-48.71
-58.61
-69.30
-80.37
-91.24
-101.16
-109.40
-115.43
-119.09
-120.74
-121.27
-121.89
-123.52
-126.20
-128.69
-128.68
-123.62
-111.83
-93.26
-69.52
-43.21
-16.74
8.56
32.64
56.21
79.88
103.45
125.74
145.10
160.07
169.94
174.90
175.62
172.84
167.08
158.58
147.54
134.34
119.58
104.03
88.43
73.52
60.17
49.42
42.43
40.00
42.19
48.10
56.04
64.11
70.88
75.66
78.44
79.50
79.04
77.05
73.50
68.60
62.94
57.49
53.26
50.94
50.58
51.45
52.09
50.73
45.70
35.98
21.47
3.04
-17.86
-39.83
-61.98
-84.11
-106.49
-129.42
-152.78
-176.06
-198.80
-220.93
-242.94
-265.28
-287.45
-307.36
-321.51
-326.16
-319.05
-300.56
-273.69
-242.74
-211.44
-181.63
-153.13
-124.72
-95.37
-65.00
-34.20
-3.40
27.91
61.14
97.69
137.81
179.91
220.80
256.75
284.78
303.56
313.41
315.62
311.61
302.22
287.56
267.32
241.22
209.42
172.64
132.04
89.01
45.00
1.38
-40.59
-79.78
-115.15
-145.77
-170.89
-190.08
-203.28
-210.80
-213.27
-211.55
-206.68
-199.72
-191.63
-183.00
-173.80
-163.39
-150.79
-135.18
-116.28
-94.54
-70.94
-46.52
-22.08
1.93
25.28
47.65
68.55
87.52
104.24
118.76
131.35
142.24
151.40
158.53
163.26
165.44
165.48
164.33
163.24
163.24
164.71
167.24
169.82
171.20
170.34
166.52
159.18
147.87
132.31
112.66
89.83
65.34
40.72
16.76
-6.99
-31.89
-59.26
-89.20
-120.08
-148.82
-172.09
-187.55
-194.50
-193.74
-186.80
-175.13
-159.62
-140.73
-118.84
-94.51
-68.38
-40.95
-12.34
17.60
48.92
81.00
112.21
140.01
161.46
173.91
175.61
166.09
146.13
117.53
82.72
44.45
5.36
-32.25
-66.67
-96.86
-122.38
-143.28
-159.78
-172.16
-180.61
-185.18
-185.86
-182.54
-175.18
-163.89
-148.99
-131.10
-111.05
-89.83
-68.58
-48.66
-31.83
-20.39
-16.88
-23.56
-41.77
-71.31
-110.04
-153.95
-197.45
-234.29
-258.78
-266.83
-256.63
-228.92
-186.63
-134.45
-78.26
-24.53
20.44
51.39
65.54
63.38
48.49
26.15
1.61
-21.08
-39.13
-50.21
-51.92
-41.33
-15.73
25.66
80.37
142.42
203.81
257.13
297.65
323.70
337.15
342.01
341.93
338.21
328.93
310.30
279.47
236.85
185.37
130.92
80.39
39.38
11.23
-3.06
-3.59
9.72
37.47
77.98
122.19
157.76
174.24
169.46
148.98
120.46
89.60
64.71
42.98
21.33
-1.36
-24.59
-47.27
-69.25
-92.17
-117.62
-145.17
-174.29
-201.92
-223.24
-233.53
-229.73
-211.96
-183.50
-153.31
-123.81
-97.80
-77.16
-63.10
-56.29
-56.76
-63.72
-74.17
-84.01
-87.98
-83.42
-70.04
-50.34
-28.81
-10.20
2.11
7.35
7.31
5.95
6.32
10.39
18.27
28.45
38.48
45.80
48.52
45.72
37.81
25.36
9.34
-8.93
-27.96
-46.30
-62.59
-75.54
-83.86
-85.97
-80.81
-68.09
-48.60
-24.00
3.84
33.59
64.64
96.49
127.86
155.95
176.86
186.75
183.36
166.65
138.63
102.50
61.68
19.40
-21.41
-58.03
-88.27
-110.77
-125.08
-131.38
-130.03
-121.37
-105.90
-84.85
-60.50
-35.85
-13.63
4.69
19.23
31.19
41.72
50.97
57.86
60.64
57.84
49.13
35.46
18.73
1.04
-16.08
-31.95
-46.72
-60.76
-74.00
-85.35
-92.67
-93.25
-84.86
-66.81
-40.57
-9.56
21.89
49.86
71.92
87.46
97.41
103.36
106.78
108.60
109.29
109.18
108.92
109.60
112.63
119.36
130.51
145.83
164.04
183.14
200.87
215.17
224.26
226.53
220.36
204.19
177.04
139.26
93.06
42.43
-7.65
-52.54
-88.89
-115.17
-131.42
-138.77
-139.05
-134.65
-128.56
-124.02
-123.80
-129.16
-139.26
-151.28
-161.41
-166.13
-163.48
-153.53
-138.08
-119.98
-102.09
-86.54
-74.23
-64.72
-56.65
-48.31
-38.35
-26.14
-11.75
4.26
21.10
37.73
52.91
65.14
72.96
75.36
72.25
64.60
54.02
42.21
30.33
18.72
7.08
-5.13
-18.15
-31.65
-44.69
-55.82
-63.59
-66.99
-65.87
-61.10
-54.42
-47.93
-43.47
-42.10
-43.83
-47.59
-51.65
-54.18
-53.85
-50.20
-43.61
-35.17
-26.22
-17.95
-10.93
-4.80
1.92
11.49
26.18
47.15
73.61
102.74
130.51
153.11
168.26
175.75
176.94
173.68
167.35
158.36
146.48
131.46
113.59
93.60
72.37
50.34
27.37
2.96
-23.19
-50.70
-78.44
-104.77
-127.99
-146.65
-159.53
-165.36
-162.88
-151.14
-130.18
-101.71
-69.06
-36.49
-7.96
13.85
27.81
34.00
32.90
25.17
11.86
-5.08
-22.65
-37.39
-46.52
-49.01
-45.80
-39.19
-31.55
-24.29
-17.54
-10.61
-2.77
6.19
15.93
25.90
35.61
44.64
52.26
57.41
58.94
56.23
49.73
40.91
31.74
23.83
17.77
13.05
8.55
3.14
-3.78
-12.33
-22.28
-33.23
-44.69
-55.96
-66.23
-74.83
-81.61
-87.10
-92.30
-97.94
-103.86
-108.69
-110.12
-105.74
-94.08
-75.38
-51.57
-25.72
-1.02
20.01
35.83
45.59
48.51
43.61
29.75
6.43
-25.55
-63.79
-104.51
-143.26
-175.70
-198.22
-208.14
-203.78
-184.44
-151.05
-106.65
-56.46
-7.00
35.56
67.08
86.38
95.17
97.22
96.58
96.30
97.77
101.01
105.14
108.90
110.97
110.33
107.45
103.39
99.22
95.33
91.42
86.86
80.93
73.08
63.00
52.41
43.00
35.30
28.25
20.37
11.01
0.57
-10.10
-20.51
-28.08
-30.95
-28.81
-22.74
-13.61
-0.85
16.90
40.21
68.10
101.96
142.70
189.84
241.02
293.26
344.16
391.81
434.25
446.75
412.40
331.54
224.23
116.34
25.05
-44.03
-92.73
-125.77
-148.11
-160.12
-161.40
-153.03
-138.82
-123.67
-111.35
-103.74
-101.20
-102.98
-104.93
-102.85
-94.74
-81.96
-67.97
-56.18
-48.86
-46.90
-50.03
-55.32
-59.78
-61.41
-60.07
-56.91
-53.34
-50.74
-50.39
-52.83
-57.96
-64.73
-71.67
-77.51
-81.33
-82.49
-80.80
-76.51
-70.19
-62.27
-53.06
-42.97
-32.78
-23.47
-16.00
-11.10
-8.95
-9.14
-10.74
-12.52
-13.44
-12.93
-11.21
-8.47
-5.12
-1.50
2.18
5.79
9.22
12.17
14.36
15.56
15.76
15.17
14.26
13.52
13.28
13.64
14.57
15.80
16.98
17.69
17.44
15.87
12.91
9.02
5.05
2.04
0.75
1.26
2.92
4.57
5.17
4.26
2.27
0.12
-1.27
-1.57
-1.17
-0.99
-1.87
-4.24
-7.97
-12.56
-17.68
-23.46
-30.26
-38.51
-48.25
-59.03
-69.82
-79.30
-86.09
-89.12
-87.83
-82.50
-74.24
-64.87
-56.56
-51.27
-50.35
-54.25
-62.29
-72.78
-83.33
-91.52
-95.55
-94.72
-89.37
-80.44
-68.68
-54.03
-35.73
-13.04
13.82
43.20
72.34
98.37
119.32
134.80
146.05
155.18
164.14
174.00
184.82
195.87
206.24
214.91
220.92
223.76
223.14
218.47
208.71
192.70
169.58
139.94
105.68
69.77
36.14
8.19
-12.81
-28.13
-40.50
-52.60
-64.71
-75.05
-80.83
-78.89
-67.35
-46.92
-20.49
8.47
36.84
63.48
87.99
105.10
110.36
103.98
91.60
80.45
77.71
80.40
83.25
81.27
71.36
52.39
27.52
1.79
-20.19
-35.73
-44.83
-48.46
-48.41
-46.70
-44.50
-42.46
-41.73
-44.06
-51.13
-63.83
-80.83
-99.54
-117.27
-131.87
-142.46
-149.56
-154.58
-159.05
-164.22
-170.16
-176.33
-182.17
-187.20
-191.22
-193.69
-193.94
-191.68
-187.65
-183.11
-179.28
-176.93
-176.05
-176.07
-175.13
-171.25
-163.89
-154.80
-146.79
-141.68
-138.96
-135.64
-127.34
-108.35
-73.95
-22.54
43.45
118.99
198.66
277.92
352.95
410.67
436.10
421.96
375.22
312.04
247.66
191.12
145.24
108.94
79.47
55.65
37.81
26.24
19.80
16.13
12.98
9.00
3.69
-3.15
-10.32
-15.97
-18.68
-18.39
-16.17
-13.35
-10.97
-9.75
-10.10
-11.38
-12.28
-11.76
-9.79
-7.23
-5.12
-4.01
-3.94
-4.42
-4.45
-3.05
0.06
4.22
8.14
10.71
11.50
10.76
9.08
7.21
5.59
4.32
3.18
1.96
0.45
-1.23
-2.84
-4.13
-4.94
-5.27
-5.22
-5.03
-4.97
-5.24
-5.74
-6.14
-5.92
-4.77
-2.77
-0.26
2.24
4.31
5.80
6.82
7.52
7.88
7.67
6.49
4.26
1.21
-2.22
-5.50
-8.30
-10.57
-12.57
-14.05
-15.67
-17.78
-20.50
-23.86
-27.71
-31.66
-35.15
-37.37
-37.53
-35.18
-30.23
-23.31
-15.59
-8.46
-3.08
0.01
0.94
0.31
-1.27
-3.32
-5.55
-7.83
-9.93
-11.48
-12.12
-11.75
-10.63
-9.33
-8.29
-7.71
-7.42
-7.02
-6.17
-4.69
-2.69
-0.38
1.92
3.97
5.75
7.22
8.42
9.41
10.27
11.12
11.98
12.78
13.44
13.91
14.12
14.07
13.69
12.86
11.47
9.48
7.07
4.66
2.85
2.14
2.79
4.63
7.14
9.64
11.45
12.10
11.33
9.10
5.52
0.87
-4.42
-9.86
-15.06
-19.83
-24.24
-28.51
-32.79
-37.03
-41.00
-44.43
-47.14
-49.24
-51.00
-52.73
-54.58
-56.47
-58.25
-59.91
-61.63
-63.78
-66.64
-70.19
-73.97
-77.18
-78.99
-78.61
-75.98
-71.61
-66.23
-60.41
-54.31
-47.72
-40.13
-31.08
-20.22
-7.52
6.90
22.69
39.17
55.18
69.22
79.89
86.29
88.33
86.75
82.88
78.29
74.33
71.93
71.49
73.32
77.29
82.69
88.09
91.77
92.32
89.11
82.65
74.36
66.77
62.20
61.89
65.49
71.48
77.83
82.60
84.24
81.71
75.62
67.20
57.62
47.37
36.37
24.59
12.28
0.14
-10.89
-18.41
-20.09
-14.64
-2.20
16.14
39.35
66.75
97.82
123.02
133.64
125.55
101.88
69.99
36.57
5.71
-20.84
-42.63
-60.06
-72.56
-79.54
-81.15
-78.60
-73.92
-68.52
-64.16
-61.82
-61.88
-63.05
-63.57
-62.04
-58.08
-52.30
-45.62
-39.05
-33.23
-28.52
-24.26
-19.36
-13.37
-6.37
1.13
8.66
15.79
22.19
27.47
31.51
34.25
35.65
35.38
33.13
28.91
22.86
15.17
5.88
-5.01
-16.81
-27.90
-37.19
-44.71
-51.00
-56.34
-60.50
-63.06
-63.97
-63.77
-63.32
-63.80
-65.63
-68.10
-69.72
-69.03
-65.34
-59.05
-52.69
-46.78
-42.03
-38.61
-36.10
-33.82
-31.21
-28.16
-24.95
-21.99
-19.57
-18.12
-17.83
-18.61
-20.18
-22.23
-24.42
-26.52
-27.85
-27.95
-26.84
-24.74
-21.93
-18.59
-14.78
-10.36
-5.19
0.82
7.56
14.54
21.15
26.87
31.39
34.64
36.65
37.45
36.89
34.60
30.09
23.03
13.53
2.15
-10.03
-21.57
-30.93
-36.70
-38.14
-35.52
-30.16
-24.10
-19.29
-16.80
-16.39
-16.81
-16.61
-14.98
-12.09
-8.69
-5.44
-2.22
1.78
7.51
15.26
24.26
32.99
39.88
44.08
45.80
46.08
46.20
47.16
49.42
52.98
57.55
62.78
68.28
73.52
77.75
80.06
79.58
75.86
69.06
60.05
50.15
40.73
32.83
26.82
22.49
19.19
16.28
13.32
10.25
7.22
4.42
1.89
-0.53
-3.07
-5.97
-9.28
-12.96
-16.91
-21.08
-25.46
-30.08
-34.92
-39.81
-44.51
-48.65
-51.86
-53.78
-54.13
-52.74
-49.56
-44.66
-38.20
-30.37
-21.41
-11.66
-1.59
8.17
16.93
24.04
29.10
32.10
33.37
33.51
33.26
33.21
33.71
34.86
36.56
38.60
40.71
42.70
44.47
46.08
47.55
48.89
49.96
50.63
50.65
49.72
47.60
44.14
39.41
33.54
26.59
18.56
9.43
-0.95
-12.83
-26.30
-41.02
-55.97
-69.78
-80.98
-87.99
-89.19
-83.61
-71.33
-53.48
-31.92
-8.43
14.76
35.33
51.59
63.10
70.13
73.23
73.50
72.52
72.73
75.42
80.37
86.64
93.80
101.59
109.56
117.51
125.44
134.00
142.14
147.04
145.49
135.71
116.83
88.51
51.69
3.05
-51.78
-101.47
-137.04
-159.69
-172.51
-175.75
-170.71
-159.72
-145.89
-131.56
-119.54
-112.35
-110.88
-113.42
-117.41
-121.04
-123.14
-123.03
-119.67
-113.13
-104.50
-95.12
-85.36
-75.39
-65.67
-56.39
-47.40
-37.94
-27.87
-17.93
-9.11
-1.88
3.71
7.82
11.11
14.50
18.97
24.67
30.87
36.44
40.69
43.42
44.89
45.64
46.08
46.31
45.92
44.29
41.07
36.53
31.35
26.26
21.68
17.57
13.59
9.29
4.48
-0.68
-5.75
-10.05
-12.98
-14.01
-12.86
-9.52
-4.29
2.24
9.28
16.03
21.79
26.10
28.80
29.89
29.53
27.86
25.08
21.38
17.02
12.26
7.30
2.19
-3.21
-9.08
-15.54
-22.37
-29.02
-34.65
-38.45
-39.92
-39.03
-36.22
-32.27
-28.08
-24.55
-22.40
-22.09
-23.69
-26.91
-31.30
-36.46
-42.24
-48.70
-55.83
-63.29
-70.16
-75.14
-77.00
-74.92
-68.69
-58.61
-45.32
-29.71
-12.88
3.86
19.11
31.60
40.42
45.18
46.02
43.54
38.64
32.46
26.20
20.90
17.29
15.59
15.69
17.34
20.38
24.79
30.51
37.16
43.96
49.94
54.32
56.74
57.36
56.63
55.06
52.98
50.48
47.53
44.07
40.07
35.60
30.77
25.74
20.64
15.57
10.55
5.58
0.69
-3.98
-8.08
-11.05
-12.29
-11.27
-7.82
-2.17
5.10
13.13
21.05
28.04
33.38
36.46
36.72
33.79
27.62
18.60
7.53
-4.51
-16.40
-27.17
-36.11
-42.73
-46.83
-48.58
-48.55
-47.58
-46.43
-45.47
-44.56
-43.18
-40.87
-37.56
-33.68
-29.83
-26.50
-23.81
-21.54
-19.38
-17.16
-14.85
-12.43
-9.80
-6.85
-3.65
-0.63
1.50
2.09
1.02
-1.07
-2.95
-3.23
-0.96
3.97
10.87
18.55
25.81
31.80
36.19
39.13
40.92
41.84
41.99
41.28
39.51
36.63
32.84
28.65
24.75
21.79
20.10
19.58
19.76
20.08
20.19
20.14
20.33
21.22
23.06
25.68
28.51
30.81
31.96
31.67
30.04
27.46
24.37
21.11
17.85
14.59
11.24
7.70
3.85
-0.45
-5.37
-11.15
-17.94
-25.65
-33.80
-41.46
-47.43
-50.55
-50.11
-46.12
-39.34
-31.10
-22.82
-15.62
-10.13
-6.46
-4.44
-3.85
-4.49
-6.15
-8.55
-11.30
-14.03
-16.55
-18.91
-21.38
-24.11
-26.92
-29.13
-29.79
-28.00
-23.34
-16.07
-7.01
2.74
12.17
20.55
27.51
32.86
36.52
38.45
38.58
36.82
33.04
27.14
19.26
9.99
0.45
-8.04
-14.39
-18.26
-20.11
-20.83
-21.10
-20.89
-19.64
-16.85
-12.75
-8.61
-6.33
-7.61
-13.12
-22.00
-32.05
-40.15
-42.86
-37.03
-20.43
7.47
44.88
87.41
128.76
162.22
182.66
187.94
179.31
160.50
136.15
110.19
85.18
62.37
42.32
25.37
11.73
1.22
-6.90
-13.62
-19.66
-25.05
-29.24
-31.62
-32.09
-31.27
-30.17
-29.60
-29.87
-31.00
-33.04
-36.25
-40.81
-46.17
-50.71
-52.14
-48.67
-40.31
-29.22
-19.01
-13.17
-13.52
-19.42
-28.15
-36.08
-40.04
-38.36
-31.10
-19.59
-5.82
8.20
20.93
31.44
39.36
44.56
46.84
45.92
41.96
35.45
27.23
18.27
9.48
1.45
-5.74
-12.43
-19.15
-25.49
-30.69
-34.11
-35.67
-35.87
-35.42
-35.06
-35.28
-36.18
-36.27
-33.88
-28.07
-19.13
-8.26
3.14
13.90
23.17
30.47
37.11
44.65
54.03
65.20
77.68
91.23
105.98
122.03
130.24
123.79
101.45
69.00
34.61
4.09
-20.16
-38.04
-50.59
-59.26
-64.05
-64.80
-61.75
-55.93
-48.81
-41.78
-35.94
-32.16
-30.97
-31.29
-31.59
-30.68
-28.25
-24.81
-21.10
-17.61
-14.51
-11.80
-8.76
-4.89
-0.44
3.53
5.71
5.34
2.25
-2.94
-9.22
-15.33
-20.28
-23.76
-26.07
-27.84
-29.70
-31.83
-34.06
-36.15
-37.74
-38.51
-38.28
-37.16
-34.52
-31.60
-29.55
-29.10
-30.26
-32.20
-33.53
-32.99
-30.15
-25.63
-20.94
-17.41
-15.66
-15.39
-15.69
-15.88
-15.28
-13.97
-12.50
-11.54
-11.20
-11.26
-11.32
-11.14
-10.72
-10.31
-10.34
-11.17
-12.96
-15.41
-18.03
-20.30
-21.99
-23.12
-23.88
-24.59
-25.39
-26.37
-27.30
-27.83
-27.63
-26.40
-23.93
-20.14
-15.14
-9.10
-2.80
2.97
7.63
11.02
13.39
15.22
16.90
18.41
19.37
19.18
17.45
14.24
10.05
5.69
1.93
-0.66
-1.81
-1.28
1.35
6.77
15.70
28.38
44.24
61.96
79.93
96.81
111.87
124.83
135.42
143.09
147.13
147.14
143.67
138.34
133.30
130.36
130.12
131.79
133.74
134.39
132.98
129.82
125.94
122.28
119.12
115.71
110.48
101.49
86.95
65.78
37.98
4.59
-32.48
-70.95
-108.71
-144.23
-176.69
-205.71
-230.98
-251.97
-267.99
-278.46
-283.23
-282.65
-277.41
-268.07
-254.81
-237.65
-216.84
-193.37
-168.99
-145.80
-125.46
-108.63
-94.90
-83.27
-72.82
-63.26
-55.09
-49.17
-46.27
-46.60
-49.65
-54.29
-58.82
-61.19
-59.35
-51.77
-38.05
-19.21
2.56
24.80
45.78
65.09
83.41
101.61
119.77
136.69
150.29
158.60
160.77
157.55
150.92
143.15
135.95
129.96
124.84
119.67
113.50
105.69
96.12
85.12
73.29
61.29
49.59
38.34
27.35
16.33
5.16
-5.87
-16.09
-24.68
-31.03
-35.10
-37.41
-38.78
-39.95
-41.35
-42.96
-44.58
-45.90
-46.64
-46.52
-45.28
-42.72
-38.81
-33.87
-28.41
-23.05
-18.33
-14.63
-12.20
-11.26
-11.87
-13.78
-16.29
-18.41
-19.19
-18.23
-15.86
-13.02
-10.71
-9.29
-8.27
-6.46
-2.61
3.87
12.55
22.09
30.81
37.35
41.11
42.35
41.86
40.59
39.27
38.24
37.52
36.97
36.44
35.87
35.28
34.73
34.30
34.01
33.82
33.51
32.70
30.82
27.31
21.79
14.22
4.92
-5.48
-16.24
-26.65
-36.14
-44.38
-51.28
-56.98
-61.79
-66.08
-70.10
-73.89
-77.13
-79.24
-79.53
-77.37
-72.36
-64.43
-53.83
-41.15
-27.21
-13.01
0.39
12.03
21.19
27.54
31.15
32.47
32.11
30.61
28.28
25.29
21.84
18.38
15.58
14.14
14.50
16.58
19.96
24.25
29.46
36.11
44.97
56.52
70.43
85.43
99.60
111.03
118.43
121.53
120.91
117.64
112.88
107.52
102.07
96.78
91.81
87.39
83.52
79.86
75.70
70.23
62.89
53.65
43.21
32.79
24.11
18.45
16.18
16.65
18.53
20.42
21.08
19.94
16.96
13.32
10.04
7.59
5.67
3.78
1.51
-1.60
-5.60
-10.41
-14.53
-16.86
-17.01
-15.40
-12.41
-8.18
-3.32
1.74
6.37
12.06
19.74
29.54
40.69
52.62
65.05
76.93
87.29
87.30
73.30
47.18
16.21
-12.28
-33.73
-45.53
-51.58
-56.03
-62.53
-71.31
-83.31
-98.97
-118.62
-140.37
-155.52
-154.62
-131.92
-97.16
-55.64
-12.88
26.99
57.43
74.25
77.06
67.69
49.66
26.75
4.41
-13.65
-25.26
-29.83
-27.45
-19.31
-8.44
1.56
7.62
9.53
7.67
2.72
-5.08
-15.24
-27.15
-40.37
-54.22
-67.90
-79.76
-89.05
-95.73
-100.31
-103.10
-104.27
-104.18
-103.31
-102.13
-100.49
-98.07
-94.32
-88.74
-80.98
-71.30
-60.63
-50.32
-41.52
-34.74
-29.90
-26.55
-24.16
-22.34
-20.99
-20.09
-19.61
-19.38
-19.10
-18.50
-17.49
-16.18
-14.86
-13.77
-13.05
-12.72
-12.76
-13.20
-14.23
-16.09
-18.95
-22.84
-27.68
-33.44
-40.24
-48.27
-57.47
-67.20
-76.16
-82.67
-85.30
-83.42
-77.35
-68.07
-56.59
-43.44
-28.56
-11.65
7.39
28.15
49.81
71.44
92.23
111.50
128.54
142.50
152.47
157.75
158.11
153.93
145.97
135.12
122.13
107.61
92.08
76.09
60.27
45.22
31.41
19.11
8.45
-0.44
-7.45
-12.46
-15.55
-16.98
-17.24
-16.87
-16.39
-16.11
-16.14
-16.44
-16.88
-17.33
-17.77
-18.22
-18.77
-19.45
-20.12
-20.31
-19.28
-16.20
-10.43
-1.89
8.79
20.37
31.33
40.23
46.14
48.74
48.26
45.35
40.77
35.23
29.27
23.22
17.29
11.63
6.36
1.64
-2.43
-5.77
-8.38
-10.30
-11.54
-12.04
-11.71
-10.49
-8.48
-5.94
-3.31
-1.04
0.50
1.17
1.03
0.31
-0.64
-1.52
-2.13
-2.45
-2.61
-2.79
-3.15
-3.81
-4.81
-6.14
-7.79
-9.70
-11.79
-13.84
-15.58
-16.74
-17.28
-17.40
-17.56
-18.32
-20.09
-22.98
-26.76
-30.98
-35.18
-39.00
-42.18
-44.50
-45.75
-45.72
-44.25
-41.40
-37.49
-33.00
-28.44
-24.20
-20.55
-17.69
-15.71
-14.55
-14.00
-13.79
-13.73
-13.75
-13.99
-14.65
-15.84
-17.44
-19.04
-20.30
-21.27
-22.48
-24.60
-28.02
-32.51
-37.38
-41.81
-44.80
-45.78
-44.51
-40.74
-33.63
-21.77
-3.89
20.20
49.16
81.24
114.00
144.62
170.25
188.55
197.94
197.53
187.02
166.75
139.57
109.12
78.66
50.40
25.75
5.91
-8.04
-15.32
-15.74
-7.80
9.02
33.34
61.95
91.43
119.59
146.03
171.41
184.11
175.93
146.21
102.72
55.34
10.55
-28.67
-60.78
-84.85
-100.73
-107.32
-104.87
-95.60
-83.21
-71.30
-62.15
-56.47
-53.87
-54.84
-58.20
-62.39
-66.10
-68.52
-69.19
-67.71
-63.53
-56.65
-47.78
-36.97
-24.39
-10.63
3.33
16.60
26.89
33.04
35.02
33.55
30.05
25.71
21.17
16.73
12.79
9.25
6.74
5.92
7.04
9.98
14.21
18.86
23.05
26.57
28.94
30.11
29.96
28.11
23.99
17.19
7.63
-4.20
-17.41
-30.89
-43.12
-52.78
-58.99
-61.54
-60.95
-58.33
-55.11
-52.66
-52.03
-53.59
-57.26
-62.73
-69.65
-77.60
-86.03
-94.20
-101.17
-106.03
-108.04
-106.89
-102.83
-96.54
-88.88
-80.63
-72.32
-64.33
-56.99
-50.65
-45.48
-41.26
-37.19
-32.00
-24.44
-13.87
-0.67
13.75
27.50
38.82
46.72
51.04
52.25
51.02
47.99
43.78
39.17
35.10
32.51
31.99
33.54
36.60
40.28
43.80
46.85
49.63
52.59
56.09
60.10
64.24
68.04
71.06
73.09
74.24
74.79
75.05
75.06
74.68
73.82
72.62
71.31
69.96
68.46
66.44
63.47
58.89
52.30
44.14
35.58
28.00
22.36
18.95
17.45
17.17
16.67
14.53
10.16
4.09
-2.61
-8.92
-14.08
-17.69
-19.66
-21.10
-23.58
-28.19
-35.27
-44.86
-57.12
-72.29
-90.34
-105.34
-111.43
-107.26
-97.13
-86.44
-78.08
-72.24
-67.61
-62.48
-55.67
-47.72
-40.17
-34.36
-30.60
-28.29
-26.41
-23.85
-19.73
-13.79
-7.25
-1.94
0.84
0.99
-0.66
-3.00
-5.18
-6.61
-7.17
-7.34
-7.54
-7.65
-6.98
-4.93
-0.90
4.91
11.94
19.05
24.75
27.75
27.58
24.79
20.70
16.90
14.61
14.76
17.43
22.19
28.46
35.70
43.33
50.55
56.36
58.15
55.56
49.18
40.39
31.06
22.98
17.32
14.31
13.43
13.71
14.45
15.04
15.16
14.77
13.90
12.59
10.85
8.80
6.61
4.66
3.11
1.95
1.08
0.43
0.04
-0.20
-0.22
0.06
0.81
2.09
3.71
5.49
7.24
8.73
9.70
10.01
9.63
8.73
7.57
6.14
4.38
2.16
-0.74
-4.46
-8.89
-13.73
-18.58
-22.37
-25.29
-27.78
-30.30
-33.11
-36.14
-39.01
-41.27
-42.66
-43.10
-42.93
-42.35
-41.34
-39.71
-37.31
-34.16
-30.59
-27.65
-25.47
-24.40
-24.50
-25.48
-26.87
-28.14
-28.88
-28.97
-28.64
-28.28
-28.59
-30.04
-32.65
-36.03
-39.48
-42.28
-43.88
-44.09
-43.02
-41.38
-40.08
-39.92
-41.14
-43.17
-44.56
-43.49
-38.39
-28.47
-13.87
3.75
22.31
39.92
55.47
68.65
79.70
88.91
96.09
100.35
100.46
95.43
84.97
69.67
50.91
30.33
9.39
-10.97
-30.40
-48.72
-65.38
-79.42
-89.59
-94.86
-94.77
-89.52
-80.32
-69.19
-58.48
-50.08
-44.91
-42.65
-41.80
-40.41
-36.35
-29.08
-20.00
-11.84
-7.25
-7.62
-12.44
-19.27
-24.73
-24.50
-16.23
-0.22
20.91
43.50
63.80
79.21
89.60
97.54
109.86
133.16
171.12
222.88
283.01
342.66
392.30
425.00
437.66
433.44
416.26
388.54
350.98
304.03
249.02
188.75
127.36
54.36
-28.79
-111.82
-182.71
-235.51
-270.59
-291.18
-303.49
-309.13
-307.89
-297.13
-276.48
-248.44
-217.09
-183.92
-151.18
-120.37
-91.76
-65.48
-40.04
-15.61
5.65
20.58
26.61
22.30
7.89
-14.61
-42.56
-71.80
-98.64
-120.37
-135.13
-141.70
-140.04
-130.97
-115.94
-96.98
-75.62
-53.49
-32.30
-13.61
1.46
12.30
19.12
22.72
23.88
23.37
21.52
18.42
14.41
10.48
8.07
8.76
13.44
21.78
32.18
42.31
50.07
54.39
55.58
55.02
54.40
54.84
56.42
58.23
58.97
57.48
53.10
45.58
34.74
20.48
3.05
-16.68
-37.21
-56.72
-73.79
-88.04
-100.02
-110.41
-118.89
-123.54
-121.37
-109.71
-87.79
-57.56
-23.15
10.80
41.02
66.75
89.43
111.23
133.32
154.92
173.45
185.90
190.24
186.50
176.81
164.69
153.94
147.58
147.07
152.13
161.01
171.18
179.93
185.15
185.82
182.05
174.76
165.10
153.72
140.51
124.80
105.92
83.86
59.51
34.26
9.32
-15.03
-39.60
-65.71
-94.33
-125.40
-157.61
-188.82
-216.64
-239.24
-255.46
-264.57
-266.00
-259.19
-243.99
-221.23
-193.11
-163.09
-134.92
-111.58
-94.42
-83.11
-76.22
-72.21
-70.01
-68.99
-68.35
-66.69
-62.31
-54.10
-42.55
-29.97
-19.62
-14.07
-13.93
-17.63
-22.31
-25.31
-25.37
-22.66
-18.08
-12.28
-5.37
2.73
11.55
19.77
25.48
27.08
23.95
16.55
6.00
-6.47
-19.95
-33.58
-46.32
-56.61
-62.42
-61.54
-52.12
-33.28
-5.62
28.49
65.15
99.70
128.12
148.28
160.79
168.39
174.54
181.73
190.44
199.46
206.86
211.29
212.24
209.36
201.52
186.36
161.23
124.98
79.55
30.13
-16.41
-54.21
-80.95
-98.52
-111.81
-126.06
-144.35
-166.14
-187.60
-203.33
-208.49
-200.70
-180.83
-152.75
-122.10
-94.74
-75.20
-65.74
-66.19
-74.54
-87.77
-102.51
-115.54
-123.82
-124.71
-116.29
-97.93
-70.69
-37.15
-0.57
36.11
71.21
104.38
135.85
165.51
192.21
213.90
228.50
234.97
233.95
227.57
218.51
208.95
199.94
191.41
182.60
172.57
160.35
144.93
125.44
101.34
72.91
41.38
8.84
-22.38
-50.21
-73.26
-90.87
-103.00
-110.12
-113.23
-113.82
-113.61
-114.06
-115.79
-118.31
-120.39
-120.72
-118.60
-114.28
-108.63
-102.74
-97.41
-93.08
-89.94
-88.17
-87.95
-89.28
-91.70
-94.21
-95.50
-94.55
-91.09
-85.82
-80.00
-74.80
-70.54
-66.60
-61.73
-54.90
-46.07
-36.42
-27.91
-22.38
-20.63
-22.17
-25.52
-29.01
-31.45
-32.51
-32.63
-32.54
-32.77
-33.36
-33.96
-34.17
-33.89
-33.38
-33.29
-34.44
-37.52
-42.79
-49.90
-57.92
-65.68
-72.06
-76.12
-77.65
-77.54
-77.61
-79.89
-85.59
-94.25
-103.41
-108.92
-105.32
-87.77
-53.78
-4.07
57.68
126.01
194.76
258.09
311.36
352.75
382.32
400.83
408.46
404.46
387.39
355.87
309.70
251.04
186.40
124.67
74.26
40.34
24.02
23.13
33.64
51.14
63.81
62.59
45.42
18.60
-9.29
-33.18
-51.93
-66.23
-76.98
-84.77
-88.83
-88.57
-84.62
-79.01
-74.00
-70.95
-70.01
-70.59
-71.88
-72.10
-69.67
-64.11
-56.35
-48.15
-41.09
-36.05
-33.18
-31.99
-30.92
-28.47
-24.00
-18.11
-12.11
-7.17
-3.77
-1.66
-0.51
0.45
1.78
3.58
5.49
6.98
7.77
7.85
7.19
5.83
4.01
2.20
0.96
0.78
1.84
3.91
6.41
8.40
9.06
8.08
5.74
2.71
-0.17
-2.26
-3.24
-3.13
-2.55
-2.24
-2.87
-4.98
-8.85
-14.55
-22.11
-31.79
-42.30
-53.19
-64.32
-75.75
-87.60
-99.80
-111.87
-122.77
-131.03
-135.01
-133.71
-126.70
-114.25
-97.25
-76.96
-54.82
-32.27
-10.59
9.20
26.18
39.91
50.49
58.60
65.28
71.54
78.22
85.86
94.57
103.86
112.87
120.68
126.65
130.62
132.54
132.71
131.73
130.16
128.12
125.35
121.52
116.50
110.48
102.86
93.19
81.35
67.55
51.89
34.48
15.74
-3.35
-21.40
-38.26
-53.72
-66.93
-76.54
-81.78
-82.91
-81.05
-77.80
-74.76
-74.72
-79.40
-88.27
-99.02
-109.52
-118.97
-127.72
-136.64
-135.60
-119.34
-91.40
-60.54
-32.92
-10.08
9.07
26.00
41.48
55.31
64.12
65.83
60.16
49.00
34.98
20.22
5.65
-9.24
-26.15
-42.60
-57.91
-71.34
-81.86
-88.99
-92.89
-93.85
-91.97
-86.99
-79.33
-70.35
-61.14
-52.28
-44.24
-37.21
-30.76
-24.38
-17.77
-11.52
-6.94
-5.08
-5.15
-6.09
-6.93
-6.68
-5.10
-2.46
0.56
3.11
5.05
7.04
9.91
14.15
20.08
27.13
34.29
40.84
46.53
51.98
58.53
67.80
77.72
87.18
95.00
100.11
101.78
99.59
93.49
83.78
71.02
56.11
40.79
26.48
14.01
3.34
-6.30
-15.89
-26.04
-36.69
-47.16
-56.26
-63.30
-68.20
-71.41
-73.38
-74.33
-74.28
-73.32
-71.94
-70.75
-70.54
-71.74
-73.90
-75.59
-74.85
-70.01
-60.49
-47.19
-32.13
-17.80
-6.14
2.12
7.65
11.74
15.45
19.00
21.76
22.82
21.62
18.42
14.16
10.41
8.57
9.46
13.30
19.76
28.25
38.06
48.44
58.62
68.47
77.74
85.69
91.24
93.51
92.28
88.09
82.05
75.20
69.67
66.76
66.37
67.18
67.83
67.72
67.08
66.56
66.42
68.61
74.00
81.53
88.73
93.28
94.20
91.97
87.81
82.63
79.99
82.44
90.42
102.45
116.75
132.29
148.81
166.30
168.67
147.17
104.29
52.86
6.07
-29.41
-53.17
-67.88
-74.20
-77.12
-77.28
-74.76
-70.49
-66.22
-63.18
-61.37
-61.27
-62.34
-64.56
-65.72
-65.02
-63.71
-64.24
-68.63
-77.36
-89.12
-102.03
-114.59
-121.04
-117.21
-103.38
-83.94
-64.02
-48.92
-38.37
-31.44
-27.70
-26.06
-25.22
-24.78
-24.54
-24.31
-23.91
-22.96
-21.47
-19.36
-15.93
-10.88
-4.61
2.12
8.60
14.32
19.43
24.09
28.57
33.09
37.31
40.46
41.98
41.87
40.52
38.51
35.90
32.35
27.48
21.20
13.95
6.86
1.17
-2.45
-4.28
-5.52
-7.57
-11.31
-16.91
-24.03
-32.22
-41.18
-50.66
-60.15
-68.85
-75.98
-81.22
-85.00
-88.46
-92.70
-97.93
-103.14
-106.55
-106.58
-102.72
-95.63
-86.37
-75.55
-62.80
-46.88
-26.54
-1.49
27.16
57.01
85.26
109.72
128.74
141.00
145.53
141.74
129.82
111.14
87.95
63.34
41.02
23.50
11.36
3.80
-0.84
-4.29
-7.93
-13.30
-21.14
-29.76
-36.66
-39.24
-34.46
-19.96
4.56
36.55
69.88
97.53
116.09
124.16
121.80
111.01
94.39
74.06
51.53
26.50
-1.12
-28.08
-52.13
-73.60
-93.49
-112.95
-132.54
-142.66
-135.79
-125.43
-118.44
-112.16
-106.68
-102.08
-98.17
-94.62
-91.26
-89.73
-91.49
-94.27
-95.45
-93.44
-86.61
-74.36
-57.62
-38.49
-20.48
-6.35
4.71
13.98
21.88
28.92
35.39
41.49
47.54
52.94
56.49
57.83
56.35
51.56
44.60
37.81
33.84
34.69
40.78
51.36
64.63
77.66
87.86
94.94
99.79
102.38
101.32
94.91
82.66
66.17
48.50
32.80
21.28
14.37
10.94
9.32
8.23
7.11
5.90
5.11
4.86
5.11
5.52
5.44
4.21
1.43
-2.95
-8.74
-14.97
-20.68
-25.23
-28.56
-31.25
-33.88
-36.58
-38.91
-40.19
-39.82
-37.75
-34.66
-30.41
-24.72
-17.24
-7.99
2.34
12.47
20.96
26.58
28.81
27.73
23.50
16.28
6.26
-5.87
-18.59
-29.09
-34.76
-34.65
-30.03
-23.90
-19.57
-19.60
-24.87
-34.35
-45.80
-56.84
-65.86
-73.25
-79.82
-86.53
-94.44
-103.85
-113.88
-122.42
-126.74
-124.31
-113.53
-94.09
-66.56
-33.23
2.32
35.83
63.23
81.58
90.08
90.51
82.19
67.84
50.62
32.83
15.47
-1.11
-16.19
-27.85
-33.48
-31.14
-20.45
-4.36
11.87
22.78
24.95
18.03
4.35
-12.42
-28.66
-40.85
-46.37
-43.21
-30.28
-8.15
20.42
50.72
77.28
95.54
103.71
102.46
94.26
82.03
68.24
54.45
41.53
30.02
20.42
13.34
9.03
7.32
7.51
8.55
9.36
9.33
8.64
8.33
10.08
15.39
24.85
37.82
52.71
67.76
81.98
95.58
109.69
125.52
143.27
161.64
178.08
189.62
193.98
190.28
179.02
161.47
138.88
112.08
81.67
48.48
14.14
-19.04
-48.62
-72.77
-90.90
-103.62
-112.30
-118.36
-122.82
-126.06
-128.04
-128.48
-127.09
-123.74
-118.49
-111.70
-104.02
-96.31
-89.48
-84.18
-80.59
-78.32
-76.47
-73.91
-69.60
-62.88
-53.58
-42.04
-28.96
-15.24
-1.84
10.36
20.55
28.05
32.49
33.79
32.26
28.55
23.49
17.87
12.14
6.40
0.45
-5.94
-12.75
-19.56
-25.58
-29.81
-31.50
-30.36
-26.69
-21.24
-14.92
-8.58
-2.79
2.32
7.05
11.86
17.18
23.11
29.37
35.50
40.78
44.59
46.88
48.25
49.57
51.67
55.03
59.68
65.54
71.83
77.51
81.89
85.01
87.32
89.38
91.43
93.17
94.09
92.69
87.38
78.05
66.58
56.17
50.06
50.21
56.44
66.88
77.14
82.08
78.06
64.10
41.50
12.97
-18.44
-53.68
-87.76
-114.16
-129.88
-136.07
-135.16
-128.90
-118.45
-105.22
-91.17
-78.33
-69.57
-67.37
-72.21
-82.49
-95.33
-107.55
-117.39
-122.67
-121.50
-113.61
-100.02
-82.04
-61.21
-39.15
-17.39
3.02
21.95
40.04
57.76
72.81
83.45
88.47
87.64
81.82
72.83
62.96
53.89
46.17
39.28
32.82
26.97
22.66
21.02
22.22
24.77
25.91
22.36
12.37
-3.03
-20.54
-36.12
-46.88
-52.38
-53.33
-53.00
-53.97
-56.68
-59.38
-59.74
-56.36
-49.65
-41.36
-33.54
-28.02
-24.32
-21.38
-18.16
-14.43
-10.84
-8.50
-8.24
-10.13
-13.45
-16.87
-19.22
-19.92
-19.17
-17.69
-16.30
-15.59
-15.70
-16.49
-17.44
-18.00
-17.77
-16.96
-15.83
-14.69
-13.77
-13.18
-12.87
-12.67
-12.38
-11.93
-11.45
-11.04
-10.69
-10.10
-8.67
-5.72
-0.72
6.65
16.02
26.24
35.71
42.88
46.60
46.45
42.68
36.11
28.57
21.91
17.46
15.87
17.40
21.88
28.78
37.19
45.77
54.22
62.05
68.39
72.16
72.76
70.35
65.80
60.37
55.17
52.38
53.20
57.39
63.58
70.43
77.11
83.46
89.74
88.79
77.39
57.59
35.65
16.98
3.58
-5.53
-12.37
-17.31
-21.81
-24.52
-23.81
-18.85
-10.04
1.71
14.98
27.00
34.93
36.66
32.65
24.29
13.37
0.30
-12.23
-21.46
-28.49
-37.17
-50.46
-66.50
-82.57
-96.03
-105.56
-111.27
-115.05
-113.33
-105.59
-94.56
-83.93
-76.36
-72.67
-72.60
-74.99
-78.23
-80.38
-80.46
-78.13
-73.54
-67.48
-60.59
-52.83
-43.37
-31.51
-17.42
-2.77
10.54
21.37
29.40
34.88
38.11
39.22
37.79
33.44
26.09
16.67
6.85
-1.80
-8.50
-13.15
-16.11
-17.78
-18.19
-17.26
-14.92
-11.36
-7.28
-3.66
-1.02
0.75
2.43
5.12
9.48
15.42
22.28
29.44
35.09
38.86
41.22
43.02
44.83
46.54
47.36
46.36
42.93
37.06
29.45
20.76
11.43
1.72
-8.03
-17.11
-24.42
-28.75
-29.36
-26.16
-20.07
-12.73
-5.84
-0.52
3.05
5.52
7.66
9.72
11.20
10.94
7.94
2.16
-5.16
-12.01
-16.55
-18.02
-17.02
-14.80
-12.42
-10.10
-7.27
-3.38
1.23
4.99
5.64
1.38
-8.05
-21.05
-34.58
-45.18
-50.21
-48.65
-41.26
-30.13
-17.76
-6.13
3.91
12.66
21.21
30.51
40.66
50.60
58.66
63.36
64.12
61.41
56.59
51.72
48.68
48.62
51.62
57.02
63.75
70.60
76.29
79.69
80.44
78.58
73.98
66.15
54.88
40.81
25.52
10.92
-1.38
-9.68
-13.28
-13.24
-12.19
-12.83
-16.58
-23.30
-31.86
-40.69
-46.93
-47.51
-40.35
-25.13
-2.66
25.53
56.97
88.01
106.61
102.22
73.79
32.06
-8.88
-40.11
-59.77
-70.67
-76.85
-80.81
-81.17
-74.67
-59.60
-38.19
-15.92
1.13
8.95
7.14
-1.30
-10.74
-16.12
-15.54
-10.85
-5.63
-2.73
-3.04
-5.65
-8.83
-10.66
-10.13
-7.43
-4.38
-2.69
-3.08
-5.24
-8.35
-11.67
-14.61
-16.95
-18.87
-20.80
-22.88
-24.84
-26.09
-26.12
-24.83
-22.55
-19.89
-17.58
-16.28
-16.22
-17.28
-18.99
-20.69
-21.95
-22.57
-22.62
-22.26
-21.69
-21.02
-20.29
-19.47
-18.16
-16.24
-13.84
-11.15
-8.19
-4.98
-1.62
1.63
4.47
7.04
8.97
9.62
8.82
7.06
5.11
3.59
2.64
2.45
3.87
7.07
11.79
18.35
27.76
41.03
58.44
78.98
101.02
123.16
142.51
155.47
159.45
153.69
138.96
116.99
89.77
53.43
13.21
-21.47
-45.27
-59.54
-68.35
-74.80
-79.87
-85.18
-89.26
-90.07
-87.79
-84.33
-81.60
-80.48
-81.16
-80.99
-79.22
-75.36
-68.74
-59.88
-49.91
-39.56
-28.67
-16.82
-3.82
9.65
22.99
35.82
47.20
55.90
61.12
62.82
61.47
57.77
52.13
45.08
37.12
28.39
18.81
8.64
-1.44
-10.66
-18.48
-25.01
-30.57
-35.51
-40.08
-44.16
-47.06
-47.85
-45.76
-40.62
-33.05
-24.17
-15.33
-7.71
-2.01
1.70
3.80
4.84
5.32
5.66
6.29
7.87
10.49
13.05
13.96
12.25
8.11
2.66
-2.60
-6.57
-9.07
-10.67
-12.35
-14.74
-17.93
-20.84
-22.14
-20.90
-17.07
-11.68
-6.11
-1.86
-0.05
-1.00
-4.04
-7.85
-11.01
-12.30
-10.93
-6.13
2.27
13.86
27.53
41.86
55.31
66.55
75.09
78.24
76.01
71.51
68.68
68.75
69.49
67.23
59.25
45.44
28.21
11.68
-0.71
-7.44
-9.18
-7.87
-5.27
-3.03
-2.84
-6.41
-14.58
-27.08
-41.59
-54.49
-62.58
-64.57
-61.68
-56.65
-52.08
-48.90
-46.38
-43.20
-38.59
-32.92
-27.31
-22.97
-20.55
-19.89
-20.06
-19.84
-18.28
-15.04
-10.34
-4.71
1.14
6.56
11.19
14.92
17.81
19.63
19.85
17.54
12.05
3.43
-7.33
-18.36
-27.84
-34.42
-37.88
-38.93
-38.67
-38.05
-37.70
-37.93
-38.44
-39.17
-39.82
-40.12
-39.38
-36.66
-31.13
-22.86
-12.62
-0.83
11.88
25.46
39.70
54.24
68.36
80.98
90.75
97.49
103.83
109.84
116.86
125.63
136.03
147.19
157.78
165.60
162.83
145.69
115.15
76.60
35.49
-5.34
-45.67
-86.31
-129.48
-175.19
-218.77
-253.72
-273.86
-276.15
-261.74
-235.70
-200.36
-162.42
-128.01
-99.95
-78.39
-61.47
-46.77
-32.19
-16.16
2.40
23.07
45.28
68.26
90.16
108.42
120.54
125.02
122.03
113.31
100.84
87.20
74.96
65.92
60.94
60.08
62.75
68.09
75.07
82.28
88.71
93.86
97.44
99.19
98.74
95.51
88.78
77.82
61.92
40.97
15.60
-12.88
-42.64
-71.66
-98.12
-120.80
-139.17
-153.35
-163.69
-170.45
-173.60
-172.71
-167.19
-156.46
-140.30
-118.96
-92.97
-63.17
-30.53
4.06
39.81
75.91
110.98
142.73
168.22
184.74
190.43
184.97
169.89
148.36
124.37
101.59
82.24
67.06
55.77
47.27
39.98
32.27
22.90
11.44
-1.53
-14.81
-26.33
-33.32
-33.60
-26.28
-12.08
7.26
29.79
54.14
79.28
99.84
110.34
107.26
91.07
65.59
35.96
7.19
-14.94
-30.26
-39.83
-45.01
-47.60
-49.30
-51.36
-53.77
-56.42
-59.42
-63.71
-69.97
-77.80
-85.75
-91.65
-93.53
-90.45
-82.83
-71.97
-59.65
-46.91
-34.07
-21.44
-9.91
-1.09
3.47
3.35
-0.13
-4.45
-6.72
-5.12
0.04
6.48
11.07
11.25
6.16
-3.01
-13.69
-22.85
-28.14
-28.64
-24.91
-18.53
-11.32
-4.62
0.98
5.49
9.11
11.81
13.19
12.81
10.59
7.05
3.13
-0.20
-2.41
-3.63
-4.51
-5.82
-8.07
-11.40
-15.73
-21.01
-27.36
-34.88
-43.37
-52.02
-59.46
-64.20
-65.25
-62.81
-58.39
-54.43
-53.45
-57.04
-65.23
-76.29
-87.30
-95.00
-96.84
-91.82
-80.93
-66.96
-53.63
-44.28
-40.57
-41.74
-44.68
-45.12
-39.04
-24.17
-0.49
30.02
64.27
99.04
131.64
160.02
182.58
197.95
205.11
203.60
193.87
177.38
156.27
132.91
109.27
86.52
65.07
44.90
25.98
8.60
-6.73
-19.42
-29.20
-36.20
-40.90
-43.92
-45.73
-46.59
-46.58
-45.74
-44.14
-41.87
-39.08
-35.89
-32.48
-29.06
-25.92
-23.27
-21.22
-19.62
-18.12
-16.38
-14.25
-11.90
-9.85
-8.62
-8.49
-9.26
-10.35
-11.07
-10.96
-9.99
-8.54
-7.24
-6.57
-6.71
-7.51
-8.66
-9.92
-11.26
-12.69
-14.24
-15.91
-17.58
-19.09
-20.41
-21.69
-23.24
-25.39
-28.06
-30.85
-33.02
-33.65
-31.90
-27.31
-20.03
-10.89
-1.14
8.28
16.64
23.46
28.63
32.57
35.98
39.58
43.70
48.06
52.67
56.89
59.47
59.31
56.38
52.08
48.74
48.77
53.63
64.83
81.79
101.82
121.03
136.21
145.84
150.21
150.83
149.57
149.75
153.02
158.47
163.20
164.24
159.67
148.74
131.41
97.44
45.29
-16.72
-74.99
-119.37
-146.49
-159.27
-162.60
-159.90
-153.54
-143.43
-129.95
-113.94
-98.48
-86.80
-81.05
-81.58
-86.99
-94.66
-100.12
-100.00
-93.36
-81.74
-67.56
-52.98
-39.41
-27.62
-18.28
-11.13
-6.30
-4.36
-5.94
-10.74
-17.39
-23.95
-28.80
-31.36
-31.65
-30.50
-29.14
-28.70
-29.63
-31.62
-34.02
-36.19
-37.80
-38.62
-38.69
-38.18
-37.24
-35.77
-33.36
-29.48
-23.79
-16.40
-7.93
0.63
8.23
14.08
17.89
19.81
20.27
19.73
18.52
16.78
14.58
11.95
8.94
5.65
2.19
-1.33
-4.69
-7.61
-9.75
-10.77
-10.46
-8.88
-6.33
-3.37
-0.66
1.20
1.83
1.29
0.04
-1.14
-1.44
-0.34
2.26
6.13
10.84
16.09
21.75
27.81
34.27
41.00
47.70
53.90
59.14
62.99
65.16
65.69
65.02
63.98
63.45
63.95
65.27
66.47
66.09
62.71
55.50
44.47
30.40
14.53
-1.82
-17.54
-31.64
-43.49
-52.77
-59.45
-63.69
-65.79
-66.11
-65.06
-63.09
-60.30
-56.92
-53.36
-50.13
-47.58
-45.72
-44.25
-42.73
-40.68
-37.04
-31.25
-23.57
-14.94
-6.40
1.48
8.74
15.92
23.70
33.68
46.58
61.78
77.57
92.13
104.30
113.61
119.99
123.63
126.24
129.09
132.34
135.17
136.48
135.72
132.83
128.09
113.41
85.87
49.31
12.25
-18.23
-39.83
-53.65
-62.05
-67.19
-70.51
-71.42
-69.49
-65.36
-60.60
-56.98
-55.30
-55.61
-57.45
-60.35
-63.06
-65.14
-67.36
-70.29
-74.67
-80.17
-85.79
-90.14
-91.97
-89.91
-83.53
-73.59
-61.68
-50.38
-40.30
-31.86
-25.26
-20.46
-16.87
-13.94
-11.36
-9.05
-7.17
-5.66
-4.49
-3.37
-1.84
0.77
4.99
10.55
16.91
23.26
28.90
33.20
35.84
36.80
36.22
34.21
30.92
26.56
21.41
15.95
10.63
5.93
2.14
-0.64
-2.57
-3.99
-5.15
-6.18
-6.87
-6.86
-5.71
-3.11
0.93
6.09
11.81
17.54
22.75
27.06
30.17
31.87
32.02
30.62
27.79
23.77
18.90
13.55
8.15
3.12
-1.14
-4.36
-6.45
-7.57
-8.00
-8.08
-8.05
-7.97
-7.75
-7.23
-6.34
-5.21
-4.15
-3.57
-3.76
-4.71
-6.03
-7.21
-7.88
-8.08
-8.31
-9.31
-11.58
-15.10
-19.17
-22.75
-24.83
-24.85
-22.87
-19.49
-15.58
-11.93
-9.08
-7.16
-5.93
-4.90
-3.58
-1.72
0.48
2.42
3.35
2.77
0.65
-2.50
-5.90
-8.81
-10.86
-12.08
-12.64
-12.64
-11.89
-9.96
-6.46
-1.26
5.36
12.84
20.56
28.12
35.47
42.79
50.16
57.38
63.81
68.58
70.98
70.85
68.76
65.89
63.66
63.22
65.07
69.01
74.19
79.54
84.10
87.27
88.87
89.04
88.04
86.13
83.49
