1698773825.00
64.000000
-0.00
-0.00
-0.00
-0.00
-0.00
-0.00
-0.00
-0.00
-0.00
-0.00
0.00
0.01
0.01
-0.00
-0.03
-0.05
-0.05
0.00
0.13
0.36
0.66
1.01
1.37
1.72
2.06
2.40
2.79
3.24
3.80
4.42
5.06
5.66
6.20
6.68
7.15
7.68
8.31
9.14
10.09
11.04
11.88
12.56
13.14
13.76
14.65
15.96
17.91
20.32
22.90
25.38
27.58
29.57
31.68
34.32
37.81
42.54
48.15
54.10
59.83
64.97
69.58
74.14
79.34
85.71
93.76
103.00
112.62
121.73
129.77
136.75
143.30
150.75
157.77
166.64
177.95
191.79
206.97
220.57
228.25
225.36
208.53
176.87
132.76
80.05
23.07
-34.94
-92.44
-149.16
-205.23
-260.37
-313.74
-363.88
-409.84
-450.91
-486.49
-515.71
-537.19
-549.19
-549.96
-538.44
-514.37
-478.94
-434.23
-382.85
-327.44
-270.25
-213.03
-157.08
-103.43
-52.94
-6.57
34.83
70.65
100.59
124.78
143.66
157.88
168.12
175.02
179.06
180.63
180.02
177.53
173.41
167.91
161.30
153.82
145.78
137.49
129.26
121.30
113.69
106.30
98.90
91.23
83.17
74.85
66.65
59.03
52.37
46.73
41.83
37.07
31.87
25.91
19.34
12.73
6.87
2.35
-0.67
-2.60
-4.22
-6.37
-9.72
-14.53
-20.60
-27.15
-32.75
-35.58
-33.94
-27.04
-15.55
-1.62
11.92
22.62
29.39
32.65
33.69
33.76
33.33
32.00
29.14
24.60
19.02
13.67
10.09
9.72
13.59
21.99
34.03
47.49
59.21
66.03
66.04
59.49
48.74
37.23
27.91
22.15
19.42
18.01
16.24
13.33
9.65
6.26
4.18
3.87
5.07
6.97
8.44
8.58
6.91
3.58
-0.79
-5.41
-9.71
-13.57
-17.28
-21.20
-25.29
-29.01
-31.48
-32.00
-30.49
-27.52
-23.96
-20.43
-16.95
-13.12
-8.68
-3.96
0.04
2.23
2.17
0.49
-1.34
-1.85
-0.31
2.85
6.43
9.24
10.80
11.50
12.10
13.21
14.81
16.40
17.32
17.18
16.02
13.93
11.05
7.46
3.20
-1.48
-6.10
-10.06
-12.94
-14.74
-16.01
-17.56
-20.05
-23.54
-27.23
-29.66
-29.33
-25.42
-18.35
-9.70
-1.62
4.12
6.78
6.79
5.28
3.41
1.78
0.38
-1.11
-2.95
-5.01
-6.93
-8.29
-8.92
-8.88
-8.41
-7.74
-6.99
-6.12
-5.13
-4.11
-3.30
-3.03
-3.43
-4.46
-5.81
-7.07
-7.94
-8.32
-8.47
-8.88
-10.12
-12.59
-16.42
-21.41
-27.14
-32.83
-37.46
-39.85
-38.94
-34.13
-25.51
-13.93
-0.59
12.90
24.99
34.76
42.01
47.01
50.26
52.26
53.43
54.10
54.49
54.61
54.24
52.97
50.44
46.68
42.12
37.38
32.97
28.94
24.96
20.67
15.90
10.86
6.01
1.67
-2.09
-5.52
-8.90
-12.23
-15.05
-16.69
-16.60
-14.69
-11.47
-7.80
-4.53
-2.17
-0.77
-0.06
0.23
0.18
-0.35
-1.56
-3.43
-5.67
-7.84
-9.52
-10.49
-10.81
-10.64
-10.12
-9.30
-8.18
-6.88
-5.68
-5.00
-5.19
-6.34
-8.18
-10.20
-11.85
-12.81
-13.06
-12.86
-12.53
-12.28
-12.14
-12.00
-11.75
-11.35
-10.79
-10.14
-9.44
-8.71
-8.02
-7.46
-7.14
-7.11
-7.34
-7.72
-8.17
-8.68
-9.31
-10.16
-11.23
-12.36
-13.23
-13.44
-12.70
-10.91
-8.27
-5.14
-2.01
0.76
2.96
4.64
5.99
7.21
8.37
9.39
10.07
10.23
9.77
8.77
7.47
6.18
5.18
4.69
4.78
5.38
6.32
7.36
8.29
8.99
9.41
9.57
9.51
9.25
8.86
8.42
8.05
7.84
7.76
7.71
7.48
6.95
6.12
5.15
4.31
3.82
3.73
3.89
4.01
3.80
3.06
1.82
0.22
-1.54
-3.29
-4.95
-6.52
-8.02
-9.48
-10.96
-12.57
-14.46
-16.71
-19.20
-21.56
-23.23
-23.68
-22.64
-20.25
-17.01
-13.59
-10.63
-8.51
-7.26
-6.66
-6.30
-5.84
-5.12
-4.22
-3.52
-3.42
-4.26
-6.08
-8.62
-11.43
-13.97
-15.75
-16.21
-14.71
-10.62
-3.57
6.27
18.06
30.43
41.92
51.41
58.31
62.57
64.38
63.97
61.54
57.37
51.97
45.99
40.10
34.72
29.91
25.52
21.35
17.37
13.78
10.87
8.91
7.91
7.59
7.42
6.80
5.25
2.65
-0.76
-4.43
-7.70
-10.07
-11.36
-11.73
-11.54
-11.23
-11.07
-11.17
-11.49
-11.95
-12.54
-13.39
-14.80
-17.13
-20.68
-25.52
-31.36
-37.53
-43.17
-47.41
-49.58
-49.36
-46.71
-41.95
-35.65
-28.63
-21.80
-15.99
-11.74
-9.09
-7.64
-6.74
-5.79
-4.45
-2.74
-0.87
0.91
2.41
3.56
4.33
4.68
4.60
4.14
3.40
2.54
1.68
0.86
0.02
-0.91
-1.93
-2.92
-3.66
-3.93
-3.57
-2.50
-0.73
1.64
4.48
7.53
10.49
12.95
14.55
15.03
14.36
12.77
10.64
8.42
6.48
5.01
4.06
3.62
3.67
4.18
5.10
6.26
7.45
8.37
8.81
8.69
8.08
7.15
6.12
5.11
4.20
3.41
2.80
2.49
2.65
3.30
4.17
4.67
3.95
1.14
-4.30
-12.33
-22.27
-32.90
-42.68
-49.99
-53.43
-51.97
-45.22
-33.65
-18.64
-2.25
13.18
25.60
33.75
37.30
36.77
33.16
27.68
21.43
15.37
10.16
6.15
3.36
1.50
0.16
-1.02
-2.18
-3.19
-3.79
-3.77
-3.09
-1.91
-0.48
0.92
2.12
3.00
3.53
3.70
3.55
3.12
2.47
1.64
0.66
-0.44
-1.66
-2.93
-4.19
-5.41
-6.58
-7.70
-8.73
-9.57
-10.04
-10.06
-9.62
-8.95
-8.35
-8.11
-8.43
-9.27
-10.47
-11.73
-12.72
-13.12
-12.68
-11.22
-8.71
-5.33
-1.42
2.49
5.87
8.27
9.49
9.57
8.79
7.52
6.13
4.84
3.76
2.89
2.23
1.80
1.69
1.90
2.42
3.10
3.77
4.29
4.53
4.48
4.17
3.68
3.10
2.54
2.04
1.63
1.26
0.87
0.42
-0.15
-0.87
-1.74
-2.72
-3.76
-4.78
-5.70
-6.47
-7.10
-7.64
-8.19
-8.83
-9.53
-10.15
-10.40
-9.95
-8.51
-6.02
-2.66
1.13
4.79
7.83
9.92
10.99
11.15
10.55
9.36
7.73
5.84
3.94
2.32
1.25
0.83
1.02
1.62
2.33
2.92
3.28
3.40
3.42
3.50
3.70
3.99
4.19
4.08
3.47
2.33
0.83
-0.70
-1.95
-2.73
-3.07
-3.18
-3.32
-3.70
-4.42
-5.46
-6.76
-8.26
-9.82
-11.22
-12.16
-12.27
-11.28
-9.18
-6.19
-2.77
0.61
3.61
6.09
8.05
9.54
10.57
11.08
10.99
10.28
9.06
7.55
6.04
4.76
3.85
3.28
2.94
2.72
2.51
2.31
2.17
2.17
2.34
2.71
3.20
3.77
4.39
5.04
5.71
6.35
6.85
7.06
6.88
6.29
5.35
4.22
3.03
1.91
0.89
-0.12
-1.28
-2.77
-4.71
-7.06
-9.57
-11.73
-13.00
-12.92
-11.35
-8.53
-5.00
-1.43
1.60
3.76
4.97
5.34
5.07
4.41
3.62
2.93
2.57
2.66
3.19
4.07
5.10
6.09
6.82
7.13
6.87
5.98
4.51
2.63
0.60
-1.32
-2.99
-4.37
-5.53
-6.58
-7.52
-8.28
-8.71
-8.66
-8.10
-7.08
-5.74
-4.29
-2.94
-1.89
-1.33
-1.40
-2.22
-3.78
-5.91
-8.29
-10.48
-11.99
-12.40
-11.46
-9.15
-5.72
-1.67
2.36
5.71
7.89
8.66
8.14
6.72
4.95
3.32
2.12
1.40
1.02
0.79
0.60
0.47
0.50
0.77
1.27
1.88
2.41
2.67
2.62
2.29
1.85
1.45
1.16
0.99
0.87
0.71
0.42
-0.14
-1.09
-2.59
-4.72
-7.47
-10.69
-14.06
-17.17
-19.62
-21.03
-21.10
-19.66
-16.67
-12.26
-6.73
-0.53
5.78
11.63
16.54
20.17
22.42
23.34
23.20
22.32
21.03
19.59
18.17
16.84
15.58
14.37
13.13
11.75
10.14
8.20
5.86
3.13
0.12
-3.00
-6.00
-8.68
-10.89
-12.63
-13.96
-15.01
-15.88
-16.63
-17.26
-17.75
-18.14
-18.45
-18.75
-19.14
-19.65
-20.26
-20.77
-20.85
-20.08
-18.09
-14.73
-10.17
-4.88
0.46
5.19
8.71
10.61
10.66
8.89
5.61
1.42
-2.78
-6.07
-7.73
-7.48
-5.60
-2.79
0.12
2.44
3.79
4.19
3.88
3.16
2.29
1.45
0.80
0.46
0.57
1.12
1.95
2.72
3.06
2.81
2.07
1.18
0.49
0.21
0.23
0.29
0.15
-0.30
-0.94
-1.53
-1.85
-1.77
-1.21
-0.18
1.36
3.44
5.99
8.91
11.91
14.69
16.97
18.55
19.37
19.50
19.09
18.32
17.36
16.25
15.02
13.65
12.26
11.06
10.26
10.02
10.24
10.70
11.06
11.09
10.73
10.04
9.14
8.10
6.91
5.52
3.88
1.98
-0.17
-2.53
-5.03
-7.54
-9.93
-12.03
-13.73
-15.00
-15.89
-16.45
-16.73
-16.77
-16.63
-16.41
-16.21
-16.06
-15.83
-15.28
-14.10
-12.12
-9.33
-5.98
-2.48
0.75
3.38
5.26
6.43
7.00
7.09
6.74
5.96
4.79
3.40
2.06
1.10
0.77
1.10
1.92
2.93
3.82
4.43
4.75
4.83
4.73
4.50
4.15
3.72
3.29
2.96
2.81
2.84
2.98
3.12
3.14
2.91
2.31
1.25
-0.32
-2.31
-4.47
-6.43
-7.81
-8.32
-7.88
-6.68
-5.04
-3.33
-1.85
-0.72
0.00
0.32
0.22
-0.31
-1.21
-2.32
-3.38
-4.14
-4.45
-4.35
-4.01
-3.61
-3.20
-2.74
-2.10
-1.23
-0.23
0.68
1.27
1.44
1.23
0.80
0.28
-0.23
-0.76
-1.33
-1.96
-2.63
-3.35
-4.10
-4.87
-5.60
-6.16
-6.36
-5.98
-4.86
-2.99
-0.53
2.25
4.99
7.32
8.93
9.58
9.18
7.81
5.71
3.20
0.65
-1.65
-3.46
-4.66
-5.22
-5.18
-4.65
-3.78
-2.76
-1.74
-0.85
-0.16
0.31
0.56
0.56
0.34
-0.06
-0.59
-1.19
-1.88
-2.76
-3.93
-5.42
-7.14
-8.92
-10.56
-11.91
-12.91
-13.48
-13.51
-12.78
-11.13
-8.53
-5.17
-1.50
1.93
4.62
6.29
6.82
6.24
4.68
2.32
-0.57
-3.57
-6.19
-8.01
-8.82
-8.69
-7.89
-6.75
-5.51
-4.23
-2.87
-1.39
0.13
1.49
2.46
2.85
2.62
1.87
0.82
-0.20
-0.83
-0.67
0.58
2.99
6.31
10.05
13.58
16.33
18.01
18.60
18.33
17.49
16.36
15.13
13.96
13.03
12.54
12.68
13.48
14.79
16.25
17.44
18.00
17.74
16.73
15.19
13.44
11.78
10.46
9.62
9.27
9.33
9.64
10.06
10.51
10.95
11.43
11.90
12.25
12.26
11.68
10.43
8.57
6.32
3.89
1.42
-1.09
-3.63
-6.15
-8.43
-10.23
-11.37
-11.85
-11.86
-11.64
-11.32
-10.84
-10.02
-8.68
-6.85
-4.78
-2.83
-1.31
-0.32
0.30
0.87
1.67
2.76
3.97
4.93
5.27
4.76
3.37
1.31
-1.11
-3.57
-5.83
-7.72
-9.17
-10.15
-10.66
-10.71
-10.33
-9.61
-8.68
-7.75
-7.01
-6.63
-6.62
-6.85
-7.08
-7.06
-6.68
-6.04
-5.39
-5.01
-5.02
-5.36
-5.70
-5.64
-4.86
-3.22
-0.85
1.94
4.79
7.37
9.50
11.13
12.34
13.20
13.72
13.84
13.44
12.47
11.00
9.26
7.53
6.11
5.16
4.71
4.65
4.82
5.02
5.05
4.69
3.73
1.95
-0.77
-4.41
-8.76
-13.43
-17.92
-21.72
-24.45
-25.95
-26.28
-25.67
-24.45
-22.89
-21.18
-19.43
-17.67
-15.88
-14.07
-12.27
-10.59
-9.21
-8.34
-8.10
-8.39
-8.88
-9.10
-8.58
-7.12
-4.86
-2.26
0.08
1.59
1.93
1.07
-0.71
-2.87
-4.77
-5.75
-5.41
-3.67
-0.88
2.32
5.26
7.42
8.64
9.05
9.01
8.80
8.54
8.15
7.47
6.44
5.15
3.87
2.84
2.10
1.47
0.63
-0.61
-2.17
-3.69
-4.66
-4.67
-3.62
-1.62
1.05
4.15
7.55
11.11
14.66
17.87
20.29
21.46
21.06
19.03
15.64
11.46
7.19
3.48
0.73
-0.99
-1.90
-2.37
-2.71
-2.97
-2.89
-2.04
0.03
3.47
8.02
12.88
16.85
18.60
17.00
11.52
2.47
-8.84
-20.24
-29.13
-33.11
-30.69
-21.81
-8.00
8.11
23.43
35.40
42.52
44.58
42.36
37.17
30.37
23.09
16.11
9.95
4.86
0.84
-2.39
-5.31
-8.49
-12.34
-17.00
-22.25
-27.57
-32.36
-36.14
-38.73
-40.23
-41.00
-41.48
-42.03
-42.82
-43.87
-45.06
-46.22
-47.22
-47.95
-48.33
-48.27
-47.75
-46.76
-45.44
-43.97
-42.53
-41.22
-39.98
-38.65
-37.06
-35.14
-32.92
-30.57
-28.18
-25.72
-22.99
-19.66
-15.38
-9.92
-3.22
4.58
13.23
22.42
31.84
41.27
50.47
59.28
67.51
75.02
81.78
87.88
93.52
98.96
104.27
109.29
113.49
116.16
116.61
114.42
109.63
102.63
93.99
84.23
73.75
62.84
51.80
40.99
30.80
21.47
13.02
5.28
-1.92
-8.56
-14.39
-19.04
-22.28
-24.18
-25.15
-25.74
-26.33
-26.96
-27.31
-26.90
-25.31
-22.42
-18.45
-13.82
-9.07
-4.68
-1.01
1.67
3.22
3.58
2.85
1.32
-0.54
-2.19
-3.24
-3.51
-3.09
-2.22
-1.16
-0.03
1.19
2.59
4.16
5.75
7.08
7.82
7.70
6.65
4.77
2.34
-0.29
-2.76
-4.79
-6.21
-7.05
-7.46
-7.75
-8.26
-9.28
-10.92
-13.15
-15.71
-18.24
-20.27
-21.33
-21.04
-19.23
-16.01
-11.79
-7.23
-3.03
0.24
2.26
3.02
2.68
1.53
-0.21
-2.32
-4.60
-6.87
-8.93
-10.65
-11.97
-12.88
-13.43
-13.67
-13.69
-13.59
-13.50
-13.55
-13.84
-14.44
-15.36
-16.55
-17.90
-19.19
-20.15
-20.49
-20.01
-18.77
-17.06
-15.35
-14.03
-13.27
-12.92
-12.55
-11.68
-9.93
-7.19
-3.63
0.38
4.33
7.73
10.26
11.75
12.26
11.92
10.88
9.23
7.08
4.59
2.08
-0.04
-1.38
-1.74
-1.17
0.02
1.43
2.73
3.71
4.31
4.48
4.26
3.64
2.68
1.46
0.07
-1.45
-3.13
-5.01
-7.12
-9.45
-11.92
-14.48
-17.01
-19.37
-21.28
-22.33
-21.99
-19.76
-15.43
-9.16
-1.60
6.33
13.58
19.39
23.32
25.32
25.63
24.55
22.44
19.62
16.49
13.47
10.97
9.20
8.11
7.44
6.77
5.83
4.58
3.24
2.14
1.58
1.66
2.30
3.32
4.48
5.62
6.56
7.17
7.32
6.92
5.98
4.58
2.93
1.21
-0.42
-1.92
-3.38
-4.92
-6.65
-8.49
-10.16
-11.20
-11.07
-9.39
-6.06
-1.36
4.10
9.57
14.28
17.61
19.20
18.92
16.88
13.38
8.87
3.83
-1.31
-6.30
-11.05
-15.63
-20.09
-24.37
-28.26
-31.45
-33.62
-34.61
-34.42
-33.27
-31.43
-29.24
-26.95
-24.81
-23.07
-21.94
-21.59
-22.06
-23.22
-24.74
-26.31
-27.71
-28.88
-29.93
-30.89
-31.63
-31.79
-30.86
-28.44
-24.41
-19.02
-12.87
-6.70
-1.18
3.25
6.40
8.33
9.27
9.45
9.09
8.34
7.34
6.29
5.44
5.18
5.81
7.50
10.14
13.37
16.67
19.53
21.57
22.65
22.83
22.26
21.11
19.53
17.58
15.34
12.92
10.47
8.07
5.68
3.11
0.05
-3.67
-7.96
-12.31
-15.93
-18.00
-17.99
-15.93
-12.38
-8.32
-4.77
-2.52
-1.94
-3.03
-5.53
-9.10
-13.40
-18.13
-23.01
-27.68
-31.75
-34.76
-36.41
-36.56
-35.39
-33.26
-30.64
-27.86
-25.13
-22.50
-20.07
-18.05
-16.86
-16.90
-18.32
-20.92
-24.12
-27.18
-29.54
-31.02
-31.87
-32.59
-33.71
-35.55
-38.09
-40.99
-43.72
-45.69
-46.35
-45.30
-42.38
-37.72
-31.72
-24.98
-18.16
-11.76
-5.98
-0.61
4.84
10.83
17.63
25.13
32.95
40.65
47.93
54.73
61.18
67.38
73.30
78.76
83.47
87.27
90.21
92.51
94.47
96.28
97.97
99.40
100.42
100.88
100.65
99.52
97.17
93.16
87.03
78.49
67.49
54.29
39.43
23.66
7.90
-6.73
-19.08
-28.09
-33.04
-33.79
-30.77
-24.89
-17.36
-9.39
-2.03
3.96
8.13
10.33
10.69
9.50
7.22
4.40
1.60
-0.69
-2.13
-2.60
-2.24
-1.29
-0.02
1.42
2.95
4.52
5.99
7.13
7.63
7.29
6.08
4.18
1.92
-0.39
-2.58
-4.67
-6.86
-9.38
-12.43
-16.02
-20.05
-24.26
-28.34
-31.87
-34.43
-35.56
-34.94
-32.47
-28.40
-23.34
-18.11
-13.53
-10.20
-8.36
-7.98
-8.78
-10.47
-12.70
-15.19
-17.64
-19.76
-21.34
-22.23
-22.44
-22.08
-21.28
-20.20
-18.99
-17.84
-16.90
-16.28
-15.97
-15.83
-15.62
-15.10
-14.21
-13.09
-12.08
-11.56
-11.83
-13.02
-15.08
-17.83
-21.01
-24.27
-27.11
-28.86
-28.80
-26.38
-21.52
-14.71
-6.94
0.66
7.11
11.92
15.00
16.63
17.11
16.69
15.56
13.86
11.81
9.71
7.80
6.30
5.29
4.79
4.81
5.33
6.28
7.53
8.91
10.18
11.14
11.61
11.47
10.64
9.10
6.93
4.32
1.60
-0.93
-3.13
-5.16
-7.42
-10.39
-14.27
-18.81
-23.24
-26.52
-27.72
-26.34
-22.50
-16.84
-10.25
-3.56
2.61
7.92
12.24
15.47
17.53
18.33
17.91
16.53
14.70
13.03
12.12
12.30
13.56
15.57
17.76
19.53
20.30
19.69
17.53
13.92
9.23
4.07
-0.94
-5.33
-9.03
-12.41
-16.08
-20.58
-26.12
-32.45
-39.03
-45.25
-50.78
-55.64
-60.15
-64.71
-69.59
-74.92
-80.59
-86.39
-92.01
-97.01
-100.84
-102.83
-102.24
-98.25
-89.96
-76.46
-56.95
-31.19
0.08
34.78
69.54
100.34
123.44
136.31
138.28
130.54
115.70
97.00
77.72
60.71
48.10
41.19
40.23
44.28
51.29
58.48
63.11
63.29
58.49
49.55
38.09
25.65
13.10
0.45
-12.71
-26.55
-40.50
-53.21
-62.99
-68.42
-68.91
-64.85
-57.38
-47.87
-37.38
-26.30
-14.40
-1.06
14.24
31.67
51.01
71.88
93.86
116.45
138.83
159.76
177.58
190.60
197.54
197.73
191.21
178.45
160.22
137.50
111.56
83.75
55.23
26.62
-1.96
-30.55
-58.82
-85.63
-109.32
-128.26
-141.63
-149.69
-153.42
-153.94
-151.87
-147.21
-139.53
-128.55
-114.48
-98.04
-80.26
-62.07
-44.15
-26.86
-10.45
4.83
18.66
30.81
41.35
50.74
59.60
68.30
76.57
83.50
87.87
88.88
86.55
81.74
75.65
69.12
62.22
54.27
44.28
31.64
16.42
-0.66
-18.57
-36.39
-53.41
-69.14
-83.05
-94.54
-102.99
-108.05
-109.74
-108.55
-105.24
-100.62
-95.30
-89.74
-84.19
-78.74
-73.43
-68.14
-62.71
-56.99
-51.06
-45.21
-39.78
-34.97
-30.58
-26.08
-20.78
-14.21
-6.34
2.44
11.51
20.26
28.22
35.00
40.12
42.90
42.46
37.95
28.84
15.22
-1.94
-20.99
-39.90
-56.84
-70.49
-80.23
-85.91
-87.49
-85.14
-79.87
-74.03
-71.07
-74.07
-83.70
-96.85
-107.32
-108.60
-97.45
-76.04
-51.30
-31.45
-21.80
-22.29
-28.00
-32.32
-30.53
-21.83
-8.72
5.16
17.29
27.08
35.11
41.74
46.18
46.78
42.11
32.28
19.28
6.43
-2.95
-6.91
-5.52
-0.53
5.58
10.89
14.80
18.24
23.19
31.75
45.17
63.27
84.35
105.90
125.66
142.57
157.13
170.95
185.67
201.71
217.82
231.32
239.05
238.50
228.65
210.22
185.38
157.19
128.97
103.66
83.22
68.13
57.37
48.80
40.26
30.52
19.85
9.86
2.61
-0.47
0.68
4.62
9.01
11.50
10.40
5.11
-3.98
-15.77
-28.78
-41.57
-52.99
-62.29
-69.20
-73.69
-75.88
-75.95
-74.30
-71.81
-69.94
-70.61
-75.67
-86.44
-103.20
-125.02
-149.80
-174.19
-193.58
-202.36
-195.05
-168.28
-122.69
-63.78
-0.59
57.22
102.62
133.21
150.76
159.09
161.51
159.52
153.14
142.35
128.15
112.38
96.56
80.58
62.44
39.23
8.92
-28.26
-69.66
-111.17
-148.65
-179.29
-202.13
-217.64
-226.94
-230.88
-229.70
-223.12
-210.86
-193.17
-171.06
-146.21
-120.65
-96.29
-74.70
-56.86
-43.02
-32.57
-23.99
-15.11
-3.66
11.95
31.84
54.35
76.50
95.15
108.34
116.18
120.75
125.10
131.68
141.15
151.96
161.09
165.19
161.99
150.99
133.42
111.68
88.41
65.76
45.06
26.87
11.31
-1.50
-11.23
-17.24
-18.88
-15.77
-8.16
3.22
17.50
34.12
52.94
73.72
95.36
115.47
130.77
138.39
137.41
129.65
119.18
110.72
107.54
110.23
116.49
122.32
123.65
117.67
103.37
81.16
52.16
17.72
-20.53
-60.41
-98.76
-131.69
-155.36
-167.18
-166.84
-156.46
-139.87
-121.16
-103.27
-87.33
-72.87
-58.71
-43.84
-28.05
-11.94
3.43
17.19
29.15
40.07
51.33
64.16
78.73
93.62
106.07
112.88
111.76
102.27
86.04
66.09
45.68
27.33
12.32
0.74
-8.21
-15.85
-23.68
-32.91
-44.02
-56.36
-68.14
-76.90
-80.43
-77.63
-69.11
-57.12
-44.93
-36.03
-33.29
-38.60
-52.71
-75.42
-105.80
-142.29
-182.89
-225.19
-266.46
-303.69
-333.67
-353.28
-359.91
-352.06
-329.92
-295.64
-252.93
-206.21
-159.54
-115.83
-76.56
-42.08
-12.03
14.33
37.96
59.99
81.47
102.97
124.22
144.03
160.77
173.08
180.51
183.62
183.74
182.29
180.35
178.44
176.58
174.43
171.53
167.52
162.32
156.29
150.12
144.50
139.67
134.94
128.69
118.74
103.02
80.32
50.68
15.39
-23.33
-62.87
-100.56
-133.90
-160.65
-178.87
-187.09
-184.64
-171.82
-149.99
-121.45
-89.17
-56.45
-26.41
-1.49
17.05
29.55
37.86
44.76
52.99
64.19
78.39
94.08
109.08
121.44
130.20
135.38
137.61
137.53
135.36
130.93
124.01
114.66
103.41
91.23
79.15
67.85
57.44
47.44
36.96
25.13
11.40
-4.26
-21.35
-38.98
-56.07
-71.56
-84.50
-94.17
-100.10
-102.00
-99.80
-93.71
-84.38
-73.04
-61.51
-51.93
-46.08
-44.60
-46.68
-50.21
-52.70
-52.25
-48.29
-41.43
-32.84
-23.42
-13.38
-2.51
9.32
21.64
33.42
43.48
51.08
56.10
58.96
60.10
59.77
57.92
54.42
49.34
42.94
35.67
27.94
20.06
12.31
4.97
-1.67
-7.46
-12.50
-17.24
-22.28
-28.16
-34.98
-42.29
-49.09
-54.08
-56.01
-54.09
-48.24
-39.14
-28.04
-16.42
-5.62
3.40
10.18
14.69
17.19
18.04
17.60
16.14
13.94
11.25
8.47
6.09
4.65
4.56
6.04
9.05
13.37
18.73
24.80
31.20
37.48
43.11
47.64
50.82
52.68
53.42
53.20
52.05
49.84
46.44
42.04
37.16
32.52
28.74
26.00
24.01
22.26
20.37
18.39
16.78
16.14
16.74
18.37
20.50
22.67
24.89
27.75
32.18
39.03
48.62
60.67
74.37
88.68
102.63
115.39
126.36
135.19
141.75
146.14
148.62
149.53
149.22
148.01
146.26
144.41
142.97
142.38
142.84
144.19
145.92
147.37
147.96
147.23
144.98
141.09
135.29
126.83
114.43
96.52
71.76
39.82
1.78
-39.63
-80.41
-116.24
-143.73
-161.39
-169.80
-171.13
-168.24
-164.05
-160.67
-158.98
-158.50
-157.52
-153.53
-143.96
-127.18
-103.57
-76.83
-52.64
-36.70
-32.62
-40.86
-59.07
-83.40
-110.35
-138.10
-168.37
-203.78
-245.11
-289.51
-330.90
-361.97
-376.66
-371.86
-348.23
-312.00
-271.04
-231.37
-195.39
-163.03
-133.91
-108.63
-88.64
-75.38
-72.52
-82.53
-104.80
-135.72
-170.92
-207.59
-244.77
-282.33
-299.09
-279.63
-222.63
-143.19
-62.06
6.36
56.83
90.19
109.97
117.55
115.56
105.77
91.15
76.15
64.71
58.15
55.12
53.21
51.92
49.02
43.37
36.19
30.44
29.02
33.35
43.61
59.50
80.61
104.45
127.28
145.40
156.30
159.06
154.17
143.36
129.14
114.22
100.05
87.07
75.26
64.64
55.25
47.05
39.84
33.27
26.75
18.97
8.35
-6.31
-25.06
-46.46
-67.98
-86.84
-101.10
-110.38
-115.80
-119.13
-121.59
-123.28
-123.25
-120.30
-113.88
-104.43
-93.22
-81.55
-70.17
-59.00
-47.50
-35.16
-22.02
-8.74
3.60
13.84
21.12
25.17
26.49
26.41
26.86
29.84
36.77
47.96
62.64
79.43
97.17
115.57
135.35
157.69
183.44
212.39
243.13
273.46
301.14
324.47
342.53
354.94
361.48
361.89
356.09
344.58
328.55
309.51
288.45
265.10
237.93
205.32
167.02
125.27
84.28
48.28
18.96
-5.68
-30.41
-59.70
-94.67
-132.20
-166.64
-193.21
-210.59
-220.88
-227.42
-232.01
-233.76
-230.24
-219.83
-203.42
-184.22
-165.91
-150.82
-139.26
-130.42
-123.68
-119.16
-117.15
-116.97
-116.58
-113.21
-104.53
-89.56
-68.80
-43.71
-16.19
11.69
37.82
60.16
77.04
87.61
91.91
90.70
84.95
75.58
63.32
48.82
32.86
16.46
0.88
-12.48
-22.36
-28.06
-29.80
-28.89
-27.20
-26.46
-27.50
-30.01
-33.08
-35.84
-38.03
-39.76
-41.07
-41.55
-40.49
-37.57
-33.42
-29.45
-27.20
-27.45
-29.81
-32.94
-35.30
-35.75
-33.81
-29.38
-22.33
-12.28
1.38
19.15
41.13
66.77
94.89
123.68
151.01
174.67
192.71
203.71
206.75
201.30
187.07
163.93
131.92
91.39
43.13
-11.52
-70.32
-130.19
-187.31
-237.80
-278.58
-308.27
-327.57
-339.00
-345.96
-351.61
-357.90
-365.23
-372.56
-377.90
-378.91
-373.32
-359.34
-335.91
-302.82
-260.69
-210.64
-153.82
-91.28
-24.06
46.27
117.07
184.65
244.84
294.12
330.71
354.95
368.92
375.34
376.49
373.63
367.11
356.96
343.41
327.15
309.00
289.58
269.13
247.63
225.16
202.27
180.08
160.08
143.74
132.04
125.22
122.68
123.19
125.34
127.95
130.43
132.96
136.25
141.10
147.90
156.18
164.44
170.45
171.77
166.49
153.71
133.79
108.26
79.34
49.40
20.31
-6.90
-32.14
-55.76
-77.94
-98.02
-114.24
-124.24
-125.93
-118.55
-103.26
-82.90
-61.02
-40.62
-23.27
-9.06
2.77
12.76
20.43
24.09
21.39
10.18
-10.60
-40.52
-77.52
-118.15
-158.08
-192.86
-218.78
-233.66
-237.18
-230.48
-215.36
-193.26
-164.73
-129.66
-87.95
-40.41
10.95
63.26
113.67
160.12
201.62
237.94
268.84
293.51
310.24
316.79
311.21
292.85
263.18
225.91
186.23
149.37
118.93
95.84
78.30
62.83
45.90
25.30
0.81
-26.26
-53.99
-80.77
-105.75
-128.69
-149.39
-167.33
-181.69
-191.63
-196.83
-197.80
-195.78
-192.37
-188.99
-186.43
-184.67
-183.10
-180.88
-177.46
-172.99
-168.34
-164.74
-163.22
-164.02
-166.42
-169.02
-170.36
-169.45
-166.07
-160.60
-153.58
-145.28
-135.61
-124.32
-111.32
-97.01
-82.25
-68.14
-55.62
-45.15
-36.70
-29.81
-23.89
-18.41
-13.07
-7.86
-2.96
1.35
4.82
7.34
9.01
10.10
11.04
12.25
14.00
16.27
18.74
20.92
22.36
22.89
22.63
21.90
21.01
20.08
18.98
17.46
15.33
12.54
9.15
5.29
1.03
-3.54
-8.16
-12.32
-15.34
-16.53
-15.58
-12.68
-8.52
-4.05
-0.10
2.76
4.34
4.67
3.90
2.19
-0.25
-3.14
-6.14
-8.91
-11.29
-13.35
-15.40
-17.86
-21.04
-25.12
-29.98
-35.38
-41.00
-46.63
-52.18
-57.74
-63.54
-69.81
-76.78
-84.47
-92.75
-101.36
-110.01
-118.42
-126.35
-133.48
-139.39
-143.45
-145.00
-143.50
-138.73
-130.93
-120.65
-108.75
-96.27
-84.23
-73.35
-63.74
-54.78
-45.28
-33.64
-18.15
2.48
28.60
59.42
93.00
126.71
157.66
183.44
202.70
215.75
224.00
229.13
232.22
233.49
232.41
228.30
220.82
210.23
198.20
186.38
175.45
164.75
153.06
139.45
123.94
107.33
90.90
77.67
69.85
67.59
68.71
70.08
69.34
65.60
59.18
51.11
45.25
44.55
49.13
56.00
61.15
62.10
58.70
52.68
46.75
47.44
60.21
86.96
125.25
170.72
219.67
270.06
320.85
347.57
332.98
276.45
196.12
114.50
44.92
-10.11
-53.83
-90.62
-123.33
-149.20
-164.81
-169.17
-165.06
-156.87
-147.88
-138.70
-130.00
-122.19
-113.38
-102.68
-91.21
-81.77
-76.79
-76.54
-79.20
-82.41
-84.25
-82.09
-74.66
-62.60
-48.55
-35.84
-27.61
-25.90
-31.68
-44.55
-62.15
-81.62
-100.49
-117.41
-131.86
-143.54
-151.82
-155.85
-154.85
-148.21
-136.20
-119.87
-100.59
-79.54
-57.25
-33.61
-8.52
17.44
42.80
65.29
82.75
93.90
98.28
96.40
89.74
80.32
70.02
60.38
51.82
44.23
37.26
29.78
20.70
10.06
-0.67
-9.32
-13.44
-12.32
-6.16
4.14
16.25
27.53
36.81
44.65
52.24
61.17
70.79
79.73
86.24
86.80
77.33
55.74
22.75
-18.96
-64.86
-112.14
-158.32
-191.25
-200.07
-183.45
-150.52
-112.95
-85.67
-66.65
-52.88
-42.31
-34.26
-26.58
-19.78
-13.57
-6.27
3.66
17.84
34.89
52.69
68.58
79.27
82.05
76.89
66.48
54.00
42.90
33.99
26.88
19.51
9.10
-6.32
-26.27
-47.76
-67.86
-83.61
-94.17
-99.65
-102.05
-103.92
-106.96
-111.47
-116.14
-120.13
-122.02
-120.20
-104.86
-69.87
-16.84
45.33
103.26
154.03
197.07
233.48
261.10
278.73
285.42
280.18
262.56
231.46
186.79
129.61
64.28
-2.19
-62.23
-111.30
-149.70
-172.29
-176.30
-163.03
-138.08
-106.73
-72.38
-41.98
-16.35
2.72
14.02
15.81
7.33
-10.75
-37.65
-71.81
-110.33
-148.58
-182.15
-206.59
-220.24
-222.36
-213.19
-192.67
-160.59
-117.40
-64.10
-3.26
62.49
129.43
193.47
246.21
280.26
293.84
290.17
273.84
247.12
216.57
179.71
136.05
88.27
41.66
1.51
-29.58
-50.62
-63.24
-70.57
-76.63
-82.93
-89.08
-93.57
-95.43
-95.40
-95.30
-96.54
-98.26
-97.76
-90.42
-72.82
-44.60
-9.16
27.49
59.03
80.94
91.70
91.77
83.31
68.44
48.89
26.39
3.12
-18.01
-34.02
-42.74
-43.98
-39.31
-31.73
-24.56
-20.24
-19.61
-21.85
-24.97
-26.59
-24.74
-18.31
-7.39
6.85
22.49
37.49
50.19
59.67
65.80
68.96
69.69
68.28
64.74
58.93
50.88
40.93
29.67
17.60
4.80
-9.13
-24.82
-42.56
-61.82
-81.19
-98.82
-113.28
-124.21
-132.52
-139.93
-148.09
-157.82
-168.83
-180.02
-190.06
-198.01
-203.50
-206.53
-207.20
-205.41
-200.90
-193.46
-183.10
-170.01
-154.23
-135.27
-111.80
-81.85
-43.42
4.53
61.26
123.92
187.91
247.97
299.46
339.22
365.73
378.78
379.08
367.96
347.44
320.28
289.72
258.90
230.15
204.26
180.50
157.38
133.56
108.56
82.87
57.61
34.07
13.61
-2.94
-15.30
-23.56
-28.08
-29.59
-29.45
-29.49
-31.77
-37.58
-47.86
-62.88
-81.63
-101.48
-118.41
-128.22
-127.73
-115.87
-93.41
-64.01
-32.95
-5.04
17.45
35.37
51.34
68.15
87.16
108.59
129.95
147.16
156.52
156.38
147.41
130.90
107.74
71.61
22.59
-32.96
-85.81
-128.86
-158.80
-175.09
-179.76
-176.14
-167.82
-156.59
-143.80
-130.56
-117.75
-107.77
-99.62
-92.85
-87.31
-82.80
-78.00
-72.07
-64.81
-56.54
-47.61
-37.98
-28.02
-18.05
-8.24
2.18
12.98
23.29
31.93
37.95
41.11
41.23
38.47
33.20
26.27
18.47
10.53
3.10
-3.25
-7.95
-10.96
-12.46
-12.72
-11.91
-10.23
-7.96
-5.39
-2.81
-0.33
2.02
4.26
6.35
8.11
9.22
9.50
9.02
8.15
7.38
7.04
7.10
7.20
6.84
5.62
3.39
0.30
-3.41
-7.46
-11.65
-15.79
-19.64
-23.00
-25.69
-27.67
-28.97
-29.65
-29.68
-28.91
-27.08
-24.01
-19.68
-14.37
-8.65
-3.23
1.18
4.11
5.41
5.30
4.30
3.06
2.17
2.06
2.84
4.31
6.04
7.41
7.83
6.82
4.09
-0.44
-6.59
-14.04
-22.36
-31.14
-40.07
-48.98
-57.81
-66.52
-75.01
-83.09
-90.56
-97.27
-103.26
-108.77
-114.13
-119.64
-125.36
-131.08
-136.36
-140.71
-143.76
-145.37
-145.70
-145.09
-143.90
-142.36
-140.34
-137.30
-132.38
-124.62
-113.40
-98.70
-81.25
-62.28
-43.08
-24.47
-6.49
11.65
31.08
52.83
77.41
104.64
133.93
164.57
196.00
227.93
260.19
292.47
323.98
353.39
378.76
397.86
408.53
409.36
400.17
382.44
358.95
332.89
306.71
281.37
256.28
230.21
202.39
173.37
145.39
121.45
104.15
94.71
92.54
95.49
100.24
102.89
99.75
88.90
70.65
47.47
23.10
1.23
-15.60
-26.51
-32.20
-34.55
-35.16
-35.68
-37.97
-43.67
-53.82
-68.14
-85.11
-102.97
-120.70
-137.19
-151.31
-161.56
-165.42
-160.16
-143.62
-115.23
-76.27
-36.33
-5.13
11.34
14.01
8.97
1.29
-7.77
-19.33
-34.51
-52.86
-71.31
-83.85
-89.73
-89.66
-85.71
-80.28
-75.09
-70.84
-67.48
-63.75
-58.18
-50.10
-40.27
-29.95
-20.70
-13.77
-9.85
-9.12
-10.73
-13.51
-16.65
-19.56
-22.17
-24.69
-27.21
-29.64
-31.87
-33.74
-35.34
-37.17
-39.53
-42.44
-45.51
-47.95
-48.95
-47.96
-44.80
-39.66
-33.14
-25.87
-18.53
-11.81
-6.24
-2.18
0.25
1.17
0.86
-0.33
-2.00
-3.75
-5.26
-6.32
-6.87
-6.98
-6.81
-6.56
-6.37
-6.20
-5.93
-5.38
-4.48
-3.35
-2.24
-1.52
-1.46
-2.17
-3.51
-5.15
-6.74
-8.03
-8.94
-9.57
-10.05
-10.44
-10.62
-10.31
-9.20
-7.12
-4.16
-0.60
3.11
6.60
9.67
12.36
14.82
17.15
19.31
21.09
22.19
22.46
22.00
21.13
20.23
19.52
18.93
18.14
16.81
14.87
12.58
10.49
9.14
8.77
9.16
9.73
9.74
8.59
6.06
2.31
-2.23
-7.03
-11.49
-15.11
-17.49
-18.52
-18.40
-17.64
-16.95
-17.07
-18.50
-21.24
-24.75
-28.12
-30.50
-31.42
-30.93
-29.59
-28.25
-27.60
-27.81
-28.46
-28.66
-27.71
-25.37
-21.87
-17.90
-14.67
-13.20
-13.96
-16.73
-20.59
-25.13
-30.31
-36.09
-42.40
-49.47
-57.00
-63.91
-68.18
-66.50
-56.47
-36.24
-4.67
37.46
85.93
134.14
174.46
200.45
209.46
200.45
175.10
137.71
93.53
46.58
0.18
-43.13
-81.49
-112.74
-138.63
-162.67
-188.25
-207.75
-213.57
-202.36
-178.07
-158.49
-145.07
-135.95
-129.45
-120.15
-106.67
-90.38
-73.02
-56.06
-39.91
-22.62
-4.38
13.73
30.58
44.47
53.03
54.89
49.69
39.19
28.34
21.04
19.87
25.48
35.85
47.22
56.80
63.17
67.77
75.06
88.77
110.65
140.18
174.83
211.03
245.49
273.20
288.46
286.96
266.98
231.76
189.84
152.25
120.32
95.76
73.91
45.70
6.05
-40.88
-83.76
-111.65
-121.23
-118.38
-113.86
-117.74
-133.47
-156.61
-178.59
-191.78
-193.06
-186.49
-176.08
-165.04
-155.36
-146.82
-136.88
-122.19
-99.81
-68.82
-30.86
10.91
50.49
82.56
104.91
118.92
127.45
132.87
135.28
132.96
124.36
109.49
90.46
70.63
54.67
42.95
34.70
28.21
21.59
13.60
3.84
-7.11
-17.98
-27.28
-34.11
-37.87
-38.80
-37.90
-36.32
-35.07
-34.43
-34.11
-33.63
-32.96
-32.39
-32.51
-33.83
-36.30
-39.13
-41.02
-40.76
-37.94
-33.41
-28.74
-25.79
-25.97
-29.68
-36.11
-43.60
-50.22
-54.50
-55.96
-54.95
-52.37
-49.15
-45.76
-42.16
-38.02
-33.13
-27.63
-21.99
-16.69
-11.93
-7.44
-2.54
3.58
11.49
21.19
32.11
43.23
53.53
62.39
69.70
75.86
81.33
86.16
89.85
91.46
90.08
85.37
77.77
68.36
58.55
49.66
42.74
38.52
37.46
39.68
44.89
52.33
60.76
68.80
75.23
79.35
81.15
81.23
80.44
79.52
78.75
77.84
76.08
72.60
66.73
58.15
46.99
33.67
18.81
3.19
-12.27
-26.49
-38.36
-46.88
-51.32
-51.30
-46.73
-37.76
-24.80
-8.55
9.90
29.13
47.54
63.66
76.44
85.43
90.85
93.46
94.31
94.47
94.78
95.64
97.02
98.41
98.92
97.45
92.92
84.56
72.16
56.21
37.82
18.46
-0.48
-17.94
-33.36
-46.54
-57.49
-66.25
-72.93
-77.78
-81.27
-83.94
-86.22
-88.27
-89.92
-90.88
-90.97
-90.36
-89.59
-89.34
-90.22
-92.51
-96.10
-100.54
-105.29
-109.91
-114.15
-117.98
-121.44
-124.57
-127.28
-129.47
-131.08
-132.19
-133.09
-134.16
-135.77
-138.18
-141.47
-145.48
-149.79
-153.65
-155.92
-155.08
-149.47
-137.69
-119.04
-93.89
-63.74
-30.99
1.59
31.47
56.85
76.80
91.13
100.16
104.40
104.58
101.64
96.82
91.59
87.26
84.65
83.68
83.33
81.88
77.52
68.93
55.82
39.20
21.10
4.12
-9.22
-17.02
-18.27
-12.93
-1.81
13.63
31.44
49.32
65.01
76.60
82.97
83.99
80.33
73.05
63.04
50.69
35.89
18.43
-1.56
-23.22
-45.03
-65.14
-81.86
-94.13
-101.72
-105.11
-105.06
-102.33
-97.43
-90.73
-82.59
-73.59
-64.47
-55.90
-48.28
-41.52
-35.15
-28.59
-21.44
-13.65
-5.52
2.54
10.15
17.15
23.51
29.23
34.28
38.49
41.70
43.71
44.39
43.68
41.57
38.16
33.74
28.78
23.91
19.80
16.92
15.34
14.73
14.43
13.83
12.59
10.87
9.24
8.41
8.94
10.96
14.19
18.05
21.95
25.42
28.21
30.25
31.52
32.00
31.64
30.51
28.79
26.83
25.01
23.65
22.78
22.19
21.49
20.30
18.51
16.27
13.99
12.05
10.64
9.64
8.68
7.34
5.45
3.14
0.80
-1.10
-2.23
-2.56
-2.40
-2.17
-2.24
-2.81
-3.84
-5.17
-6.54
-7.63
-8.01
-7.20
-4.76
-0.45
5.58
12.78
20.37
27.59
33.90
39.08
43.12
46.03
47.70
47.94
46.53
43.35
38.53
32.38
25.35
17.89
10.38
3.04
-4.04
-10.84
-17.34
-23.44
-29.03
-34.05
-38.56
-42.72
-46.76
-50.78
-54.72
-58.37
-61.38
-63.45
-64.43
-64.34
-63.36
-61.75
-59.68
-57.30
-54.69
-51.91
-49.09
-46.34
-43.71
-41.15
-38.40
-35.10
-30.90
-25.63
-19.39
-12.50
-5.42
1.41
7.68
13.23
18.01
22.01
25.26
27.77
29.54
30.60
30.97
30.69
29.85
28.58
27.08
25.55
24.22
23.25
22.67
22.44
22.41
22.41
22.29
22.00
21.58
21.12
20.70
20.38
20.11
19.78
19.19
18.17
16.57
14.44
12.04
9.84
8.36
7.98
8.72
10.26
12.10
13.76
15.07
16.07
16.96
17.89
18.83
19.69
20.41
21.08
21.87
22.87
24.02
25.10
25.93
26.53
27.11
28.00
29.32
30.84
31.99
32.11
30.65
27.43
22.60
16.53
9.64
2.38
-4.84
-11.63
-17.64
-22.66
-26.63
-29.67
-32.02
-33.95
-35.66
-37.24
-38.66
-39.74
-40.23
-39.93
-38.73
-36.72
-34.19
-31.43
-28.66
-25.91
-23.09
-20.02
-16.54
-12.55
-7.98
-2.75
3.14
9.55
16.16
22.49
27.99
32.25
35.00
36.22
35.96
34.38
31.66
28.13
24.22
20.43
17.25
14.96
13.61
12.96
12.67
12.34
11.75
10.84
9.68
8.39
7.01
5.48
3.65
1.45
-1.12
-3.84
-6.37
-8.33
-9.46
-9.71
-9.27
-8.53
-7.89
-7.62
-7.77
-8.16
-8.48
-8.43
-7.89
-6.91
-5.66
-4.31
-2.93
-1.55
-0.22
0.88
1.43
1.09
-0.38
-2.91
-6.17
-9.59
-12.59
-14.78
-16.08
-16.66
-16.82
-16.76
-16.50
-15.84
-14.49
-12.26
-9.15
-5.44
-1.53
2.09
4.99
6.90
7.70
7.42
6.26
4.50
2.48
0.53
-1.14
-2.43
-3.27
-3.62
-3.44
-2.74
-1.65
-0.44
0.53
1.00
0.87
0.30
-0.44
-1.07
-1.51
-1.79
-2.09
-2.53
-3.14
-3.92
-4.87
-6.03
-7.47
-9.13
-10.80
-12.04
-12.40
-11.58
-9.56
-6.71
-3.55
-0.58
1.95
4.04
5.81
7.32
8.44
8.90
8.48
7.20
5.37
3.51
2.08
1.34
1.24
1.55
1.96
2.25
2.28
2.01
1.46
0.67
-0.26
-1.20
-2.04
-2.74
-3.37
-4.00
-4.72
-5.48
-6.19
-6.75
-7.12
-7.35
-7.61
-8.03
-8.77
-9.88
-11.28
-12.78
-14.06
-14.76
-14.57
-13.29
-10.95
-7.69
-3.79
0.45
4.76
8.84
12.41
15.17
16.98
17.79
17.78
17.21
16.39
15.56
14.80
14.11
13.45
12.77
12.11
11.59
11.30
11.28
11.44
11.59
11.50
11.03
10.20
9.18
8.19
7.33
6.54
5.67
4.54
3.14
1.59
0.08
-1.25
-2.40
-3.47
-4.61
-5.89
-7.27
-8.67
-10.03
-11.38
-12.76
-14.12
-15.27
-15.84
-15.40
-13.63
-10.48
-6.22
-1.40
3.30
7.28
10.14
11.81
12.44
12.37
11.91
11.31
10.68
10.01
9.28
8.47
7.65
6.92
6.37
6.04
5.90
5.85
5.78
5.59
5.27
4.87
4.43
3.96
3.40
2.68
1.72
0.52
-0.84
-2.23
-3.52
-4.61
-5.51
-6.29
-7.02
-7.74
-8.36
-8.78
-8.89
-8.66
-8.26
-7.93
-7.94
-8.49
-9.55
-10.91
-12.23
-13.11
-13.24
-12.42
-10.62
-8.00
-4.84
-1.50
1.66
4.39
6.60
8.32
9.67
10.75
11.62
12.21
12.47
12.37
12.04
11.71
11.66
12.06
12.91
14.03
15.10
15.84
16.05
15.73
15.00
14.03
12.95
11.76
10.33
8.36
5.56
1.66
-3.33
-9.09
-14.95
-19.96
-23.10
-23.45
-20.45
-14.09
-4.99
5.56
15.83
24.01
28.62
28.89
24.91
17.61
8.43
-0.92
-8.83
-14.05
-15.81
-13.96
-8.92
-1.67
6.53
14.36
20.73
24.96
26.85
26.61
24.63
21.42
17.41
12.99
8.49
4.20
0.39
-2.74
-5.15
-6.87
-8.06
-8.85
-9.33
-9.56
-9.57
-9.44
-9.33
-9.39
-9.76
-10.50
-11.53
-12.71
-13.89
-14.97
-15.93
-16.80
-17.60
-18.28
-18.79
-19.03
-19.00
-18.78
-18.48
-18.21
-18.03
-17.92
-17.80
-17.62
-17.29
-16.75
-15.85
-14.43
-12.38
-9.67
-6.45
-2.98
0.42
3.41
5.77
7.35
8.12
8.13
7.53
6.54
5.39
4.32
3.52
3.09
3.03
3.26
3.65
4.03
4.28
4.34
4.24
4.01
3.72
3.34
2.86
2.24
1.50
0.70
-0.09
-0.86
-1.63
-2.46
-3.32
-4.16
-4.90
-5.51
-6.05
-6.59
-7.13
-7.59
-7.74
-7.33
-6.18
-4.29
-1.84
0.80
3.26
5.23
6.52
7.13
7.17
6.82
6.26
5.57
4.75
3.80
2.77
1.78
1.03
0.67
0.71
1.07
1.56
1.97
2.17
2.09
1.70
1.03
0.13
-0.96
-2.16
-3.43
-4.75
-6.08
-7.38
-8.59
-9.61
-10.37
-10.89
-11.22
-11.47
-11.77
-12.18
-12.65
-13.03
-13.08
-12.49
-11.02
-8.60
-5.46
-2.03
1.14
3.58
5.11
5.78
5.80
5.36
4.54
3.35
1.79
-0.08
-2.13
-4.18
-6.08
-7.73
-9.06
-10.07
-10.77
-11.27
-11.70
-12.24
-12.99
-14.00
-15.21
-16.58
-18.09
-19.80
-21.75
-23.94
-26.24
-28.49
-30.46
-31.93
-32.72
-32.67
-31.62
-29.52
-26.43
-22.65
-18.67
-14.95
-11.75
-8.94
-6.01
-2.28
2.78
9.34
17.10
25.44
33.64
41.08
47.30
51.98
54.97
56.20
55.75
53.83
50.83
47.16
43.27
39.49
36.08
33.17
30.81
28.95
27.46
26.17
24.98
23.83
22.70
21.58
20.47
19.34
18.16
16.87
15.37
13.56
11.39
8.94
6.41
4.11
2.34
1.26
0.80
0.77
0.88
0.91
0.70
0.12
-0.97
-2.73
-5.20
-8.18
-11.16
-13.48
-14.53
-14.02
-12.01
-8.96
-5.47
-2.12
0.70
2.78
4.07
4.67
4.76
4.52
4.13
3.73
3.41
3.24
3.31
3.76
4.67
6.00
7.54
9.01
10.16
10.90
11.31
11.52
11.61
11.46
10.79
9.32
6.98
3.99
0.84
-1.94
-4.02
-5.41
-6.43
-7.51
-8.98
-10.88
-12.97
-14.91
-16.46
-17.63
-18.65
-19.81
-21.19
-22.55
-23.36
-22.97
-20.93
-17.11
-11.81
-5.63
0.77
6.81
12.09
16.39
19.62
21.73
22.67
22.35
20.70
17.71
13.53
8.49
3.08
-2.13
-6.61
-10.00
-12.17
-13.26
-13.61
-13.68
-13.96
-14.83
-16.48
-18.76
-21.13
-22.81
-22.84
-20.48
-15.40
-7.88
1.21
10.69
19.31
26.13
30.60
32.59
32.22
29.59
24.75
17.75
8.80
-1.51
-12.12
-21.72
-29.12
-33.59
-35.02
-33.86
-30.83
-26.58
-21.54
-15.96
-10.04
-4.14
1.30
5.82
9.17
11.36
12.63
13.34
13.71
13.79
13.41
12.38
10.58
8.10
5.21
2.20
-0.68
-3.32
-5.78
-8.16
-10.53
-12.89
-15.19
-17.39
-19.44
-21.39
-23.31
-25.27
-27.30
-29.40
-31.51
-33.46
-35.00
-35.87
-35.90
-35.07
-33.52
-31.43
-28.85
-25.45
-20.63
-13.67
-4.19
7.56
20.62
33.52
44.75
53.08
57.75
58.49
55.35
48.70
39.37
28.79
18.84
11.47
7.97
8.50
11.98
16.61
20.60
22.81
23.02
21.74
19.64
17.19
14.49
11.32
7.48
2.99
-1.80
-6.29
-9.87
-12.10
-12.87
-12.38
-11.01
-9.28
-7.76
-7.12
-8.03
-10.92
-15.70
-21.45
-26.56
-29.31
-28.52
-24.18
-17.41
-9.98
-3.48
1.25
4.26
6.07
7.18
7.76
7.67
6.76
5.18
3.42
2.11
1.68
2.16
3.15
4.07
4.43
4.11
3.33
2.61
2.36
2.75
3.50
4.04
3.79
2.43
0.10
-2.66
-5.18
-6.92
-7.70
-7.75
-7.51
-7.45
-7.92
-8.98
-10.52
-12.28
-13.94
-15.19
-15.70
-15.20
-13.48
-10.56
-6.66
-2.23
2.11
5.79
8.40
9.80
10.12
9.64
8.70
7.52
6.26
5.00
3.86
2.97
2.50
2.54
3.04
3.85
4.70
5.36
5.65
5.52
5.04
4.35
3.59
2.88
2.23
1.59
0.88
0.02
-0.96
-1.99
-2.98
-3.85
-4.61
-5.29
-5.98
-6.73
-7.55
-8.46
-9.46
-10.58
-11.79
-13.00
-13.98
-14.42
-14.00
-12.52
-9.95
-6.47
-2.46
1.58
5.19
8.01
9.83
10.63
10.52
9.72
8.47
7.00
5.58
4.41
3.64
3.37
3.59
4.22
5.06
5.89
6.49
6.75
6.66
6.35
5.98
5.67
5.36
4.88
4.05
2.77
1.11
-0.65
-2.22
-3.36
-4.07
-4.53
-4.99
-5.67
-6.64
-7.81
-9.06
-10.27
-11.41
-12.50
-13.52
-14.32
-14.62
-14.06
-12.38
-9.56
-5.87
-1.82
1.97
5.01
7.01
7.97
8.07
7.57
6.73
5.73
4.72
3.88
3.38
3.39
3.93
4.87
5.93
6.75
7.06
6.75
5.92
4.78
3.60
2.54
1.63
0.83
0.07
-0.70
-1.47
-2.23
-3.01
-3.84
-4.75
-5.74
-6.72
-7.54
-8.05
-8.18
-7.91
-7.31
-6.39
-5.09
-3.26
-0.80
2.27
5.69
9.01
11.71
13.39
13.88
13.25
11.74
9.65
7.27
4.86
2.66
0.91
-0.20
-0.58
-0.32
0.42
1.36
2.31
3.12
3.72
4.09
4.19
4.01
3.54
2.82
1.93
1.02
0.21
-0.33
-0.54
-0.38
0.10
0.78
1.51
2.15
2.59
2.79
2.76
2.51
1.99
1.09
-0.30
-2.20
-4.47
-6.80
-8.77
-9.97
-10.09
-8.99
-6.76
-3.65
-0.06
3.52
6.64
8.90
10.10
10.23
9.46
8.05
6.27
4.36
2.57
1.13
0.25
0.02
0.35
0.99
1.55
1.74
1.46
0.83
0.13
-0.42
-0.76
-1.06
-1.59
-2.59
-4.13
-6.04
-8.00
-9.71
-11.04
-12.06
-13.07
-14.45
-16.46
-19.18
-22.35
-25.44
-27.68
-28.20
-26.21
-21.23
-13.29
-3.04
8.30
19.24
28.38
34.78
38.12
38.60
36.67
32.81
27.40
20.82
13.61
6.60
0.75
-3.07
-4.45
-3.49
-0.83
2.65
6.13
9.06
11.25
12.72
13.61
14.01
13.97
13.60
13.03
12.46
12.05
11.80
11.50
10.80
9.37
7.05
3.95
0.37
-3.26
-6.68
-9.81
-12.85
-16.14
-19.94
-24.26
-28.63
-32.21
-33.91
-32.83
-28.64
-21.73
-13.21
-4.44
3.26
9.03
12.49
13.61
12.58
9.65
5.25
0.07
-4.97
-8.89
-10.93
-10.87
-9.07
-6.28
-3.36
-0.89
0.90
2.16
3.16
4.09
5.00
5.83
6.47
6.93
7.26
7.56
7.89
8.22
8.48
8.62
8.65
8.63
8.62
8.64
8.57
8.24
7.52
6.41
5.05
3.72
2.66
2.00
1.63
1.34
0.87
0.05
-1.13
-2.58
-4.16
-5.77
-7.36
-8.89
-10.36
-11.71
-12.95
-14.10
-15.22
-16.32
-17.32
-17.93
-17.79
-16.56
-14.02
-10.32
-5.88
-1.34
2.71
5.84
7.93
9.09
9.58
9.61
9.31
8.70
7.82
6.75
5.67
4.75
4.11
3.76
3.61
3.51
3.37
3.17
2.97
2.83
2.75
2.67
2.48
2.04
1.27
0.18
-1.11
-2.48
-3.75
-4.82
-5.63
-6.17
-6.46
-6.57
-6.52
-6.36
-6.09
-5.72
-5.23
-4.60
-3.77
-2.73
-1.49
-0.09
1.44
3.09
4.91
6.92
9.12
11.34
13.30
14.73
15.46
15.54
15.25
14.93
14.88
15.21
15.87
16.73
17.65
18.59
19.54
20.48
21.37
22.11
22.53
22.54
22.14
21.45
20.66
19.94
19.35
18.79
18.05
16.92
15.36
13.50
11.59
9.87
8.46
7.26
6.08
4.64
2.66
-0.07
-3.61
-7.78
-12.08
-15.74
-17.95
-18.13
-16.24
-12.79
-8.67
-4.80
-1.82
0.05
0.96
1.16
0.84
0.03
-1.44
-3.74
-6.97
-11.04
-15.68
-20.46
-24.86
-28.36
-30.58
-31.33
-30.76
-29.31
-27.58
-26.20
-25.52
-25.57
-26.05
-26.62
-27.15
-27.85
-29.19
-31.59
-35.09
-39.25
-43.20
-45.99
-46.97
-46.01
-43.56
-40.39
-37.36
-35.06
-33.66
-32.91
-32.27
-31.12
-29.03
-25.84
-21.72
-16.94
-11.87
-6.77
-1.82
2.85
7.10
10.78
13.76
15.89
17.12
17.47
17.10
16.25
15.20
14.13
13.02
11.63
9.58
6.53
2.32
-2.89
-8.65
-14.33
-19.38
-23.45
-26.49
-28.66
-30.19
-31.19
-31.64
-31.40
-30.39
-28.66
-26.34
-23.58
-20.50
-17.19
-13.84
-10.76
-8.36
-7.01
-6.80
-7.41
-8.22
-8.45
-7.48
-5.02
-1.09
4.08
10.10
16.61
23.23
29.60
35.40
40.38
44.39
47.40
49.44
50.64
51.09
50.92
50.16
48.83
46.93
44.53
41.76
38.85
36.01
33.43
31.17
29.12
27.12
24.98
22.61
20.03
17.36
14.76
12.37
10.26
8.42
6.76
5.12
3.36
1.40
-0.72
-2.86
-4.76
-6.16
-6.78
-6.46
-5.13
-2.81
0.28
3.85
7.54
10.92
13.61
15.36
16.03
15.67
14.48
12.83
11.13
9.77
8.98
8.77
8.95
9.25
9.45
9.52
9.60
9.92
10.65
11.75
12.93
13.79
13.99
13.38
12.13
10.60
9.22
8.27
7.77
7.38
6.39
3.96
-0.74
-8.32
-18.80
-31.35
-44.24
-55.35
-62.77
-65.48
-63.57
-58.09
-50.62
-42.69
-35.31
-28.85
-23.18
-18.05
-13.26
-8.45
-3.39
1.96
7.46
12.89
18.06
22.78
26.66
29.15
30.36
30.47
29.47
26.99
22.63
16.24
7.74
-3.09
-16.61
-31.50
-46.17
-59.45
-71.00
-80.57
-87.13
-89.15
-85.42
-75.80
-59.17
-36.14
-9.43
16.29
36.98
51.36
60.77
67.75
74.61
86.02
105.26
133.58
169.78
212.16
260.07
313.04
369.61
406.45
403.68
355.96
278.11
191.76
112.18
45.99
-6.13
-45.91
-75.61
-93.38
-100.67
-100.60
-99.24
-103.19
-116.39
-140.00
-172.66
-212.13
-246.56
-266.41
-267.51
-253.10
-230.74
-207.93
-190.41
-180.46
-176.35
-171.53
-159.27
-135.33
-100.48
-61.51
-22.95
10.53
36.05
53.02
63.42
68.93
70.39
67.72
61.10
52.05
42.37
33.87
27.64
22.88
18.57
13.86
8.72
4.23
2.28
3.89
8.98
16.33
24.08
30.38
33.89
34.14
31.31
26.01
18.60
9.69
0.08
-9.43
-18.26
-26.25
-33.01
-37.56
-38.03
-32.43
-19.17
1.87
28.63
57.25
82.90
101.69
111.69
112.93
106.55
94.31
77.77
58.09
36.11
12.83
-9.66
-28.20
-39.79
-42.84
-37.34
-24.89
-8.18
8.95
20.94
23.30
15.87
2.46
-12.25
-24.01
-30.13
-30.22
-24.94
-15.99
-5.35
5.37
14.78
20.20
20.11
13.47
1.77
-12.19
-26.22
-39.88
-52.99
-64.72
-75.53
-85.53
-94.45
-101.43
-105.53
-105.80
-101.05
-89.90
-68.18
-36.97
-1.44
31.51
57.17
74.09
83.55
88.60
92.91
99.14
106.97
114.72
119.92
120.52
115.57
105.69
93.04
80.58
71.81
66.14
62.76
60.51
58.07
54.29
48.61
41.61
34.88
30.43
29.01
30.80
34.81
39.39
42.84
43.82
41.44
34.81
24.35
9.92
-7.80
-27.49
-47.32
-65.49
-80.84
-93.24
-103.28
-111.67
-118.97
-124.84
-128.61
-129.52
-127.02
-120.83
-110.80
-96.80
-78.67
-56.91
-32.87
-9.53
9.59
21.73
25.87
22.94
15.29
5.82
-3.50
-11.81
-20.24
-29.71
-39.74
-48.52
-54.30
-56.54
-55.85
-53.75
-51.18
-49.50
-48.64
-47.27
-44.04
-39.22
-34.51
-31.40
-30.88
-32.52
-37.34
-46.04
-58.31
-72.94
-88.97
-105.86
-122.65
-138.85
-140.36
-120.08
-82.57
-40.04
-1.95
28.20
48.52
63.32
74.69
83.23
86.67
83.22
72.50
56.49
38.00
19.69
4.20
-7.08
-13.34
-16.14
-17.20
-17.10
-15.08
-10.11
-1.61
10.70
25.85
42.50
57.95
69.83
77.12
80.44
81.21
81.01
81.28
82.48
84.40
85.79
85.39
82.66
78.08
72.66
67.53
63.71
61.59
61.17
61.87
62.97
63.76
63.60
61.76
57.59
50.79
41.58
30.77
19.38
8.15
-2.73
-13.56
-24.64
-35.85
-46.43
-55.20
-61.07
-63.56
-62.92
-59.90
-55.35
-49.90
-43.98
-38.02
-32.68
-28.80
-27.13
-27.91
-30.63
-34.12
-36.92
-37.76
-36.06
-32.07
-26.66
-21.05
-16.35
-13.33
-12.27
-12.97
-14.88
-17.24
-19.27
-20.40
-20.38
-19.44
-18.17
-17.32
-17.46
-18.76
-20.92
-23.31
-25.28
-26.31
-26.23
-25.11
-23.29
-21.27
-19.74
-19.46
-21.09
-24.93
-30.80
-38.06
-45.98
-53.97
-61.80
-69.46
-76.92
-83.83
-89.57
-93.51
-95.38
-95.41
-94.29
-92.72
-91.12
-89.39
-87.11
-83.74
-78.88
-72.19
-63.24
-51.52
-36.52
-18.13
3.04
25.63
47.99
68.74
87.24
103.67
118.71
132.96
146.65
159.55
171.25
181.44
190.02
197.02
202.36
205.81
207.06
205.87
202.23
196.33
188.49
179.01
168.03
155.57
141.58
126.09
109.33
91.85
74.49
58.23
43.92
31.98
22.23
13.93
6.11
-2.03
-10.91
-20.43
-30.20
-39.82
-48.94
-57.33
-64.78
-71.03
-75.85
-79.17
-81.21
-82.40
-83.10
-83.40
-83.07
-81.63
-78.66
-73.93
-67.63
-60.39
-53.01
-46.21
-40.38
-35.57
-31.46
-27.62
-23.51
-18.79
-13.51
-8.03
-2.81
1.72
5.39
8.35
11.02
14.18
18.47
24.10
30.84
38.50
46.84
55.46
63.75
70.75
75.99
79.08
79.73
78.02
75.12
72.51
71.06
70.46
68.97
65.47
58.99
48.89
35.23
19.67
4.22
-10.00
-23.31
-37.41
-52.09
-66.40
-79.10
-88.52
-91.76
-86.39
-71.82
-49.68
-23.44
5.70
36.98
69.13
91.70
95.24
77.94
47.54
21.95
3.59
-7.22
-11.22
-12.13
-11.81
-10.02
-5.81
1.18
10.19
18.90
26.83
32.52
33.00
25.57
9.81
-12.88
-40.41
-70.80
-102.87
-129.63
-142.89
-140.97
-130.08
-117.98
-108.99
-103.72
-100.76
-98.63
-95.25
-89.98
-83.87
-78.05
-72.34
-65.80
-57.63
-47.76
-37.16
-26.84
-18.35
-13.41
-12.46
-14.19
-16.28
-16.64
-14.06
-8.40
-0.11
9.57
19.28
28.06
35.89
43.50
51.73
61.05
71.11
79.77
85.36
86.03
80.86
70.46
56.91
42.85
30.51
20.97
14.16
9.51
5.89
2.87
0.75
0.14
1.38
4.08
7.19
9.58
10.65
10.32
9.05
7.47
6.34
6.31
7.62
9.93
12.54
14.64
15.31
14.07
11.03
7.49
5.24
5.37
7.50
10.54
13.44
15.42
15.95
14.20
9.44
1.06
-11.30
-27.25
-44.45
-59.44
-69.56
-74.70
-77.56
-80.36
-82.90
-82.59
-75.71
-58.86
-30.91
5.78
47.51
83.78
104.87
108.68
103.53
95.17
85.64
75.27
62.75
48.20
31.96
15.91
2.23
-8.56
-17.94
-28.45
-41.96
-55.01
-63.52
-66.20
-63.81
-57.72
-53.37
-50.66
-49.69
-51.02
-55.57
-61.78
-69.78
-78.73
-86.83
-92.95
-96.24
-97.26
-96.67
-94.78
-91.86
-88.45
-83.89
-76.47
-65.05
-48.44
-27.09
-2.06
25.70
55.61
85.94
113.72
137.12
155.80
171.39
184.37
194.33
200.76
203.14
200.39
191.24
179.14
161.26
137.33
109.21
80.64
55.78
37.37
25.57
18.67
14.64
10.84
6.79
2.47
-1.79
-5.71
-9.42
-13.74
-19.18
-24.81
-30.14
-34.52
-37.98
-41.11
-44.84
-49.92
-57.14
-66.18
-74.25
-79.29
-80.21
-76.83
-69.83
-60.39
-49.78
-40.11
-32.61
-25.30
-16.90
-7.44
2.73
12.82
21.79
28.67
31.37
28.80
23.71
17.90
11.20
3.32
-6.06
-17.06
-19.61
-8.05
1.73
3.71
1.83
-3.07
-10.13
-18.19
-25.89
-31.98
-37.29
-42.90
-46.95
-48.66
-48.70
-47.17
-44.11
-40.06
-36.39
-36.20
-42.11
-53.22
-68.08
-85.32
-102.84
-118.54
-130.77
-138.33
-141.17
-139.50
-132.59
-121.01
-106.52
-90.94
-75.86
-62.28
-50.40
-40.23
-31.57
-23.80
-16.76
-10.21
-3.83
2.36
7.93
12.41
15.52
17.30
18.00
18.10
18.91
21.52
26.01
31.26
35.93
39.30
41.32
42.09
42.63
45.51
53.22
66.91
85.87
108.45
133.17
158.85
184.15
199.84
198.41
179.33
149.61
117.17
86.37
58.77
37.73
21.00
7.57
-1.79
-6.39
-6.81
-4.84
-3.62
-4.59
-8.04
-14.00
-21.29
-27.61
-30.79
-29.83
-25.26
-18.47
-10.77
-3.42
2.19
5.58
7.38
8.50
9.55
10.55
11.31
11.98
12.73
13.45
14.26
15.38
16.80
18.16
18.78
18.07
15.90
12.26
7.18
1.16
-5.01
-10.50
-14.61
-17.11
-18.00
-17.38
-15.86
-14.28
-13.10
-12.30
-11.63
-10.56
-8.91
-6.66
-3.86
-1.30
0.03
-0.29
-2.02
-4.70
-7.65
-10.83
-14.28
-17.95
-22.52
-29.04
-37.98
-49.19
-62.32
-76.54
-91.56
-107.00
-117.42
-118.82
-112.16
-102.51
-94.97
-94.93
-100.49
-109.11
-118.83
-128.56
-135.62
-138.83
-137.12
-129.58
-115.95
-96.37
-71.62
-43.23
-12.96
17.08
45.00
70.15
93.18
115.59
139.58
167.47
199.72
234.74
269.23
299.22
321.55
334.53
337.91
332.65
320.90
303.25
279.02
247.40
208.62
164.47
117.71
71.00
18.91
-35.30
-84.15
-121.74
-146.72
-160.67
-165.70
-163.95
-157.71
-149.38
-139.63
-129.13
-118.27
-106.80
-94.36
-81.12
-68.29
-58.27
-52.04
-48.78
-47.78
-48.58
-50.84
-54.53
-59.58
-66.11
-72.15
-77.30
-80.62
-81.56
-79.99
-76.05
-70.17
-62.62
-55.19
-47.64
-40.09
-32.04
-22.89
-11.77
2.25
19.53
40.01
61.78
81.72
96.53
104.52
105.78
101.75
96.10
88.78
79.29
67.12
52.57
36.67
21.47
9.33
2.07
0.37
3.44
10.16
19.23
29.63
40.05
49.36
56.59
61.02
62.33
60.34
55.51
48.37
39.45
29.03
17.40
4.82
-8.35
-21.72
-35.00
-47.72
-59.40
-69.53
-77.70
-83.69
-87.77
-90.67
-93.33
-96.47
-100.17
-103.87
-106.54
-107.12
-104.78
-99.58
-92.26
-83.60
-73.95
-63.40
-52.23
-41.18
-31.68
-25.04
-22.59
-24.78
-30.85
-39.17
-48.28
-57.29
-65.01
-69.66
-67.62
-55.93
-33.23
-0.31
40.22
84.53
128.98
171.33
209.64
242.48
265.70
273.26
260.09
224.77
170.21
102.79
30.71
-42.44
-105.28
-147.62
-167.94
-172.74
-169.81
-163.80
-158.63
-151.89
-141.94
-126.97
-108.38
-89.59
-73.48
-60.24
-48.82
-37.19
-23.04
-5.61
17.06
44.89
76.02
108.00
139.11
168.34
195.20
219.68
230.19
220.67
193.14
156.74
121.10
91.47
68.68
51.26
37.55
26.04
17.71
13.06
11.15
9.91
7.63
3.96
-0.12
-3.14
-4.45
-3.09
0.37
4.12
5.96
4.62
0.13
-6.66
-14.92
-24.44
-34.14
-43.55
-51.95
-58.57
-62.80
-64.49
-64.36
-63.93
-64.81
-67.32
-70.46
-72.34
-71.11
-65.95
-57.58
-48.06
-39.87
-34.75
-32.85
-32.99
-33.58
-33.54
-32.70
-31.67
-31.22
-31.78
-33.22
-34.99
-35.89
-35.44
-33.62
-30.75
-27.13
-22.81
-17.52
-10.96
-2.97
6.26
16.18
26.25
36.16
45.90
55.72
65.92
76.64
87.71
98.67
108.76
117.21
123.36
126.69
126.88
123.74
117.23
107.43
94.52
78.73
60.41
40.03
18.20
-4.35
-26.64
-47.43
-65.31
-78.84
-87.00
-89.54
-87.10
-81.12
-73.27
-64.87
-56.40
-47.42
-36.93
-23.95
-8.13
10.02
29.28
48.19
65.64
81.12
94.67
106.37
115.86
122.13
123.87
120.15
111.13
98.35
84.28
71.51
61.78
55.53
52.02
49.88
47.77
44.70
40.09
33.63
25.35
15.95
6.92
0.32
-2.36
-1.56
-0.48
-4.46
-18.82
-46.16
-84.55
-127.76
-167.43
-196.35
-210.58
-209.99
-197.21
-175.97
-149.83
-121.87
-94.99
-72.19
-56.30
-48.88
-49.27
-54.51
-60.26
-62.42
-58.40
-47.83
-32.38
-15.29
0.29
12.56
21.46
28.29
34.67
41.42
47.88
51.82
49.53
38.67
20.17
-2.02
-22.94
-38.98
-48.85
-53.33
-54.03
-54.07
-54.94
-55.62
-54.07
-49.55
-43.11
-36.16
-29.09
-20.87
-13.17
-7.20
-2.19
3.82
11.67
19.92
25.85
26.63
20.24
1.80
-31.08
-75.85
-126.85
-178.80
-228.61
-274.27
-313.73
-318.77
-275.27
-196.50
-112.65
-45.13
2.80
38.29
69.21
98.66
123.90
135.02
124.83
95.91
58.44
25.45
7.27
9.02
30.03
65.30
104.45
138.42
163.59
177.36
178.36
165.79
139.71
101.61
54.36
0.25
-56.31
-107.59
-144.23
-158.20
-146.56
-112.94
-66.70
-19.78
16.43
35.64
37.90
27.44
9.41
-12.60
-36.34
-58.97
-75.89
-81.70
-72.31
-47.39
-11.38
27.83
61.47
82.82
88.58
78.38
53.49
16.11
-30.79
-82.72
-133.53
-176.68
-206.97
-222.11
-223.08
-212.80
-194.22
-168.77
-136.31
-96.89
-52.22
-6.05
37.10
73.96
104.26
130.76
157.77
189.38
226.57
266.71
304.91
335.96
355.98
363.33
358.53
343.81
323.23
299.89
275.52
251.23
228.21
207.80
191.15
178.64
169.58
164.11
160.57
156.51
150.46
142.93
135.64
130.12
126.78
124.64
123.70
121.29
113.08
95.65
68.69
34.99
-0.72
-33.58
-74.56
-122.03
-166.59
-199.77
-219.79
-228.99
-230.51
-227.08
-221.73
-216.55
-210.41
-202.93
-194.70
-186.31
-177.09
-166.46
-154.43
-141.51
-128.27
-113.30
-96.32
-78.32
-60.56
-43.74
-28.20
-14.19
-1.95
8.44
18.14
27.59
36.44
44.11
50.34
55.02
58.11
59.66
59.84
59.42
58.64
57.02
53.65
47.83
39.45
29.16
18.05
7.33
-1.81
-8.56
-12.69
-14.65
-15.17
-14.99
-14.63
-14.41
-14.56
-15.05
-15.57
-16.04
-17.13
-19.77
-24.30
-29.80
-34.22
-35.52
-32.33
-24.48
-13.68
-3.11
4.10
6.29
3.72
-2.43
-11.64
-23.98
-39.43
-53.59
-60.70
-57.73
-46.84
-32.73
-19.46
-9.64
-5.48
-4.60
-4.81
-5.18
-5.98
-7.96
-11.65
-14.86
-16.59
-16.11
-12.75
-6.79
0.42
6.96
11.23
12.69
11.87
9.64
7.29
6.15
6.72
8.59
10.86
12.82
14.47
16.39
19.10
23.12
28.80
35.97
43.97
51.85
58.47
62.69
63.50
60.11
52.57
41.98
30.03
18.56
8.86
1.38
-4.17
-8.44
-12.07
-15.31
-18.17
-20.69
-23.22
-26.26
-30.23
-35.20
-40.68
-45.91
-50.09
-52.77
-53.99
-54.14
-53.70
-52.88
-51.55
-49.30
-45.72
-40.64
-34.30
-27.23
-20.11
-13.49
-7.74
-3.03
0.66
3.39
5.27
6.41
6.87
6.67
5.76
4.10
1.75
-1.08
-4.03
-6.71
-8.80
-10.15
-10.85
-11.06
-10.98
-10.74
-10.38
-9.89
-9.30
-8.72
-8.23
-7.94
-7.83
-7.81
-7.74
-7.45
-6.78
-5.56
-3.57
-0.59
3.51
8.70
14.69
20.99
26.99
32.15
36.03
38.34
38.92
37.71
34.71
30.01
23.77
16.25
7.79
-1.15
-10.07
-18.44
-25.78
-31.73
-36.08
-38.73
-39.65
-38.79
-36.21
-32.05
-26.69
-20.61
-14.44
-8.72
-3.90
-0.25
2.05
2.87
2.13
-0.18
-3.92
-8.68
-13.80
-18.38
-21.44
-22.15
-20.10
-15.39
-8.71
-1.10
6.25
12.41
16.79
19.21
19.79
18.76
16.44
13.23
9.63
6.18
3.30
1.14
-0.51
-2.07
-3.89
-5.98
-7.94
-9.09
-8.86
-7.10
-4.18
-0.90
1.87
3.47
3.67
2.63
0.86
-1.05
-2.52
-3.16
-2.83
-1.65
0.03
1.84
3.49
4.90
6.23
7.72
9.57
11.82
14.33
16.83
19.02
20.59
21.30
20.97
19.47
16.84
13.29
9.18
4.88
0.66
-3.45
-7.59
-11.97
-16.70
-21.64
-26.37
-30.37
-33.24
-34.95
-35.99
-37.20
-39.44
-43.20
-48.26
-53.72
-58.38
-61.12
-61.24
-58.47
-52.78
-44.27
-33.23
-20.36
-6.95
5.29
14.65
20.05
21.35
19.37
15.43
10.86
6.75
3.94
3.20
5.20
10.31
18.31
28.25
38.75
48.58
57.24
65.19
73.41
82.70
92.80
102.03
107.49
105.91
94.81
73.50
43.47
8.08
-28.43
-62.09
-90.07
-110.94
-124.36
-130.52
-129.77
-122.62
-110.04
-93.59
-75.30
-57.13
-40.50
-25.98
-13.40
-2.29
7.89
17.98
29.41
43.80
62.36
85.05
110.10
134.36
154.05
165.79
167.61
159.27
141.93
117.78
89.80
61.42
36.29
17.26
5.14
-1.34
-5.02
-9.51
-17.64
-30.26
-46.02
-61.58
-73.51
-80.43
-82.16
-79.07
-72.08
-62.23
-50.47
-37.71
-23.76
-8.29
7.20
22.09
36.98
51.54
64.13
72.16
73.14
67.62
57.93
44.33
28.36
12.92
-0.71
-12.74
-24.11
-35.55
-44.82
-49.02
-49.67
-47.43
-40.62
-28.10
-8.94
17.72
38.64
43.77
52.79
73.47
97.83
122.91
147.17
169.86
189.92
205.24
214.86
217.51
208.38
185.98
153.90
116.90
79.56
45.19
15.40
-7.90
-23.75
-35.21
-44.48
-51.41
-55.87
-57.80
-57.51
-55.83
-52.88
-48.91
-45.96
-44.76
-44.09
-42.73
-40.02
-36.17
-31.92
-27.47
-22.39
-16.72
-10.10
-2.13
6.41
13.70
17.61
16.65
10.83
1.54
-9.33
-19.74
-28.05
-33.70
-37.01
-38.73
-39.48
-39.41
-38.38
-36.34
-33.88
-32.31
-33.29
-38.10
-46.94
-58.67
-71.16
-82.14
-90.02
-94.35
-95.65
-94.84
-92.62
-89.25
-84.70
-79.00
-72.44
-65.59
-59.01
-52.98
-47.43
-42.03
-36.53
-31.02
-25.94
-21.95
-19.53
-18.79
-19.34
-20.55
-21.73
-22.42
-22.37
-21.54
-20.00
-17.86
-15.17
-11.89
-7.96
-3.29
2.06
7.90
13.86
19.49
24.40
28.41
31.60
34.22
36.56
38.73
40.67
42.18
43.11
43.49
43.60
43.88
44.80
46.65
49.39
52.69
56.11
59.29
62.15
64.80
67.21
69.01
69.40
67.44
62.48
54.38
43.38
29.76
13.57
-5.30
-26.64
-49.46
-71.83
-91.37
-106.09
-115.14
-119.03
-119.25
-117.43
-114.75
-111.70
-108.21
-104.01
-98.94
-92.88
-85.81
-77.71
-68.52
-58.19
-46.74
-34.33
-21.20
-7.75
5.48
17.87
28.85
38.03
45.34
51.02
55.50
59.14
62.01
63.82
64.00
61.96
57.43
50.67
42.47
33.96
26.27
20.25
16.32
14.57
14.85
16.94
20.59
25.44
31.07
36.99
42.76
48.01
52.42
55.68
57.40
57.14
54.49
49.30
41.75
32.44
22.30
12.25
2.94
-5.40
-12.95
-20.07
-27.04
-33.92
-40.68
-47.28
-53.82
-60.41
-66.99
-73.16
-78.33
-81.98
-84.04
-85.00
-85.60
-86.39
-87.28
-87.40
-85.51
-80.55
-72.07
-60.46
-46.73
-32.09
-17.60
-3.97
8.29
18.82
27.23
33.16
36.40
36.74
34.28
29.42
22.76
14.89
6.38
-2.07
-9.67
-15.66
-19.80
-22.40
-24.21
-26.01
-28.36
-31.23
-34.00
-35.87
-36.14
-35.18
-33.80
-32.84
-32.67
-33.34
-34.48
-35.24
-34.46
-30.56
-23.22
-12.04
4.02
26.12
54.10
86.16
119.53
150.65
177.22
195.97
206.06
209.90
212.20
216.73
225.61
239.81
258.21
278.91
293.79
293.87
273.22
231.36
171.23
98.94
22.49
-52.42
-121.87
-190.54
-263.87
-342.78
-421.94
-495.64
-559.98
-614.11
-661.51
-666.48
-605.50
-485.03
-336.58
-188.64
-57.10
47.41
132.12
198.92
249.19
281.48
298.89
302.77
301.65
292.34
274.75
252.81
230.02
208.26
183.00
150.08
110.12
69.57
34.70
10.10
-3.63
-11.46
-19.44
-33.18
-54.02
-78.28
-98.26
-107.33
-100.85
-77.63
-37.46
10.71
53.31
78.82
82.40
67.87
44.65
24.17
14.91
18.49
30.26
42.44
48.91
46.99
37.68
23.96
9.44
-2.67
-10.42
-11.54
-5.60
5.87
19.65
32.64
41.93
44.67
39.07
24.49
1.54
-27.39
-58.08
-85.85
-107.21
-117.21
-113.84
-97.84
-72.58
-43.19
-14.82
9.22
27.62
40.72
49.12
53.52
56.49
60.94
67.91
76.02
83.42
90.33
95.97
100.17
102.79
103.71
102.72
99.85
93.48
84.37
73.58
60.99
45.36
24.74
-1.86
-33.14
-65.29
-93.18
-111.82
-118.80
-115.56
-106.33
-96.64
-91.17
-92.40
-101.26
-117.61
-139.88
-164.95
-188.05
-203.28
-205.54
-192.11
-163.69
-125.61
-86.45
-54.61
-35.04
-27.66
-27.87
-29.13
-25.06
-11.00
13.72
45.88
80.59
113.57
142.44
166.76
186.86
196.47
191.95
175.84
154.34
131.81
109.50
87.61
69.31
54.60
44.15
38.65
36.67
34.73
29.00
17.16
-1.11
-24.45
-51.02
-75.76
-92.33
-97.98
-95.19
-88.67
-81.65
-75.52
-70.54
-66.78
-63.46
-59.45
-54.18
-47.83
-42.18
-36.53
-30.42
-23.47
-15.57
-6.30
4.40
15.46
25.03
31.46
34.21
33.39
29.87
23.83
16.37
9.07
3.09
-0.72
-1.28
2.88
12.60
27.32
44.12
59.05
70.01
76.84
80.16
80.42
77.80
71.98
63.16
54.36
46.53
41.09
38.39
37.58
37.18
35.93
32.62
26.76
18.88
8.93
-1.92
-12.70
-22.80
-31.92
-38.26
-41.32
-43.18
-46.79
-53.29
-60.54
-65.28
-65.33
-60.78
-53.83
-48.10
-46.14
-48.03
-51.87
-54.56
-53.82
-49.22
-43.33
-37.76
-33.98
-31.63
-28.34
-21.36
-8.69
9.48
30.54
50.29
64.44
69.02
63.65
52.08
39.64
31.53
31.43
38.72
50.04
60.16
63.67
57.46
41.92
19.66
-4.90
-27.10
-41.36
-42.61
-31.61
-15.20
-3.59
0.23
-3.51
-12.33
-22.97
-31.72
-35.69
-33.93
-27.19
-17.00
-4.64
8.51
22.10
36.65
52.64
69.21
83.74
93.15
95.58
91.44
82.47
71.33
60.50
51.40
43.91
36.77
28.68
18.95
7.84
-3.99
-15.17
-23.77
-27.80
-26.16
-19.37
-9.24
2.15
13.71
25.81
40.09
58.58
82.39
110.99
142.39
174.03
203.56
229.08
248.55
259.52
259.42
246.34
219.90
181.68
135.08
84.23
33.08
-15.76
-61.60
-105.29
-148.77
-194.58
-245.50
-303.63
-369.08
-438.68
-505.51
-560.48
-594.21
-600.06
-576.44
-527.25
-460.08
-383.51
-304.78
-228.91
-159.87
-99.87
-49.69
-8.81
24.28
52.04
77.53
103.81
133.18
165.13
197.97
228.29
250.79
258.95
247.36
214.18
162.68
100.42
35.14
-24.95
-73.56
-107.72
-127.84
-136.44
-137.05
-133.12
-115.90
-84.65
-46.19
-10.80
14.61
29.06
35.27
36.50
37.40
40.89
46.25
53.07
60.66
68.06
74.31
80.61
89.22
102.64
121.73
143.20
162.88
175.54
176.09
163.77
142.60
117.92
94.36
74.25
49.78
20.08
-4.64
-22.97
-36.24
-42.20
-39.35
-27.67
-8.86
13.93
38.33
61.44
79.54
91.41
98.95
103.68
106.05
105.33
100.47
92.01
80.79
67.18
45.51
16.35
-15.08
-41.86
-59.52
-67.14
-66.29
-61.04
-56.80
-56.35
-58.20
-59.13
-55.75
-46.08
-30.28
-10.38
9.09
22.90
27.14
21.09
5.97
-15.24
-38.17
-57.85
-70.01
-72.87
-67.66
-57.95
-47.51
-39.28
-34.14
-30.81
-27.15
-21.88
-15.45
-9.59
-6.27
-6.40
-9.86
-15.60
-21.77
-26.51
-28.34
-26.29
-19.86
-9.33
4.29
19.40
34.45
48.85
62.25
74.14
83.68
90.02
92.57
91.38
87.25
81.71
77.00
74.22
72.89
71.53
68.62
63.26
55.38
45.42
30.79
13.04
-3.56
-16.04
-25.45
-35.17
-47.85
-63.23
-78.60
-90.11
-94.42
-91.32
-83.52
-74.51
-66.12
-59.18
-51.10
-40.35
-27.36
-13.79
-2.18
5.42
8.66
8.83
7.82
6.99
6.37
5.35
3.39
0.07
-4.61
-10.18
-15.94
-21.38
-26.40
-31.55
-37.42
-44.11
-51.29
-58.27
-63.80
-66.78
-66.66
-63.70
-58.80
-52.80
-46.04
-38.44
-29.89
-19.94
-8.81
2.61
12.74
20.04
23.84
24.68
23.93
23.18
24.44
28.81
36.69
47.53
60.55
75.15
91.17
108.61
122.00
126.72
121.83
111.98
102.91
97.61
95.05
92.20
86.14
75.47
63.99
52.88
43.61
36.68
31.64
26.76
20.51
12.26
2.22
-8.49
-19.17
-28.68
-36.50
-42.59
-48.50
-56.04
-66.68
-81.15
-98.76
-117.96
-136.02
-150.49
-153.11
-140.19
-114.48
-83.38
-53.90
-29.73
-12.31
-1.89
1.64
-0.48
-6.55
-13.24
-16.67
-14.28
-6.38
3.84
12.50
16.83
17.59
16.39
15.31
15.60
16.82
16.76
12.66
3.27
-10.09
-23.45
-32.76
-35.47
-31.78
-24.42
-17.36
-13.99
-14.95
-19.06
-23.70
-25.54
-21.87
-12.20
1.66
16.76
30.56
41.90
50.78
58.18
64.72
70.02
72.92
72.33
67.95
60.62
52.98
45.74
39.38
33.77
28.30
22.44
16.18
10.20
5.42
2.54
1.48
1.77
2.50
2.57
1.06
-2.48
-7.92
-14.73
-21.90
-28.69
-34.61
-39.56
-43.70
-47.16
-49.81
-51.39
-51.65
-50.61
-48.57
-45.71
-41.93
-36.86
-30.05
-21.27
-10.71
0.94
12.69
23.39
32.13
38.35
41.86
42.82
41.65
38.96
35.48
31.97
29.06
27.24
26.66
27.17
28.31
29.61
30.72
31.62
32.60
34.03
36.12
38.58
40.66
41.29
39.53
34.88
27.44
17.82
6.89
-4.61
-16.40
-28.80
-42.72
-59.33
-79.63
-104.05
-132.03
-161.80
-190.26
-213.48
-227.52
-229.41
-217.92
-194.03
-160.63
-121.68
-81.15
-41.80
-5.16
28.12
57.69
83.16
104.00
119.60
129.78
134.79
135.80
134.03
130.10
123.79
114.48
101.72
85.53
67.24
48.95
33.94
24.97
23.19
27.94
37.28
48.81
59.73
68.17
72.96
74.99
75.82
76.84
79.01
82.96
89.13
97.07
106.52
109.28
99.62
77.61
49.93
24.91
7.62
0.79
-0.81
-2.42
-8.24
-19.49
-35.56
-56.04
-79.25
-101.33
-115.98
-119.18
-111.42
-97.93
-83.78
-72.02
-63.45
-57.27
-52.17
-47.30
-44.08
-42.29
-41.23
-39.04
-33.82
-24.74
-12.41
1.33
13.90
22.66
26.66
26.61
24.95
24.79
28.53
37.07
49.44
63.10
75.01
83.35
87.71
89.08
89.02
88.85
89.41
91.07
93.15
94.65
94.86
93.18
89.24
82.80
74.02
63.50
52.02
38.72
22.61
3.49
-17.63
-38.80
-57.79
-72.69
-82.37
-86.83
-89.18
-92.41
-97.42
-102.88
-106.50
-106.93
-104.75
-102.42
-103.26
-112.80
-133.88
-164.63
-199.86
-233.95
-263.95
-290.24
-314.99
-321.89
-299.99
-249.55
-183.15
-117.16
-62.56
-22.97
4.18
25.05
46.00
67.62
85.68
97.92
103.34
103.59
102.02
102.43
107.66
118.60
131.10
140.82
145.55
145.10
141.66
138.06
137.03
140.63
149.52
161.14
171.61
179.17
180.14
172.85
157.53
136.37
112.74
89.91
69.50
52.08
37.71
24.94
12.93
0.91
-11.55
-23.47
-34.31
-44.27
-53.58
-62.11
-70.82
-79.91
-89.90
-101.50
-115.84
-134.56
-159.77
-193.20
-227.03
-253.46
-266.82
-267.11
-257.72
-242.13
-222.29
-199.48
-174.37
-146.67
-120.30
-92.07
-59.37
-21.20
21.55
67.01
111.65
151.35
182.59
203.48
210.99
205.86
192.61
172.26
150.01
131.24
118.61
110.85
104.81
98.46
91.60
85.25
80.50
78.34
78.17
80.67
82.58
80.88
73.60
59.92
40.23
16.37
-8.33
-30.97
-49.99
-65.68
-78.97
-90.52
-100.31
-107.88
-112.33
-112.27
-107.14
-97.65
-85.83
-73.77
-63.21
-55.12
-49.75
-46.35
-43.13
-38.02
-29.33
-16.46
0.34
19.73
39.69
57.75
72.29
83.21
91.76
99.60
107.69
116.12
124.18
130.92
135.31
137.39
138.15
139.15
141.30
144.29
146.87
147.55
144.95
137.19
122.65
99.96
68.64
28.93
-18.00
-70.03
-123.60
-170.65
-204.82
-225.32
-235.91
-239.52
-236.39
-225.09
-204.56
-175.22
-138.96
-101.54
-63.70
-25.87
10.91
43.65
67.78
79.24
76.68
62.29
40.03
14.47
-11.33
-34.08
-51.93
-64.30
-70.61
-69.51
-57.62
-34.24
-2.64
31.29
61.64
84.47
98.21
103.61
102.75
98.29
94.85
92.90
92.86
94.89
97.98
99.55
96.53
86.40
68.29
42.47
7.92
-33.40
-78.04
-119.56
-151.79
-170.86
-175.80
-167.18
-146.87
-118.26
-85.30
-52.27
-22.82
-0.09
16.10
26.49
32.68
36.50
39.58
43.21
48.22
55.13
63.71
73.52
81.49
84.43
79.08
63.11
35.93
-0.28
-40.83
-80.57
-114.91
-141.65
-160.21
-170.65
-167.82
-148.13
-112.40
-66.80
-20.44
19.79
50.58
72.44
87.90
99.11
105.50
104.65
97.07
80.84
56.89
28.41
-0.17
-24.82
-43.08
-55.08
-62.39
-66.75
-69.73
-71.53
-72.06
-71.49
-70.30
-69.04
-68.51
-69.06
-70.38
-72.00
-72.96
-72.60
-70.68
-67.29
-62.68
-57.30
-51.42
-45.02
-37.89
-29.32
-18.69
-5.72
9.38
26.00
43.20
60.16
76.37
91.56
105.68
118.50
129.57
138.38
144.70
148.61
150.55
151.09
150.67
149.50
147.51
144.45
140.06
134.33
127.11
118.37
108.25
97.29
86.31
76.22
67.85
61.55
57.48
55.02
53.52
52.38
51.52
50.98
50.67
50.14
48.49
44.95
38.34
27.98
13.42
-4.84
-25.18
-44.99
-61.23
-73.96
-81.61
-84.64
-86.04
-90.63
-101.22
-117.58
-137.56
-158.05
-176.46
-190.97
-201.78
-205.37
-200.39
-186.57
-164.37
-134.56
-98.13
-56.55
-11.35
34.72
79.34
118.82
149.05
166.37
168.62
155.43
128.24
90.56
41.46
-11.30
-56.22
-85.46
-98.72
-100.21
-94.54
-86.65
-76.53
-63.81
-47.82
-29.19
-9.47
9.84
28.03
45.13
61.76
78.95
96.83
111.39
118.60
116.66
106.46
91.16
74.21
58.29
45.26
35.59
29.17
25.34
23.75
21.82
17.80
11.14
2.21
-7.98
-18.59
-28.79
-37.84
-43.01
-43.82
-41.78
-39.50
-38.94
-40.14
-41.24
-39.39
-33.81
-23.27
-9.29
5.33
17.77
26.19
29.97
29.20
24.22
15.47
4.40
-7.89
-20.35
-32.53
-44.87
-58.51
-74.31
-91.99
-109.77
-125.01
-136.16
-142.78
-145.17
-143.30
-136.17
-122.30
-101.22
-74.57
-45.80
-19.14
2.73
19.81
34.40
49.40
66.46
85.10
103.37
119.28
131.74
141.54
150.71
161.21
173.44
185.69
194.52
196.14
187.89
168.95
140.54
105.00
64.86
22.20
-20.73
-60.80
-93.95
-116.05
-124.46
-119.06
-102.74
-80.89
-60.53
-47.29
-43.82
-49.32
-60.34
-72.34
-80.70
-81.94
-74.04
-57.65
-33.79
-3.57
30.84
65.48
94.28
111.94
115.91
107.12
87.33
60.58
32.18
6.78
-12.78
-26.89
-37.68
-49.07
-66.33
-96.73
-142.44
-197.62
-250.24
-286.86
-299.33
-286.19
-253.04
-194.43
-118.62
-43.68
14.61
50.06
74.78
97.87
122.89
148.64
171.07
183.54
182.57
169.29
147.73
122.46
95.81
70.00
48.03
33.35
26.53
26.72
31.41
36.77
39.36
37.03
30.74
23.51
17.84
12.80
5.91
-4.92
-20.17
-38.64
-55.25
-65.06
-65.92
-60.22
-52.83
-46.78
-42.14
-37.73
-32.84
-28.34
-26.33
-29.01
-37.55
-51.61
-69.09
-86.47
-99.49
-104.07
-97.58
-80.20
-55.26
-28.24
-5.05
9.92
14.84
10.59
0.03
-13.13
-25.67
-34.99
-38.75
-34.96
-22.44
-1.41
26.00
56.15
84.29
105.44
115.43
112.38
97.40
74.66
50.42
31.17
21.98
24.78
37.92
55.66
71.55
80.58
81.02
74.47
64.00
52.62
42.00
32.51
24.05
17.06
12.56
11.54
14.62
20.07
25.34
28.02
26.75
21.70
14.64
7.86
3.09
0.72
-0.13
-0.62
-1.72
-3.78
-6.50
-9.02
-10.37
-10.02
-8.18
-5.72
-3.44
-1.95
-1.45
-1.89
-2.99
-4.48
-6.30
-9.18
-14.58
-23.84
-37.94
-57.17
-81.21
-109.27
-136.49
-156.87
-166.73
-166.76
-160.20
-149.78
-135.99
-117.57
-92.81
-63.08
-26.58
16.47
62.55
106.05
140.70
161.54
166.12
155.31
128.86
87.83
40.97
0.41
-24.18
-30.37
-22.61
-8.62
4.88
14.38
20.38
25.53
31.28
38.56
45.96
52.45
57.98
63.17
68.84
72.91
75.80
77.11
75.86
71.27
63.78
54.83
46.32
39.62
35.47
34.00
34.34
33.90
31.13
26.13
20.15
14.74
10.95
9.10
9.19
9.92
9.68
7.41
2.90
-3.35
-10.49
-17.76
-24.95
-30.18
-33.07
-34.09
-33.95
-33.35
-32.80
-32.55
-32.59
-32.74
-32.59
-32.14
-31.56
-31.08
-31.09
-31.89
-33.58
-36.00
-38.65
-40.89
-42.35
-42.81
-42.14
-40.37
-37.64
-34.25
-30.61
-27.21
-24.45
-22.71
-22.04
-22.13
-22.38
-22.11
-20.77
-18.19
-14.59
-10.52
-6.72
-3.77
-1.89
-0.94
-0.52
-0.16
0.53
1.77
3.59
5.82
8.17
10.34
12.00
12.96
13.16
12.70
11.79
10.62
9.36
8.10
6.88
5.69
4.50
3.26
1.94
0.52
-0.85
-1.94
-2.39
-1.82
-0.01
2.99
6.86
10.99
14.74
17.58
19.31
20.08
20.30
20.40
20.74
21.40
22.25
23.04
23.55
23.64
23.34
22.77
22.06
21.40
20.94
20.90
21.45
22.75
24.80
27.42
30.26
32.89
34.89
35.88
35.62
34.05
31.34
28.02
24.82
22.55
21.69
22.27
23.76
25.33
26.15
25.63
23.76
20.77
16.98
12.61
7.74
2.18
-4.77
-14.30
-27.67
-45.34
-66.63
-89.56
-111.36
-129.18
-141.16
-147.03
-148.15
-146.84
-145.18
-144.95
-147.36
-152.63
-159.53
-165.55
-167.71
-163.90
-154.00
-139.15
-122.90
-110.30
-105.47
-109.02
-117.46
-125.05
-126.53
-119.51
-102.88
-79.80
-57.19
-42.92
-41.97
-54.96
-78.90
-108.65
-137.96
-156.43
-156.24
-135.33
-96.93
-46.06
12.62
75.03
137.79
198.94
263.27
334.29
410.31
484.97
551.22
603.42
637.28
649.84
607.74
500.20
349.74
197.12
71.13
-20.65
-83.10
-124.10
-151.34
-168.75
-171.94
-158.51
-132.24
-101.66
-73.97
-51.99
-34.85
-21.87
-13.37
-6.07
2.00
9.76
13.83
12.31
6.07
-2.47
-11.19
-18.82
-22.21
-21.23
-18.49
-18.43
-23.70
-34.08
-47.27
-60.23
-69.65
-71.35
-62.66
-40.54
-6.11
37.00
83.30
125.97
158.17
174.76
174.11
157.64
128.96
92.13
51.29
10.07
-28.52
-61.76
-86.87
-101.19
-103.23
-93.60
-76.06
-56.41
-40.72
-33.22
-34.83
-43.08
-53.39
-60.82
-61.28
-52.15
-31.83
0.25
42.98
92.78
143.44
187.01
215.91
225.18
213.71
184.39
142.62
94.48
45.13
-1.99
-44.98
-82.96
-115.53
-142.52
-163.97
-180.24
-192.11
-200.61
-206.80
-211.31
-214.15
-214.71
-212.31
-206.72
-198.41
-188.58
-178.68
-170.01
-163.07
-157.31
-151.19
-142.58
-129.32
-109.77
-83.39
-51.04
-15.49
19.38
49.48
71.56
84.08
87.75
85.48
81.40
79.33
80.76
84.90
89.50
92.14
91.16
86.05
77.35
65.98
52.68
36.78
17.93
-2.88
-23.22
-40.22
-51.92
-57.71
-58.25
-54.80
-49.90
-45.73
-43.58
-43.95
-47.03
-52.73
-60.04
-66.82
-62.85
-42.80
-10.01
24.67
51.03
65.15
69.04
67.62
65.44
64.81
63.80
60.22
53.31
44.61
36.70
31.57
29.85
30.88
33.14
34.01
32.18
27.67
22.00
17.07
14.08
13.19
13.75
14.64
14.25
11.65
6.92
1.22
-3.99
-7.56
-8.89
-7.92
-4.98
-0.89
3.62
8.03
12.24
16.28
20.13
23.63
26.61
28.94
30.49
31.23
31.19
30.51
29.36
27.91
26.37
24.99
23.94
23.24
22.70
21.96
20.72
18.87
16.56
14.09
11.68
9.34
6.83
3.87
0.31
-3.78
-8.11
-12.45
-16.75
-21.19
-25.96
-31.00
-35.80
-39.55
-41.38
-40.83
-38.01
-33.55
-28.26
-22.79
-17.54
-12.59
-7.99
-3.85
-0.39
2.18
3.73
4.35
4.23
3.58
2.59
1.40
0.20
-0.79
-1.29
-1.13
-0.21
1.40
3.51
5.89
8.31
10.59
12.59
14.25
15.63
16.86
18.05
19.18
20.10
20.57
20.36
19.33
17.67
15.88
14.65
14.62
16.14
19.38
24.25
30.46
37.52
44.88
52.06
58.63
64.14
68.04
70.11
70.44
69.15
66.40
62.47
57.75
52.50
46.60
39.32
30.19
19.13
6.29
-7.73
-21.74
-34.15
-43.54
-49.33
-52.15
-52.56
-50.86
-46.39
-39.04
-29.86
-20.75
-13.65
-8.70
-5.84
-4.38
-3.92
-5.65
-11.88
-24.80
-45.24
-70.47
-94.12
-113.72
-127.74
-132.62
-127.75
-114.91
-96.86
-76.74
-57.70
-43.01
-36.00
-38.21
-49.10
-66.27
-84.96
-98.32
-100.12
-87.41
-62.19
-30.79
-0.33
23.75
38.94
46.33
50.34
55.73
65.47
79.81
97.20
116.36
136.81
158.16
173.29
175.63
162.47
136.92
105.23
72.98
44.00
20.33
2.53
-9.71
-16.45
-18.34
-16.95
-14.67
-13.88
-15.81
-19.65
-25.09
-31.39
-37.09
-41.07
-42.98
-43.36
-43.10
-42.75
-42.42
-42.05
-41.32
-39.47
-35.97
-30.74
-24.17
-17.96
-13.11
-9.95
-8.33
-7.57
-6.66
-4.81
-1.74
2.32
6.84
11.51
16.19
20.89
25.77
31.03
36.86
43.26
50.08
56.95
63.49
69.17
73.44
75.89
76.36
74.95
71.95
67.65
62.26
55.99
49.03
41.71
34.48
27.82
22.04
17.18
13.03
9.32
5.87
2.65
-0.34
-3.21
-6.29
-9.99
-14.65
-20.29
-26.58
-32.94
-38.76
-43.68
-47.52
-50.32
-52.07
-52.70
-52.18
-50.62
-48.50
-46.53
-45.52
-46.08
-48.52
-52.72
-58.31
-64.67
-71.08
-76.66
-80.52
-81.92
-80.70
-77.46
-73.48
-70.38
-69.54
-71.61
-76.42
-83.12
-90.56
-97.73
-103.84
-108.13
-109.72
-107.62
-100.92
-89.18
-72.67
-52.26
-29.50
-6.11
16.52
37.59
56.88
74.50
90.68
105.67
119.93
133.47
146.04
157.29
166.95
174.67
180.06
182.80
182.79
180.74
177.11
172.28
166.83
161.36
156.24
151.39
146.28
140.09
132.52
122.64
109.49
92.77
73.03
51.44
29.46
8.46
-13.75
-35.01
-52.05
-63.42
-69.99
-73.40
-74.46
-73.11
-69.11
-64.49
-59.26
-53.97
-49.15
-44.44
-39.38
-33.51
-26.68
-19.54
-11.96
-4.43
2.00
6.55
9.92
12.40
14.35
16.31
18.32
19.00
17.18
12.12
4.09
-4.54
-12.71
-19.81
-25.24
-29.15
-33.31
-39.34
-48.11
-59.51
-71.48
-84.25
-98.90
-116.07
-125.68
-120.72
-100.97
-73.11
-55.45
-48.61
-50.20
-58.92
-68.43
-76.16
-82.50
-88.72
-95.55
-102.52
-106.81
-107.60
-105.55
-100.92
-94.30
-87.08
-80.79
-76.29
-73.59
-71.08
-68.74
-68.08
-69.65
-73.09
-77.31
-80.78
-81.30
-76.65
-64.48
-38.16
2.10
50.01
96.61
135.50
164.20
183.05
192.84
194.65
189.19
176.50
158.11
136.79
117.56
101.73
90.18
83.16
80.44
81.13
82.77
83.07
80.51
74.69
65.64
54.11
40.84
25.83
9.95
-6.48
-22.95
-38.46
-51.50
-60.99
-66.21
-67.43
-65.70
-62.31
-58.81
-56.27
-55.16
-55.04
-55.68
-57.14
-60.02
-64.91
-71.83
-80.39
-89.70
-98.71
-105.23
-107.47
-104.46
-96.52
-84.70
-70.23
-54.42
-38.60
-24.38
-11.35
1.07
12.97
23.80
33.04
40.82
47.76
54.42
60.60
68.21
78.80
92.66
108.93
126.83
146.81
170.43
199.62
224.58
237.25
234.19
218.00
193.03
161.43
123.86
81.57
41.25
3.27
-28.33
-49.25
-58.02
-56.27
-47.82
-36.64
-26.37
-21.29
-26.28
-41.30
-62.42
-84.27
-101.69
-111.82
-113.68
-108.67
-99.63
-89.67
-80.32
-68.96
-54.19
-36.14
-17.35
-0.41
12.12
18.02
15.45
4.40
-14.44
-41.37
-75.08
-113.85
-150.36
-175.32
-182.50
-172.07
-148.46
-117.20
-86.81
-58.13
-31.90
-7.53
15.82
39.52
64.16
90.77
120.95
155.42
193.97
226.87
244.48
241.39
219.52
186.06
149.07
114.56
85.20
61.44
41.52
24.74
10.84
-0.50
-9.74
-18.86
-28.93
-39.93
-50.79
-60.72
-68.32
-72.88
-74.84
-75.66
-76.99
-79.59
-83.59
-87.12
-89.40
-89.67
-87.62
-83.38
-77.45
-70.53
-62.98
-55.00
-46.97
-39.57
-32.90
-26.75
-20.63
-14.24
-7.58
-1.45
4.78
10.61
15.35
18.72
20.75
22.02
23.10
24.30
26.01
28.52
31.36
33.75
35.00
34.43
31.99
27.74
21.74
14.96
8.68
3.64
0.01
-2.28
-3.88
-4.83
-5.28
-5.56
-5.01
-2.63
1.95
8.61
17.25
27.35
39.43
53.78
64.11
65.32
56.72
41.53
23.51
8.95
-3.34
-13.71
-21.35
-24.91
-23.85
-17.15
-5.47
8.91
23.12
34.06
40.35
41.41
37.11
28.38
16.62
2.92
-11.73
-26.00
-38.66
-47.76
-51.97
-50.99
-45.03
-34.68
-21.02
-5.24
11.68
28.73
45.33
60.66
73.61
83.21
88.73
89.64
85.76
77.46
65.61
51.79
37.66
24.58
13.31
3.96
-3.93
-11.07
-18.03
-25.05
-31.93
-38.38
-44.11
-48.96
-52.91
-56.08
-58.74
-61.26
-63.84
-66.35
-68.26
-68.81
-67.07
-62.36
-54.35
-43.26
-29.81
-14.83
0.86
16.45
31.05
43.83
53.92
60.72
63.94
63.72
60.89
56.72
52.62
49.55
48.11
48.02
48.64
48.86
47.33
43.07
35.61
25.16
12.32
-1.70
-16.08
-28.31
-35.29
-36.04
-32.38
-27.01
-21.16
-16.67
-12.21
-7.22
-2.05
2.04
3.39
2.19
-1.55
-7.07
-13.05
-17.68
-19.88
-19.34
-16.65
-12.92
-9.10
-6.58
-6.10
-7.47
-9.47
-10.77
-10.17
-7.00
-1.10
7.21
15.72
22.15
25.17
25.02
22.54
18.65
13.82
8.26
1.93
-7.27
-21.29
-40.79
-64.63
-91.03
-118.30
-145.10
-170.08
-181.61
-172.39
-144.44
-108.60
-76.40
-54.09
-42.09
-37.05
-33.81
-27.78
-18.41
-7.84
1.05
6.69
8.04
6.89
5.05
4.05
4.49
4.79
3.44
0.60
-1.04
2.92
13.31
27.38
41.06
51.56
56.81
56.81
53.49
49.85
47.36
44.41
36.28
19.77
-4.64
-32.65
-57.31
-72.05
-72.50
-58.54
-34.06
-3.92
28.66
62.82
98.64
135.79
165.96
180.52
176.15
157.08
132.14
108.92
91.01
78.22
68.34
58.77
48.72
40.81
34.46
29.27
25.07
21.67
18.82
16.22
13.50
11.27
10.58
11.99
14.67
18.00
20.95
22.16
20.04
13.15
1.17
-15.21
-34.90
-56.30
-77.61
-97.32
-114.36
-128.01
-137.55
-141.92
-140.04
-131.57
-116.72
-96.31
-71.67
-44.88
-18.19
6.51
28.04
45.79
59.56
69.81
77.60
84.14
89.36
92.07
90.68
84.15
72.46
56.88
39.89
24.63
13.61
6.66
1.30
-5.79
-17.26
-34.56
-57.84
-86.14
-117.68
-143.14
-153.09
-142.70
-113.65
-71.36
-22.58
24.87
62.59
83.40
84.13
66.18
35.40
0.61
-29.37
-49.13
-57.68
-56.98
-49.81
-39.53
-26.88
-13.32
-0.59
9.76
16.14
17.94
16.43
14.22
14.18
17.54
23.13
28.52
31.35
29.32
21.61
10.03
-2.15
-10.92
-14.14
-12.54
-8.55
-3.81
-1.59
-5.45
-16.74
-33.86
-51.60
-62.53
-59.70
-41.30
-8.31
31.94
68.66
93.26
101.36
94.10
76.50
51.63
22.00
-7.37
-34.28
-61.95
-90.57
-118.66
-144.22
-166.16
-184.70
-199.48
-209.97
-211.11
-198.29
-169.47
-128.86
-82.70
-36.33
12.56
66.88
126.10
184.49
230.89
258.17
262.61
245.48
212.52
160.91
98.55
50.52
20.43
0.73
-12.14
-20.58
-25.75
-28.21
-28.56
-26.57
-22.75
-20.57
-22.16
-26.22
-30.64
-33.35
-32.95
-29.02
-21.10
-9.34
3.02
12.02
16.70
17.62
15.74
12.17
7.85
4.00
2.41
2.26
0.01
-5.07
-10.90
-14.53
-12.81
-3.71
12.80
36.30
63.53
87.62
105.98
120.30
132.68
143.94
152.76
142.42
104.75
62.85
26.44
-6.15
-32.57
-51.45
-62.91
-68.12
-68.41
-62.48
-49.51
-33.40
-16.67
-0.04
15.15
27.58
36.46
41.74
45.68
50.04
52.75
52.62
49.67
43.73
35.20
25.26
15.52
8.60
6.14
6.94
10.00
14.41
19.01
23.17
27.10
31.51
37.56
45.71
54.62
62.47
66.45
64.06
54.70
40.28
24.10
9.48
-1.76
-9.81
-16.48
-25.50
-40.19
-61.62
-88.18
-116.95
-145.26
-171.44
-194.22
-204.88
-197.47
-173.67
-142.63
-114.25
-94.15
-83.46
-80.56
-81.71
-83.40
-84.30
-84.33
-83.52
-81.37
-77.17
-70.44
-62.53
-51.89
-37.75
-20.95
-2.44
17.74
40.70
67.66
98.88
130.16
157.63
176.90
183.69
175.78
154.24
123.53
89.71
60.22
36.64
19.95
9.53
3.57
0.18
-1.93
-3.20
-3.75
-3.85
-4.29
-4.87
-5.47
-5.92
-5.87
-5.39
-4.54
-3.65
-3.31
-4.30
-6.59
-10.10
-14.68
-20.08
-25.86
-31.26
-35.34
-37.32
-37.09
-34.95
-31.91
-29.14
-27.35
-26.38
-25.45
-23.88
-21.86
-20.68
-22.03
-27.21
-36.26
-47.82
-59.63
-69.52
-76.30
-80.03
-81.53
-81.51
-79.99
-76.19
-69.08
-58.00
-43.25
-26.09
-8.23
8.84
24.35
38.24
50.74
61.86
71.13
77.70
80.87
80.47
77.07
71.74
65.81
60.47
56.78
55.64
57.75
63.39
72.10
82.57
92.81
100.77
104.91
104.58
99.95
91.53
79.76
64.73
46.42
25.07
1.66
-21.97
-43.45
-60.42
-71.26
-75.39
-73.19
-65.57
-53.51
-37.88
-19.70
-0.48
17.64
32.16
41.07
43.66
40.92
35.18
29.10
24.60
22.28
21.48
21.14
20.50
19.58
18.94
19.11
20.03
20.96
20.83
18.84
14.90
9.73
4.46
0.07
-3.03
-5.12
-6.89
-9.01
-11.76
-14.92
-17.93
-20.20
-21.38
-21.41
-20.42
-18.48
-15.48
-11.20
-5.58
1.06
7.93
13.93
18.00
19.44
18.08
14.30
8.79
2.43
-3.81
-9.09
-12.75
-14.42
-14.12
-12.31
-9.82
-7.58
-6.33
-6.26
-7.00
-7.69
-7.31
-5.22
-1.71
1.80
2.96
-0.70
-10.71
-27.06
-48.00
-70.37
-90.66
-106.22
-116.18
-121.55
-124.62
-127.82
-133.14
-141.36
-151.65
-161.61
-168.32
-169.18
-162.61
-148.40
-127.34
-101.78
-74.82
-48.96
-25.15
-3.36
16.85
35.87
53.84
71.17
87.30
101.07
111.96
120.61
127.80
134.15
140.41
147.38
156.12
165.22
170.81
168.74
156.58
133.69
101.37
62.97
17.48
-28.85
-66.84
-89.06
-95.80
-87.95
-66.41
-33.74
5.87
47.58
88.10
124.79
149.42
156.78
148.03
129.03
106.13
83.17
61.35
41.36
23.14
6.44
-7.90
-18.25
-24.01
-26.10
-26.11
-25.40
-24.42
-23.68
-23.44
-24.00
-24.76
-25.21
-25.32
-25.24
-25.00
-24.27
-23.03
-21.57
-19.98
-17.95
-15.44
-12.70
-9.95
-7.14
-3.97
-0.15
4.42
9.64
15.22
20.57
25.03
28.25
30.37
31.92
33.55
35.68
38.48
41.84
45.52
49.24
52.81
56.19
59.44
62.63
65.84
69.10
72.50
76.12
80.04
84.27
88.72
93.24
97.73
102.26
107.01
112.23
117.95
123.83
128.91
131.86
131.31
126.30
116.55
102.47
84.75
63.99
40.30
13.47
-16.72
-49.95
-84.99
-119.80
-151.87
-178.86
-199.14
-212.11
-218.23
-218.87
-216.13
-212.49
-210.27
-210.99
-214.88
-220.66
-225.86
-227.56
-223.42
-212.60
-196.11
-176.31
-155.96
-137.14
-120.71
-106.23
-92.41
-77.91
-62.13
-45.47
-29.07
-14.20
-1.75
7.92
14.79
19.49
22.95
25.88
28.49
30.61
31.92
32.15
30.77
26.84
20.04
10.41
-2.20
-18.42
-38.76
-62.81
-88.89
-114.87
-138.93
-158.86
-172.92
-180.92
-184.34
-185.28
-185.19
-184.45
-183.21
-181.43
-177.10
-166.72
-146.84
-115.49
-72.32
-18.32
44.74
120.63
201.64
272.97
322.16
345.32
345.00
326.25
294.90
261.61
228.74
197.17
168.67
145.23
127.81
115.85
107.96
102.22
97.58
92.42
85.43
76.76
67.75
59.95
54.16
50.47
48.63
48.21
48.00
46.99
45.11
43.10
41.83
41.72
42.72
44.60
47.07
49.35
50.88
51.59
51.83
52.15
53.06
54.92
57.94
62.03
66.52
70.57
73.50
75.05
75.51
75.58
76.05
77.38
79.51
81.76
83.21
82.78
79.56
73.08
63.41
51.13
37.15
22.55
8.29
-5.19
-18.41
-32.71
-49.68
-70.35
-94.47
-120.50
-145.57
-166.30
-179.70
-184.57
-181.57
-172.76
-160.74
-147.74
-135.93
-126.66
-120.34
-116.29
-114.63
-115.59
-119.20
-124.86
-131.62
-139.93
-150.21
-162.02
-172.97
-181.84
-187.51
-188.96
-184.95
-174.48
-159.20
-141.18
-121.44
-98.59
-74.18
-50.81
-31.32
-17.30
-8.95
-8.28
-16.95
-33.88
-53.40
-72.84
-90.67
-106.35
-119.29
-112.10
-77.98
-26.17
13.18
36.15
44.53
45.19
41.17
35.09
30.69
28.80
26.92
24.57
25.79
30.24
36.26
42.12
47.88
56.97
72.22
92.97
120.61
159.61
208.60
263.11
317.20
354.19
359.54
350.55
338.64
321.00
299.45
273.02
240.23
199.94
152.06
99.15
44.19
-16.25
-75.79
-121.81
-148.10
-156.36
-152.67
-143.04
-129.94
-113.71
-96.99
-82.91
-70.98
-62.79
-59.48
-60.49
-63.69
-65.50
-62.78
-56.02
-46.52
-35.16
-24.83
-17.89
-15.02
-15.51
-17.48
-19.12
-20.32
-21.36
-22.73
-25.72
-30.96
-37.97
-45.54
-52.15
-56.54
-58.39
-57.77
-55.06
-51.22
-46.99
-42.59
-37.91
-32.76
-27.18
-21.53
-16.38
-12.39
-10.18
-9.87
-11.22
-13.85
-17.61
-22.52
-28.55
-35.20
-41.39
-45.73
-46.96
-44.38
-38.13
-28.99
-18.00
-6.03
6.37
18.93
31.56
44.28
57.13
70.20
83.49
96.87
110.00
122.41
133.57
143.09
150.64
155.83
158.22
157.34
152.99
145.50
135.71
124.70
113.25
101.52
89.03
75.13
59.53
42.67
25.64
9.74
-4.02
-15.22
-23.99
-30.75
-35.93
-39.91
-43.01
-45.49
-47.61
-49.43
-50.82
-51.45
-51.00
-49.31
-46.55
-43.17
-39.74
-36.77
-34.58
-33.27
-32.75
-32.84
-33.33
-34.07
-34.92
-35.73
-36.33
-36.55
-36.35
-35.88
-35.51
-35.67
-36.69
-38.54
-40.82
-42.77
-43.67
-43.05
-40.95
-37.85
-34.50
-31.64
-29.79
-29.14
-29.56
-30.61
-31.66
-31.99
-31.02
-28.48
-24.56
-19.80
-14.98
-10.71
-7.16
-3.90
-0.09
5.14
12.27
21.09
30.74
40.04
47.93
53.77
57.42
59.12
59.19
57.86
55.26
51.57
47.14
42.47
38.12
34.56
32.02
30.54
29.95
29.95
30.17
30.18
29.64
28.28
26.00
22.81
18.82
14.17
9.01
3.62
-1.54
-5.85
-8.72
-9.79
-9.06
-6.89
-3.77
-0.18
3.61
7.48
11.38
15.20
18.79
21.94
24.49
26.32
27.35
27.46
26.51
24.39
21.02
16.53
11.19
5.41
-0.39
-5.85
-10.87
-15.67
-20.71
-26.47
-33.07
-39.95
-45.79
-48.78
-47.22
-40.04
-27.27
-10.03
9.72
29.69
47.68
61.96
71.51
76.06
76.22
73.17
68.46
63.47
59.01
55.24
51.76
48.01
43.62
38.57
33.11
27.54
21.98
16.38
10.52
4.28
-2.28
-8.84
-15.01
-20.45
-25.04
-28.82
-31.96
-34.56
-36.67
-38.23
-39.21
-39.71
-39.94
-40.15
-40.52
-41.08
-41.74
-42.38
-42.99
-43.65
-44.53
-45.61
-46.67
-47.31
-46.99
-45.32
-42.22
-37.90
-32.84
-27.52
-22.34
-17.56
-13.33
-9.84
-7.24
-5.70
-5.21
-5.61
-6.62
-7.92
-9.29
-10.61
-11.85
-13.01
-14.08
-15.08
-16.03
-17.00
-18.04
-19.16
-20.26
-21.21
-21.92
-22.37
-22.61
-22.75
-22.85
-22.91
-22.91
-22.74
-22.26
-21.34
-19.91
-18.05
-16.07
-14.38
-13.39
-13.30
-14.06
-15.43
-17.15
-18.98
-20.80
-22.42
-23.51
-23.62
-22.37
-19.65
-15.77
-11.34
-7.04
-3.33
-0.30
2.32
4.98
8.08
11.84
16.36
21.67
27.83
34.86
42.65
50.78
58.53
64.97
69.31
71.22
71.00
69.60
68.19
67.78
68.82
71.05
73.72
75.87
76.73
75.91
73.44
69.65
64.94
59.70
54.23
48.83
43.75
39.24
35.38
32.07
29.07
26.07
22.91
19.58
16.26
13.08
10.01
6.80
3.03
-1.73
-7.72
-14.86
-22.82
-31.09
-39.17
-46.71
-53.65
-60.16
-66.52
-72.91
-79.22
-84.98
-89.56
-92.29
-92.83
-91.15
-87.54
-82.39
-76.04
-68.71
-60.46
-51.31
-41.21
-30.11
-18.03
-5.17
7.96
20.55
31.77
40.96
47.91
52.80
55.92
57.45
57.35
55.31
51.23
45.46
39.00
33.23
29.64
29.25
32.48
39.10
47.98
57.52
66.13
72.61
76.39
77.56
76.15
72.00
64.49
52.30
34.22
10.36
-17.42
-45.83
-70.83
-89.57
-100.64
-104.10
-101.76
-95.94
-88.27
-79.46
-69.74
-58.97
-48.13
-38.28
-30.06
-24.54
-22.65
-24.64
-30.16
-38.72
-49.38
-62.35
-77.89
-89.57
-91.88
-83.22
-66.62
-46.96
-32.38
-21.98
-14.36
-8.83
-5.33
-2.97
-2.16
-2.75
-3.83
-4.29
-2.72
0.68
5.29
10.56
15.49
18.98
20.71
21.05
20.71
20.82
21.53
22.77
24.60
26.67
28.42
29.69
30.72
31.99
34.30
37.81
42.48
48.16
54.36
60.29
65.28
68.89
70.89
71.34
70.23
67.68
63.99
59.49
54.35
48.67
42.43
35.61
28.32
20.65
12.69
4.45
-4.27
-13.79
-24.35
-35.86
-47.88
-59.63
-70.28
-79.14
-85.76
-90.02
-91.99
-91.76
-89.40
-84.79
-77.79
-68.29
-56.39
-42.40
-26.75
-9.76
8.44
27.69
47.53
66.87
84.04
97.15
104.70
106.17
102.28
94.66
85.30
75.90
67.36
59.69
52.22
44.11
34.72
23.91
11.97
-0.58
-13.30
-25.90
-38.12
-49.46
-59.24
-66.76
-71.68
-74.35
-75.90
-77.75
-80.95
-85.63
-90.91
-95.31
-97.43
-96.32
-91.85
-84.81
-76.49
-68.14
-60.50
-53.76
-47.89
-42.86
-38.35
-34.06
-29.90
-26.07
-22.92
-20.73
-19.77
-20.26
-22.32
-24.92
-26.55
-25.92
-22.69
-17.37
-10.88
-3.91
3.23
10.72
20.13
33.21
50.97
72.98
97.83
123.98
150.14
175.38
192.44
194.89
180.92
155.41
126.36
99.87
78.22
60.91
46.31
32.97
21.20
12.10
6.40
3.66
2.55
1.74
0.44
-1.56
-4.18
-6.46
-7.55
-7.26
-6.28
-5.77
-6.65
-9.12
-12.88
-17.30
-21.22
-23.72
-24.55
-24.26
-23.65
-23.15
-22.60
-21.67
-20.24
-18.54
-17.17
-17.13
-19.05
-22.77
-27.39
-31.67
-34.81
-36.62
-37.35
-37.24
-36.32
-34.24
-30.64
-25.79
-19.86
-13.62
-7.95
-3.47
-0.27
1.95
3.74
5.56
7.54
9.64
11.58
13.05
13.89
14.07
13.71
13.05
12.36
11.78
11.39
10.99
10.24
8.87
6.73
3.89
0.61
-2.81
-6.17
-9.26
-11.91
-14.06
-15.58
-16.42
-16.77
-17.04
-17.08
-17.04
-16.92
-16.63
-16.19
-15.57
-14.88
-14.45
-14.66
-15.63
-17.23
-18.95
-20.18
-20.63
-19.89
-17.68
-13.97
-8.90
-2.64
4.71
13.30
23.48
34.80
46.32
56.80
64.83
69.16
68.68
62.69
51.47
38.02
23.83
10.89
1.23
-4.54
-7.14
-8.38
-10.46
-15.14
-23.53
-35.77
-50.59
-65.79
-79.69
-90.87
-98.34
-101.44
-100.11
-94.92
-87.02
-77.35
-63.96
-46.42
-25.57
-3.51
17.65
36.97
53.79
68.18
78.29
83.67
84.30
80.94
74.67
66.61
57.59
48.60
40.62
34.07
28.91
24.10
18.47
11.21
2.21
-7.88
-16.98
-22.26
-21.31
-12.63
3.57
25.87
52.19
80.38
103.72
115.57
113.41
100.56
83.16
65.73
50.16
36.71
25.05
14.96
7.05
2.65
1.22
1.81
3.31
4.41
3.94
1.37
-2.85
-7.23
-10.59
-12.74
-13.72
-13.79
-13.75
-14.86
-17.65
-21.59
-23.40
-20.97
-14.26
-7.50
-2.45
-0.74
-3.26
-10.67
-22.27
-36.47
-52.04
-68.19
-84.40
-100.10
-115.65
-132.40
-149.96
-165.50
-175.13
-175.99
-166.85
-148.13
-121.27
-80.79
-30.63
18.57
57.40
82.99
97.13
102.73
102.19
99.10
94.09
86.60
77.54
68.98
62.70
58.91
56.65
54.01
50.15
44.58
36.65
26.93
16.94
8.17
1.18
-4.26
-8.70
-12.48
-16.13
-20.41
-25.28
-29.90
-33.27
-34.86
-34.68
-33.16
-30.80
-28.31
-26.46
-25.52
-25.24
-25.11
-24.70
-23.75
-22.11
-19.74
-16.87
-13.93
-11.38
-9.57
-8.72
-8.89
-9.98
-11.78
-13.98
-16.32
-18.61
-20.71
-22.50
-23.84
-24.58
-24.57
-23.62
-21.47
-17.84
-12.48
-5.34
3.37
13.09
23.11
32.91
42.22
51.05
59.49
67.54
75.08
81.93
87.91
93.05
97.54
101.56
104.97
107.35
108.20
107.17
104.29
99.70
93.78
87.02
79.91
72.85
66.20
60.28
55.30
51.24
47.38
43.14
38.48
33.86
29.69
26.00
22.37
18.06
12.32
3.69
-8.42
-23.21
-38.99
-54.21
-67.92
-79.67
-89.27
-96.70
-103.66
-111.28
-119.21
-125.92
-129.92
-130.40
-127.26
-121.10
-113.14
-107.02
-105.33
-108.14
-113.53
-119.55
-125.32
-130.87
-136.60
-129.60
-104.07
-65.08
-24.04
10.57
35.54
50.67
57.23
57.68
55.15
50.61
44.95
39.58
36.08
35.12
36.46
39.54
43.86
48.86
52.19
52.01
48.23
42.21
35.69
29.78
24.84
20.43
15.67
8.81
-0.72
-11.52
-20.89
-26.50
-27.55
-24.97
-20.71
-16.83
-14.96
-15.29
-16.64
-17.52
-16.65
-13.93
-10.04
-5.89
-2.00
1.36
4.32
7.18
10.24
13.55
16.78
19.47
21.06
21.22
19.82
17.06
13.34
9.20
5.06
1.00
-3.24
-8.20
-14.22
-21.41
-29.38
-37.34
-44.23
-49.08
-51.37
-51.21
-49.23
-46.10
-42.38
-38.26
-33.37
-26.94
-18.13
-6.29
8.99
25.93
42.81
57.79
69.22
75.91
77.35
73.72
65.78
54.58
41.18
26.83
12.67
-0.29
-11.19
-19.41
-24.67
-27.03
-26.99
-25.43
-23.09
-20.56
-18.09
-15.52
-12.53
-8.81
-4.21
0.99
6.10
10.48
13.72
15.84
17.31
18.91
21.42
25.71
32.03
39.86
48.15
55.73
61.59
65.04
65.72
63.59
59.46
53.85
46.77
38.03
27.68
16.17
4.30
-7.05
-16.89
-23.06
-24.08
-19.45
-9.51
5.08
23.45
44.53
66.88
88.97
110.56
130.56
146.89
157.17
159.99
155.48
145.19
131.44
107.44
72.58
31.98
-6.87
-39.21
-64.11
-82.46
-95.04
-103.02
-106.72
-105.06
-98.36
-88.70
-79.08
-71.47
-67.13
-66.22
-68.11
-71.66
-74.87
-77.05
-79.14
-83.10
-90.61
-102.24
-117.02
-132.68
-146.05
-153.25
-151.47
-139.63
-118.31
-89.32
-55.11
-18.38
18.24
52.58
83.24
109.10
129.10
142.26
147.87
145.78
136.51
121.27
101.85
80.26
58.17
36.57
15.75
-4.39
-23.95
-42.77
-60.29
-75.63
-87.73
-95.72
-99.23
-98.64
-95.03
-89.81
-84.30
-79.25
-74.60
-69.70
-63.79
-56.65
-48.74
-40.95
-33.81
-27.34
-20.98
-13.86
-5.20
5.29
17.21
29.59
41.55
53.03
64.28
75.42
86.17
95.88
103.65
108.67
110.56
109.94
108.73
108.58
109.97
112.08
113.49
113.06
110.51
106.53
102.79
101.71
104.30
109.50
114.67
116.95
114.19
105.24
89.67
61.91
21.75
-24.92
-68.81
-102.66
-123.91
-133.79
-135.41
-133.90
-130.75
-125.05
-116.07
-104.30
-91.53
-80.11
-72.24
-68.77
-70.12
-75.12
-81.08
-85.63
-87.62
-87.34
-85.84
-84.18
-82.92
-81.55
-78.01
-69.48
-54.02
-31.29
-2.19
31.87
69.48
106.68
137.05
154.58
156.93
146.24
127.05
103.94
80.31
58.24
38.67
22.23
9.77
2.00
-1.20
-1.09
0.39
1.31
0.21
-3.67
-10.18
-18.24
-26.31
-32.84
-36.55
-36.49
-32.34
-24.61
-14.85
-5.08
2.96
8.50
11.46
12.32
11.90
10.97
9.93
8.76
7.38
5.90
4.73
4.25
4.50
5.23
5.97
6.30
6.08
5.61
5.53
6.49
8.56
11.29
13.99
16.03
17.01
16.75
15.40
13.17
10.23
6.97
3.55
0.20
-2.72
-4.94
-6.44
-7.30
-7.66
-7.56
-7.58
-8.24
-9.68
-11.68
-13.93
-16.20
-18.23
-19.88
-21.02
-22.47
-25.14
-29.43
-35.22
-42.16
-50.02
-58.65
-68.34
-74.12
-73.06
-65.70
-55.47
-45.78
-38.16
-32.61
-28.47
-25.58
-23.83
-23.66
-24.75
-25.76
-24.84
-20.78
-15.03
-7.77
0.06
7.65
14.04
18.81
21.99
23.85
24.70
24.83
24.93
25.50
26.85
28.32
28.73
26.94
22.11
14.35
4.75
-4.84
-12.88
-18.57
-22.22
-24.83
-27.62
-31.31
-36.00
-41.50
-47.60
-54.34
-61.77
-69.58
-77.11
-83.64
-88.57
-91.63
-93.08
-93.37
-92.81
-91.26
-87.89
-81.77
-72.74
-61.15
-47.59
-33.03
-18.47
-4.75
7.56
18.84
29.70
39.72
48.94
58.19
68.06
78.69
89.57
99.62
108.65
116.28
119.76
117.51
110.12
98.90
85.58
72.12
60.12
52.40
50.53
50.84
50.16
47.98
44.51
40.71
37.99
37.71
43.47
58.30
79.48
105.38
136.61
172.21
209.27
243.57
255.22
231.30
197.38
167.86
140.49
116.41
95.64
77.05
59.14
40.79
24.11
11.28
-1.31
-16.44
-34.12
-54.42
-76.99
-100.99
-125.13
-146.13
-161.20
-172.36
-181.13
-186.94
-189.36
-187.94
-182.10
-171.29
-154.10
-130.06
-102.52
-75.14
-50.62
-31.49
-19.36
-14.49
-15.80
-20.72
-26.42
-31.66
-35.25
-35.62
-31.41
-21.69
-6.32
13.57
35.84
57.47
75.19
87.01
92.94
94.47
93.86
93.12
93.33
94.50
95.88
96.39
95.01
90.92
83.51
72.37
57.37
38.84
17.76
-4.27
-25.29
-43.61
-58.34
-69.66
-78.61
-86.41
-93.71
-100.12
-104.34
-104.77
-100.26
-90.63
-76.70
-60.00
-42.24
-24.99
-9.44
3.61
13.39
19.17
20.30
16.52
8.28
-3.28
-16.62
-30.39
-43.92
-57.56
-72.23
-88.56
-105.99
-122.43
-134.74
-139.84
-135.38
-120.47
-96.10
-64.94
-30.76
2.59
31.97
55.43
72.13
82.66
88.45
90.71
89.94
86.06
78.91
68.78
56.20
41.51
25.51
9.43
-5.02
-15.65
-19.49
-13.56
4.33
34.59
71.80
106.01
127.50
132.03
121.84
102.91
81.34
61.36
45.74
32.50
20.19
8.70
-1.43
-9.74
-16.22
-22.11
-28.35
-35.98
-45.94
-57.59
-68.89
-77.39
-83.18
-85.46
-84.56
-81.63
-78.21
-75.71
-74.39
-72.06
-67.54
-60.47
-51.02
-40.10
-28.75
-17.81
-7.89
1.17
9.89
18.61
27.65
37.49
48.29
59.98
72.11
83.77
93.93
101.52
105.37
104.79
99.79
90.66
77.94
62.14
43.73
23.44
2.22
-19.00
-39.28
-57.82
-74.20
-88.36
-100.41
-110.45
-118.01
-122.41
-123.09
-119.82
-112.61
-101.72
-87.53
-70.70
-52.16
-32.43
-12.35
6.67
22.66
33.68
38.55
37.23
30.77
20.98
11.01
3.70
0.65
1.84
6.28
13.03
21.41
30.97
41.19
52.92
67.03
83.86
102.86
123.14
144.08
165.37
186.77
198.84
194.34
172.02
138.09
101.38
67.99
39.98
16.89
-2.75
-20.26
-35.03
-45.92
-52.26
-54.51
-54.02
-52.30
-50.66
-50.10
-51.13
-52.51
-52.61
-50.34
-45.88
-40.32
-34.87
-30.33
-26.97
-24.58
-22.10
-18.69
-14.33
-9.87
-6.46
-4.72
-4.38
-5.04
-6.09
-6.74
-6.56
-5.54
-4.12
-2.69
-1.49
-0.44
0.38
0.94
1.36
1.85
2.63
3.89
5.79
8.41
11.80
15.59
19.32
22.65
25.44
27.62
29.17
30.07
30.15
29.30
26.94
22.57
15.94
7.12
-3.72
-16.72
-30.87
-45.57
-57.27
-63.37
-63.34
-58.87
-52.41
-45.84
-40.13
-35.56
-32.19
-29.80
-28.42
-27.95
-28.07
-28.27
-28.19
-27.76
-27.19
-26.78
-26.52
-26.43
-26.45
-26.46
-26.38
-26.25
-26.18
-26.38
-26.93
-27.76
-28.70
-29.67
-30.47
-30.81
-31.04
-30.79
-30.15
-29.38
-28.56
-27.29
-25.20
-21.91
-17.37
-11.89
-6.07
-0.61
4.05
7.98
11.91
16.41
21.88
28.58
36.67
46.48
58.34
72.60
87.00
100.51
111.35
117.29
116.54
108.64
94.87
77.74
60.15
44.32
31.58
21.88
14.53
8.91
4.79
2.23
1.15
1.16
1.55
1.82
1.62
0.95
0.19
-0.18
0.09
0.88
1.76
2.24
2.15
1.51
0.66
-0.20
-0.87
-1.33
-1.77
-2.56
-4.01
-6.29
-9.25
-12.45
-15.24
-16.94
-17.20
-16.27
-15.00
-14.41
-15.89
-20.05
-26.50
-33.86
-40.23
-43.87
-43.74
-39.81
-32.89
-24.53
-16.49
-10.49
-7.75
-8.70
-12.87
-18.89
-24.96
-29.41
-31.27
-30.40
-27.39
-23.17
-18.62
-14.37
-10.79
-8.21
-6.49
-5.46
-4.71
-3.80
-2.46
-0.66
1.36
3.35
5.17
6.86
8.49
10.12
11.70
13.23
14.77
16.55
18.80
21.59
24.71
27.72
30.07
31.37
31.45
30.41
28.48
25.84
22.44
18.25
13.34
8.08
3.25
-0.15
-1.15
0.65
4.94
10.49
15.79
19.47
20.70
19.34
15.88
11.14
5.88
0.68
-4.42
-9.35
-14.18
-19.08
-24.31
-30.24
-36.45
-42.63
-48.29
-53.14
-56.50
-57.72
-56.50
-52.90
-47.26
-39.73
-30.14
-16.84
-0.01
18.66
36.12
49.40
56.60
57.41
53.01
45.39
37.85
30.70
24.09
18.21
13.45
10.23
8.78
8.92
9.97
10.68
9.65
6.52
1.73
-3.59
-8.09
-10.54
-10.05
-6.17
1.04
10.85
22.43
34.82
47.10
58.56
68.79
77.60
84.76
89.76
91.66
89.54
82.58
70.39
53.24
32.10
8.62
-15.21
-37.35
-56.18
-70.55
-79.98
-84.62
-85.05
-82.20
-77.19
-71.24
-65.48
-60.71
-57.15
-54.41
-51.66
-48.06
-43.25
-37.61
-32.14
-28.06
-26.16
-26.54
-28.46
-30.71
-32.19
-32.35
-31.31
-29.61
-27.87
-26.33
-24.83
-23.02
-20.59
-17.41
-13.69
-9.80
-6.19
-3.39
-1.84
-1.97
-4.12
-8.19
-13.51
-18.89
-22.75
-23.63
-20.90
-14.69
-5.99
3.66
12.82
20.46
26.02
29.38
30.76
30.52
29.65
29.51
30.17
31.43
32.58
32.60
30.73
28.37
25.68
23.26
21.96
22.60
24.46
26.55
27.83
27.60
25.48
21.24
15.27
8.26
1.42
-4.03
-7.85
-9.94
-10.12
-8.64
-6.27
-3.73
-1.74
-0.27
0.82
0.62
-1.08
-3.44
-5.57
-6.80
-6.47
-4.11
1.39
10.72
22.36
34.96
48.05
61.10
73.72
85.93
92.40
90.00
87.75
88.69
89.74
89.73
87.83
83.51
76.49
66.79
55.71
44.81
33.95
23.26
13.34
4.02
-5.11
-14.26
-23.22
-30.78
-36.02
-40.11
-44.34
-49.28
-54.97
-60.64
-65.09
-67.79
-68.59
-67.98
-67.52
-68.01
-68.95
-69.27
-67.83
-64.11
-58.99
-53.43
-47.86
-42.42
-36.91
-31.09
-25.16
-19.71
-15.58
-14.63
-17.91
-25.05
-34.76
-45.37
-55.39
-63.57
-68.98
-71.23
-71.96
-72.86
-74.69
-77.34
-80.35
-83.31
-85.51
-85.97
-75.49
-50.38
-15.00
21.60
52.50
74.85
88.30
93.76
92.80
87.51
78.82
68.04
57.03
47.79
41.64
38.48
37.87
39.16
41.48
42.95
42.31
39.63
36.08
33.02
31.37
31.64
33.96
38.15
42.77
46.80
49.97
52.63
55.28
58.22
61.60
65.32
69.04
71.94
73.36
73.08
71.36
68.55
64.91
60.49
55.23
49.04
41.84
33.78
25.18
16.37
7.47
-1.60
-10.96
-20.56
-30.14
-39.18
-47.04
-53.19
-57.33
-59.47
-59.97
-59.35
-58.19
-56.98
-56.02
-55.42
-55.23
-55.56
-56.61
-58.63
-61.79
-66.05
-71.12
-76.48
-81.49
-85.58
-88.33
-89.55
-89.22
-87.41
-84.19
-79.64
-73.88
-67.18
-59.99
-52.86
-46.36
-40.80
-36.15
-32.07
-28.12
-24.03
-19.78
-15.56
-11.55
-7.81
-4.10
-0.07
4.63
10.18
16.54
23.53
30.93
38.56
46.28
53.88
61.05
67.29
72.00
74.67
75.12
73.57
70.66
67.13
63.60
60.31
57.14
53.84
50.27
46.54
42.92
39.62
36.55
33.39
29.81
25.69
21.23
16.69
12.11
7.21
1.52
-5.28
-13.09
-21.33
-29.15
-35.78
-40.81
-44.17
-46.08
-46.80
-46.54
-45.44
-43.60
-41.10
-37.93
-34.03
-29.28
-23.59
-16.97
-9.50
-1.37
7.08
15.39
22.98
29.27
33.84
36.57
37.60
37.23
35.80
33.59
30.87
27.90
25.03
22.58
20.79
19.69
19.04
18.51
17.71
16.38
14.42
11.87
8.90
5.72
2.53
-0.52
-3.36
-5.96
-8.32
-10.45
-12.38
-14.14
-15.78
-17.29
-18.55
-19.30
-19.18
-17.88
-15.26
-11.37
-6.49
-1.02
4.59
9.92
14.61
18.38
21.06
22.64
23.23
23.01
22.14
20.75
18.92
16.84
14.74
12.93
11.62
10.88
10.54
10.33
10.05
9.66
9.29
9.09
9.12
9.23
9.17
8.76
8.06
7.28
6.72
6.50
6.42
6.01
4.71
2.20
-1.52
-6.02
-10.73
-15.05
-18.58
-21.16
-22.77
-23.43
-23.12
-21.81
-19.53
-16.48
-13.05
-9.72
-6.93
-4.95
-3.82
-3.45
-3.70
-4.48
-5.71
-7.32
-9.17
-11.00
-12.55
-13.59
-14.01
-13.84
-13.28
-12.61
-12.10
-11.95
-12.27
-13.09
-14.33
-15.80
-17.29
-18.66
-19.87
-20.90
-21.74
-22.44
-23.07
-23.73
-24.44
-25.19
-25.95
-26.68
-27.26
-27.50
-27.37
-26.95
-26.37
-25.68
-24.70
-23.25
-21.00
-17.54
-12.32
-5.42
2.65
11.17
19.70
28.20
36.48
44.52
52.45
60.81
69.27
77.03
83.11
86.93
88.42
87.22
83.28
77.13
70.51
64.11
58.08
52.05
45.87
39.47
31.91
22.37
10.74
-1.32
-13.13
-24.45
-35.54
-46.45
-51.47
-46.93
-33.73
-23.01
-17.26
-16.72
-18.33
-20.99
-24.00
-27.00
-30.81
-36.21
-43.22
-49.98
-55.60
-59.71
-62.71
-64.95
-66.84
-69.41
-73.46
-79.02
-84.55
-89.16
-92.30
-93.94
-94.14
-93.14
-91.68
-90.31
-88.97
-86.46
-81.86
-74.37
-63.46
-48.43
-28.59
-3.82
25.35
57.55
90.81
122.34
149.28
169.33
181.31
185.24
182.02
173.16
160.53
146.11
131.39
117.21
103.62
90.30
76.86
63.23
49.80
37.20
26.21
17.34
10.57
5.28
0.49
-4.90
-11.75
-20.58
-31.47
-43.72
-56.15
-67.56
-76.91
-83.46
-86.69
-86.54
-83.58
-79.33
-75.19
-72.34
-71.57
-72.94
-75.89
-79.38
-82.45
-84.81
-87.31
-90.15
-92.91
-94.70
-94.14
-89.81
-80.41
-65.33
-45.00
-21.41
4.13
30.91
58.38
84.18
103.46
112.21
110.21
105.51
101.02
98.23
98.35
99.46
100.81
101.82
102.24
102.01
101.02
98.41
94.34
89.35
83.80
78.12
72.56
67.56
63.56
60.71
58.18
55.71
53.19
50.44
47.59
44.80
42.50
41.15
40.96
41.38
42.04
42.50
42.11
40.38
36.83
31.24
23.57
13.81
1.75
-12.61
-29.27
-48.37
-69.86
-93.36
-117.99
-142.42
-165.17
-184.74
-199.72
-209.26
-213.30
-212.45
-207.72
-200.24
-191.12
-181.28
-171.05
-160.14
-148.13
-135.01
-121.10
-106.81
-92.40
-77.87
-63.06
-47.27
-29.44
-8.80
14.60
39.94
66.15
92.12
116.89
137.40
149.21
150.14
142.29
130.09
117.16
105.31
95.09
86.53
79.51
74.14
70.53
68.24
66.03
62.56
57.23
50.46
43.29
36.67
31.32
27.66
25.57
24.40
23.39
22.16
20.72
19.30
17.88
16.59
15.67
15.31
15.57
15.84
15.71
14.97
13.77
12.04
10.02
8.12
6.66
5.66
4.85
4.07
3.39
3.19
3.25
3.51
3.94
4.62
5.59
6.86
8.50
10.50
12.61
13.37
11.44
6.08
-2.51
-13.46
-25.76
-38.91
-53.59
-65.34
-72.30
-74.15
-71.79
-66.15
-57.95
-48.23
-38.62
-30.96
-26.44
-25.83
-28.19
-31.56
-33.82
-33.72
-31.29
-27.58
-23.90
-21.08
-19.93
-20.46
-22.29
-24.79
-27.26
-29.08
-29.71
-28.62
-25.39
-21.00
-15.68
-9.99
-4.54
0.20
4.17
8.00
13.22
21.87
35.32
53.18
72.63
89.12
98.04
96.79
86.05
69.45
51.92
37.34
27.41
21.55
18.22
16.39
15.90
17.12
20.08
23.79
26.23
25.26
19.38
8.58
-5.66
-20.45
-33.07
-41.90
-46.82
-48.97
-49.90
-50.77
-51.68
-51.69
-49.38
-43.74
-35.01
-24.76
-15.44
-9.29
-7.44
-9.41
-13.28
-16.52
-16.92
-13.41
-6.06
4.13
15.83
27.61
38.08
45.93
49.46
48.29
42.91
34.80
25.99
18.53
13.67
11.73
12.14
14.02
16.67
19.57
22.43
24.43
24.58
21.87
15.67
6.09
-5.81
-18.27
-29.35
-37.48
-41.75
-42.01
-38.85
-33.33
-26.74
-20.35
-15.17
-11.64
-9.79
-9.20
-9.29
-9.62
-10.20
-11.39
-13.57
-16.72
-20.19
-22.99
-24.11
-22.91
-19.44
-14.36
-8.59
-2.90
2.40
7.45
12.42
17.46
22.69
28.20
34.08
40.62
48.39
56.25
63.43
69.10
72.75
74.42
74.47
73.27
70.99
67.28
61.62
53.24
41.64
27.41
12.13
-2.23
-13.96
-21.92
-26.05
-26.73
-26.12
-28.31
-36.77
-51.55
-68.84
-82.71
-87.52
-82.91
-69.74
-51.64
-33.46
-18.96
-9.71
-5.32
-4.29
-4.36
-3.58
-0.42
4.30
8.15
8.95
6.12
0.64
-5.72
-10.73
-12.90
-11.05
-4.72
6.61
23.33
44.73
66.94
80.47
76.07
51.21
12.61
-29.09
-65.67
-94.33
-116.47
-134.09
-149.88
-159.91
-159.84
-148.82
-131.07
-113.62
-102.12
-97.67
-96.71
-91.35
-74.89
-45.33
-6.21
35.05
70.86
96.87
113.12
122.54
128.63
134.47
141.04
147.73
153.65
158.02
160.43
160.65
158.10
151.92
142.17
129.11
113.29
95.89
78.21
61.95
48.88
39.79
30.00
16.25
-3.35
-28.71
-57.77
-87.45
-114.07
-134.11
-145.85
-149.70
-146.87
-139.15
-130.18
-119.73
-107.16
-91.70
-72.62
-50.21
-25.80
-0.74
23.46
45.03
63.38
78.98
90.83
99.07
103.50
103.45
98.77
90.22
78.76
66.71
56.94
52.26
54.21
61.33
69.38
72.91
66.85
46.48
10.04
-40.57
-100.33
-162.71
-222.45
-276.68
-324.52
-356.78
-366.55
-354.54
-329.94
-303.43
-279.61
-256.10
-226.71
-186.24
-134.15
-78.33
-25.97
16.37
45.35
62.18
71.20
77.84
87.01
102.60
126.93
155.01
184.47
213.27
238.82
257.49
265.89
262.26
247.36
223.78
195.45
167.08
142.37
123.53
111.15
104.90
103.64
105.81
109.51
113.31
116.99
120.63
123.98
126.01
125.65
121.58
113.23
101.03
86.53
71.89
58.33
45.86
33.74
21.98
10.92
1.18
-7.05
-14.18
-21.11
-29.26
-39.83
-56.95
-79.95
-104.81
-126.87
-143.87
-155.32
-160.92
-160.24
-153.21
-140.73
-124.15
-106.82
-89.92
-74.66
-62.05
-53.06
-48.66
-49.60
-55.70
-64.90
-74.42
-81.71
-85.01
-84.28
-81.06
-77.57
-75.43
-74.73
-73.83
-70.69
-63.79
-53.00
-39.15
-23.56
-7.70
6.98
18.96
26.85
29.64
27.31
20.97
12.90
6.00
2.76
4.50
11.10
21.26
33.18
45.30
56.63
66.81
75.84
83.68
90.42
96.05
100.37
103.42
105.51
106.84
107.29
106.12
102.11
94.88
84.81
72.71
60.17
48.99
40.51
35.29
32.81
31.73
31.48
31.78
31.74
30.79
28.63
25.06
20.15
13.88
5.79
-3.80
-15.14
-30.10
-50.22
-75.89
-106.21
-136.48
-158.97
-175.13
-188.42
-197.64
-202.38
-200.77
-189.92
-167.62
-133.65
-90.53
-43.12
4.39
48.52
82.78
102.53
107.94
102.29
89.21
71.13
49.77
28.19
10.27
-0.82
-4.74
-2.32
3.88
10.67
15.32
16.37
14.19
10.47
6.41
1.96
-2.43
-6.21
-8.24
-7.07
-1.65
8.21
21.99
37.65
52.65
65.24
74.82
82.24
88.89
95.57
97.00
89.52
73.14
51.94
31.26
14.68
3.27
-4.39
-11.27
-20.15
-31.60
-44.44
-56.64
-67.31
-75.69
-80.88
-82.04
-78.38
-69.24
-53.84
-32.59
-7.48
18.69
40.08
52.81
56.19
52.03
43.18
32.34
20.86
8.73
-4.49
-18.78
-32.62
-43.88
-50.87
-52.98
-50.51
-44.67
-37.86
-31.19
-25.95
-22.98
-22.76
-25.27
-29.60
-33.93
-36.26
-35.12
-30.21
-22.33
-12.34
-0.87
11.44
23.79
35.10
44.15
50.19
52.97
53.22
51.24
48.10
44.39
39.76
33.19
23.39
9.75
-7.82
-27.85
-46.13
-57.68
-60.17
-55.08
-46.13
-38.99
-34.67
-32.48
-30.62
-27.03
-20.18
-9.41
4.23
19.18
34.16
48.89
62.68
74.62
83.69
89.16
90.18
86.42
78.47
67.46
55.02
41.54
26.66
9.02
-9.98
-27.11
-39.24
-45.29
-48.57
-51.23
-54.95
-60.74
-68.88
-77.28
-84.74
-90.66
-95.00
-98.19
-100.47
-102.39
-104.23
-105.55
-104.86
-100.46
-90.44
-73.22
-48.09
-15.53
21.92
60.02
93.77
118.40
129.76
125.12
103.66
66.88
18.85
-34.32
-85.27
-126.65
-152.79
-161.27
-153.20
-132.20
-102.78
-68.66
-32.25
5.14
42.39
77.81
108.83
132.82
148.08
154.48
153.47
147.37
138.41
128.23
117.59
106.44
94.29
80.55
64.84
47.16
27.98
8.24
-10.45
-26.35
-38.21
-45.69
-49.29
-49.99
-48.74
-46.23
-42.84
-38.09
-31.42
-22.78
-13.01
-3.31
5.37
12.61
18.41
22.86
26.95
31.51
36.55
40.92
42.94
41.40
35.93
26.98
15.59
4.65
-2.37
-2.62
5.15
20.82
43.62
72.46
106.02
134.38
147.91
142.47
122.65
97.17
72.71
51.96
34.55
18.58
1.96
-15.30
-31.74
-45.46
-55.45
-61.75
-65.09
-66.52
-67.08
-67.34
-66.24
-62.21
-54.42
-43.81
-32.57
-23.07
-17.00
-14.83
-15.86
-18.02
-19.16
-18.02
-15.19
-12.14
-10.28
-10.44
-12.46
-15.38
-17.65
-17.99
-16.01
-12.40
-8.32
-4.78
-2.51
-1.58
-1.42
-1.04
0.48
3.54
7.82
12.57
16.90
19.68
20.12
17.96
13.52
7.49
0.66
-6.36
-13.44
-18.35
-20.43
-21.17
-23.62
-30.28
-41.40
-54.72
-66.88
-74.90
-77.46
-75.56
-71.41
-67.07
-63.53
-60.73
-58.12
-55.64
-53.50
-51.85
-50.46
-48.43
-44.33
-36.94
-26.82
-14.48
-1.80
9.08
16.81
21.16
22.79
22.94
22.88
23.66
26.17
31.01
38.67
48.27
58.99
69.06
76.25
78.69
75.80
68.60
59.14
49.72
41.87
35.91
30.94
25.68
19.36
12.30
5.77
1.24
-0.39
0.83
4.06
8.12
12.21
16.09
19.75
22.89
24.57
23.54
19.02
11.39
2.16
-6.38
-12.17
-14.16
-12.60
-8.83
-4.53
-1.00
1.30
2.66
3.78
5.15
6.58
7.17
5.94
2.52
-2.52
-7.87
-12.36
-15.34
-16.89
-17.19
-16.09
-12.89
-6.92
1.67
11.23
18.81
21.19
16.09
3.26
-15.10
-34.62
-50.13
-57.58
-55.84
-47.25
-36.52
-28.74
-26.16
-27.91
-30.58
-30.45
-25.65
-17.35
-8.70
-2.48
0.09
0.44
1.08
3.91
9.00
14.79
19.19
20.82
19.73
17.15
14.81
13.85
14.31
15.21
15.19
13.20
8.96
3.19
-2.81
-7.58
-10.26
-10.81
-9.94
-8.67
-7.83
-7.65
-7.75
-7.59
-6.73
-5.15
-3.22
-1.35
0.22
1.51
2.71
4.01
5.32
6.45
7.14
7.36
7.35
7.55
8.45
10.28
12.86
15.49
17.17
17.04
14.76
10.64
5.41
-0.08
-5.06
-9.14
-12.33
-14.77
-16.68
-18.06
-18.88
-19.21
-19.14
-18.53
-17.24
-15.24
-12.65
-9.82
-6.98
-4.34
-2.11
-0.33
1.33
3.26
5.70
8.89
12.30
16.03
20.47
26.05
31.18
34.86
36.79
37.27
36.55
34.68
32.16
29.67
27.70
26.24
25.14
23.92
22.07
20.10
17.69
15.27
13.34
11.97
10.76
9.29
7.13
3.96
-0.41
-6.07
-12.81
-19.58
-25.08
-28.48
-29.47
-28.16
-24.91
-20.38
-15.58
-11.51
-9.13
-9.06
-11.37
-15.33
-19.71
-23.27
-25.23
-25.50
-24.50
-22.88
-21.41
-20.62
-20.62
-21.23
-22.08
-22.94
-23.75
-24.42
-24.78
-24.55
-23.39
-20.98
-17.62
-13.28
-8.49
-3.91
-0.01
3.16
6.01
9.09
12.79
17.02
21.45
25.55
29.32
33.21
37.72
42.68
47.03
49.54
48.68
44.18
37.19
29.82
23.97
20.46
18.56
16.50
12.78
6.68
-1.21
-9.71
-17.63
-24.26
-29.21
-32.14
-32.60
-30.27
-25.58
-19.79
-14.83
-12.44
-13.38
-17.04
-21.66
-25.25
-26.26
-24.13
-19.18
-12.54
-5.05
2.32
8.72
13.60
16.77
18.44
19.03
19.10
19.00
18.94
18.77
18.11
16.52
13.57
9.14
3.56
-2.31
-7.57
-11.59
-14.33
-16.30
-18.22
-20.66
-23.72
-27.36
-30.85
-33.62
-35.27
-35.69
-34.96
-33.24
-30.81
-27.99
-25.18
-22.74
-21.05
-20.30
-20.50
-21.46
-22.88
-24.47
-26.05
-27.56
-29.11
-30.91
-33.20
-36.07
-39.51
-43.38
-47.51
-51.74
-55.82
-59.32
-61.55
-61.48
-57.92
-49.83
-36.55
-18.39
3.25
26.35
48.96
69.84
88.77
106.39
123.63
140.98
158.08
173.76
186.48
194.92
198.34
196.69
190.49
180.51
167.56
152.34
135.44
117.41
98.71
79.71
60.65
41.64
22.81
4.37
-13.31
-29.74
-44.35
-56.59
-65.96
-72.10
-74.86
-74.36
-71.03
-65.55
-58.71
-51.33
-43.97
-36.85
-29.89
-22.86
-15.68
-8.58
-2.27
2.13
3.36
0.67
-5.80
-15.08
-25.85
-36.94
-47.76
-58.44
-69.52
-81.61
-94.48
-106.82
-116.70
-122.37
-122.92
-118.51
-110.38
-100.60
-91.87
-86.19
-84.39
-86.12
-90.36
-95.68
-100.50
-103.53
-104.28
-103.42
-101.52
-98.36
-92.69
-82.68
-66.21
-41.21
-5.96
41.84
98.40
154.61
200.04
227.67
235.27
224.34
198.94
164.73
127.70
92.44
62.11
38.39
21.77
11.78
7.60
8.19
12.13
17.46
21.65
22.99
21.35
18.00
14.66
12.64
12.34
13.11
13.67
12.62
9.46
4.88
0.20
-3.41
-5.27
-5.59
-4.98
-4.16
-3.75
-3.94
-4.51
-5.10
-5.43
-5.38
-4.85
-3.94
-2.72
-1.20
0.64
2.67
4.39
5.16
4.60
3.01
1.21
0.72
3.16
9.44
19.02
29.99
39.78
46.20
48.15
45.26
38.06
27.53
14.64
0.46
-13.72
-26.75
-38.21
-45.90
-50.06
-53.53
-59.69
-69.85
-82.29
-93.53
-100.33
-101.06
-96.08
-87.44
-77.37
-67.27
-57.70
-48.85
-41.00
-34.55
-29.69
-26.01
-22.79
-18.98
-13.73
-6.87
0.95
8.45
15.34
21.85
28.64
36.25
44.79
53.70
62.03
68.84
73.78
76.93
78.48
78.24
75.45
69.23
59.04
45.06
28.17
9.80
-9.23
-26.97
-42.08
-53.84
-61.82
-65.72
-65.51
-62.95
-58.41
-52.45
-45.67
-38.73
-32.14
-26.40
-22.04
-19.54
-19.14
-20.32
-22.03
-23.33
-23.74
-23.32
-22.46
-21.46
-20.22
-18.30
-15.14
-10.13
-3.49
3.42
8.77
11.31
10.90
8.39
4.90
1.32
-0.96
-1.04
1.28
5.81
12.50
21.61
33.16
46.51
60.51
75.27
90.95
107.17
122.83
136.77
148.29
157.13
163.28
158.05
137.48
104.71
68.29
35.99
11.07
-6.84
-19.48
-28.31
-32.98
-32.61
-26.53
-15.51
-2.18
10.44
20.16
26.20
29.08
28.14
25.30
22.88
22.23
22.72
22.73
20.59
15.27
6.57
-4.81
-16.63
-26.68
-33.72
-38.66
-43.04
-47.95
-53.55
-59.52
-65.52
-71.03
-75.90
-80.29
-85.43
-92.11
-100.07
-108.23
-115.46
-121.14
-125.10
-127.42
-122.19
-106.45
-81.87
-54.23
-29.77
-12.38
-2.91
-0.17
-2.05
-5.37
-8.40
-10.32
-10.63
-8.85
-4.47
3.19
14.70
28.76
42.89
53.52
57.61
54.30
45.61
35.67
30.38
32.36
41.77
56.71
73.61
88.29
97.71
100.97
96.16
84.13
66.86
47.26
26.49
8.24
-4.10
-9.47
-9.50
-6.82
-3.08
0.79
4.54
7.93
11.16
13.31
13.63
11.93
8.64
4.53
0.00
-4.88
-10.24
-16.08
-22.53
-28.86
-34.17
-37.97
-40.41
-41.88
-42.45
-41.86
-39.87
-36.82
-33.28
-30.66
-28.78
-27.24
-25.59
-23.51
-20.68
-17.04
-12.44
-6.39
1.76
12.84
26.59
41.89
56.95
69.74
77.91
79.79
75.03
64.74
51.31
37.54
25.94
17.56
13.37
12.33
12.09
10.41
6.16
-0.83
-10.41
-22.46
-36.87
-53.00
-70.35
-87.84
-103.71
-115.95
-122.76
-123.10
-116.89
-106.87
-93.44
-77.98
-62.06
-46.98
-33.78
-23.38
-16.55
-13.54
-13.79
-15.63
-17.79
-19.45
-20.70
-22.40
-25.47
-30.01
-34.88
-38.38
-38.21
-33.21
-23.34
-9.68
5.89
21.20
34.08
42.62
45.40
42.09
33.19
20.51
6.34
-7.40
-19.71
-30.52
-40.13
-48.69
-55.89
-61.32
-63.95
-63.19
-59.24
-52.92
-45.05
-36.06
-26.12
-15.46
-4.79
6.25
17.71
28.98
39.00
47.00
53.08
58.16
63.36
69.52
79.19
93.95
113.36
135.03
155.89
173.55
186.68
194.73
197.79
199.56
203.88
213.08
227.42
245.84
267.24
290.62
314.90
320.00
292.98
233.93
156.54
77.81
8.47
-47.94
-91.81
-124.62
-147.87
-160.05
-160.09
-150.31
-134.97
-118.82
-105.38
-96.23
-91.65
-91.01
-91.05
-88.99
-83.63
-75.93
-67.26
-58.59
-50.42
-43.05
-36.80
-30.54
-23.66
-16.13
-8.52
-1.65
3.67
6.67
6.48
2.41
-5.08
-15.61
-28.36
-42.29
-56.53
-70.84
-85.45
-100.87
-116.72
-131.05
-141.76
-146.50
-143.65
-132.98
-116.06
-95.41
-74.03
-53.75
-30.45
-3.90
22.53
44.52
60.15
70.02
76.56
80.74
82.67
82.53
80.01
75.37
68.54
60.20
50.78
40.30
26.97
9.19
-13.36
-39.92
-68.15
-94.69
-115.90
-129.31
-126.82
-106.27
-73.20
-37.57
-8.09
11.06
19.31
18.47
11.12
1.03
-9.19
-16.85
-19.47
-16.08
-7.70
3.22
15.18
26.27
35.69
42.73
47.42
50.37
52.06
52.67
52.04
50.35
47.72
44.14
38.88
30.32
18.43
4.49
-9.73
-22.91
-33.87
-43.22
-50.93
-56.65
-59.85
-60.00
-56.99
-49.00
-35.53
-16.52
8.23
35.45
60.07
77.83
87.14
88.53
83.76
74.46
62.20
49.71
36.95
24.57
14.02
6.44
1.65
-1.60
-5.33
-11.34
-19.78
-29.82
-41.21
-53.27
-63.98
-72.19
-77.21
-78.71
-76.43
-70.49
-61.88
-51.66
-40.58
-29.26
-18.27
-7.73
2.41
12.31
21.82
30.16
36.62
40.98
43.19
43.29
41.69
39.02
36.21
34.01
32.74
32.38
32.91
33.81
34.23
33.39
30.79
26.46
20.58
13.19
3.37
-8.19
-19.85
-29.86
-37.03
-41.76
-43.91
-43.26
-39.99
-34.79
-27.69
-19.65
-11.88
-5.42
-1.21
0.30
-0.33
-1.64
-2.16
-1.09
1.18
3.73
5.77
7.40
8.83
10.36
12.15
14.17
16.41
18.84
21.69
25.53
29.69
33.98
38.33
42.84
47.59
52.65
57.89
63.08
67.85
71.14
72.07
70.39
66.58
61.52
56.03
50.54
45.18
39.95
33.92
26.45
17.68
8.58
0.20
-7.02
-13.56
-20.28
-27.78
-37.11
-48.55
-61.35
-74.28
-86.76
-99.33
-113.41
-130.19
-142.42
-143.92
-133.72
-117.48
-102.59
-93.30
-89.26
-87.25
-83.05
-73.62
-59.60
-44.26
-31.67
-24.58
-24.68
-28.78
-32.54
-31.66
-23.19
-7.50
12.47
32.61
49.42
60.30
63.96
61.87
57.39
53.68
51.66
50.61
49.58
48.56
48.57
51.11
56.76
64.63
72.47
77.46
77.56
72.46
63.58
53.14
43.52
36.29
31.93
30.02
29.60
29.52
28.75
27.02
24.16
20.64
17.11
13.92
10.87
7.25
2.17
-5.12
-14.38
-24.35
-32.94
-38.19
-39.12
-36.07
-30.34
-23.61
-17.53
-12.99
-10.34
-9.49
-10.36
-13.01
-17.46
-23.51
-29.20
-33.55
-35.96
-36.26
-34.49
-30.96
-26.41
-21.64
-17.14
-12.69
-7.72
-1.76
4.65
9.61
11.85
10.93
8.13
5.63
4.91
5.43
5.09
1.52
-5.86
-15.02
-22.60
-25.72
-23.88
-19.24
-15.08
-13.43
-14.32
-15.99
-15.82
-12.94
-8.48
-4.39
-3.57
-7.97
-17.09
-28.50
-38.82
-45.44
-47.70
-46.71
-44.41
-42.44
-41.96
-41.68
-40.09
-35.93
-28.65
-18.47
-5.84
8.69
24.46
40.83
57.40
71.70
81.91
87.21
88.00
85.59
81.50
76.72
71.64
66.34
60.67
54.90
49.44
44.52
40.12
35.87
31.38
26.46
21.30
16.15
11.48
7.54
4.23
1.15
-2.19
-6.14
-10.73
-15.68
-20.63
-25.16
-29.09
-32.53
-35.85
-39.52
-43.94
-49.29
-55.40
-61.80
-67.59
-71.69
-73.15
-71.43
-66.74
-60.05
-52.84
-46.63
-42.50
-40.83
-41.29
-43.18
-45.61
-47.61
-48.35
-47.31
-44.71
-41.68
-39.95
-40.99
-45.07
-50.93
-56.21
-58.47
-56.16
-49.02
-37.70
-23.02
-5.47
14.68
36.86
59.86
81.94
101.48
117.68
130.81
141.98
152.40
162.61
171.93
178.66
180.66
176.27
164.91
147.41
126.06
103.84
83.46
66.39
52.67
41.40
31.36
21.53
11.32
0.92
-8.99
-17.60
-24.74
-31.00
-37.19
-43.98
-51.61
-59.84
-67.56
-73.27
-75.26
-72.41
-64.15
-50.03
-30.01
-4.96
19.87
36.93
40.06
29.65
11.90
-5.68
-18.04
-24.14
-26.03
-26.77
-27.13
-26.84
-24.12
-17.92
-8.88
1.09
9.51
14.63
16.38
16.72
16.98
19.31
24.55
32.01
40.07
46.44
48.99
46.50
38.76
26.29
10.47
-7.55
-27.29
-45.97
-60.54
-69.95
-75.07
-77.51
-78.26
-77.22
-74.16
-69.14
-62.51
-55.15
-49.24
-44.33
-39.58
-34.10
-27.01
-17.98
-7.17
5.02
17.76
30.25
42.23
53.59
63.65
71.65
76.71
78.13
75.52
68.76
58.12
44.49
28.91
12.48
-3.71
-18.81
-32.21
-43.47
-52.41
-58.92
-62.78
-63.88
-62.19
-57.74
-50.81
-41.88
-31.64
-20.90
-10.43
-0.81
7.52
14.26
19.30
22.60
24.20
24.25
23.00
20.79
17.98
14.82
11.44
7.93
4.37
0.91
-2.32
-5.25
-7.89
-10.31
-12.57
-14.63
-16.33
-17.47
-17.97
-17.93
-17.60
-17.28
-17.15
-17.19
-17.19
-16.87
-16.00
-14.52
-12.43
-9.88
-6.99
-3.90
-0.72
2.38
5.18
7.50
9.20
10.28
10.91
11.30
11.64
12.00
12.33
12.47
12.29
11.67
10.56
8.92
6.76
4.06
0.90
-2.60
-6.21
-9.63
-12.62
-15.05
-16.97
-18.68
-20.66
-23.37
-26.98
-31.23
-35.51
-39.15
-41.77
-43.40
-44.55
-45.92
-48.05
-50.98
-54.18
-56.87
-58.48
-59.08
-59.25
-60.03
-62.50
-67.30
-74.26
-82.59
-91.22
-99.10
-105.31
-108.40
-107.10
-100.96
-90.90
-78.94
-67.33
-57.39
-48.53
-38.30
-22.37
2.24
35.00
71.50
105.41
131.44
147.49
155.17
158.41
163.21
173.34
188.62
205.44
219.27
227.16
228.47
224.10
215.24
205.22
196.44
189.81
185.17
182.72
183.69
189.62
200.83
202.16
183.07
142.68
90.99
40.58
-0.71
-30.85
-51.58
-64.86
-75.67
-84.71
-91.32
-94.92
-96.04
-95.92
-95.89
-96.23
-97.48
-100.48
-103.76
-106.05
-106.91
-107.06
-107.52
-108.73
-110.17
-110.90
-109.95
-105.50
-97.28
-86.72
-76.51
-69.37
-66.96
-69.33
-75.44
-83.19
-89.43
-91.68
-88.24
-78.59
-63.34
-43.97
-22.20
0.26
22.68
46.25
69.36
88.82
101.94
108.27
109.11
108.40
107.43
106.50
105.26
102.63
97.94
90.05
79.15
65.93
51.26
35.71
19.98
4.71
-9.79
-23.02
-34.60
-44.45
-53.20
-61.92
-71.77
-83.13
-95.52
-107.82
-118.37
-125.53
-128.05
-125.48
-118.03
-106.43
-91.78
-75.22
-57.94
-40.78
-24.26
-8.53
6.63
21.64
36.76
51.47
64.79
75.65
83.27
87.26
87.56
84.46
78.47
70.14
59.27
45.92
30.91
15.95
3.01
-6.58
-12.37
-14.85
-15.23
-16.02
-19.40
-26.25
-36.02
-47.37
-59.23
-70.81
-81.67
-85.64
-79.35
-64.68
-47.57
-33.32
-23.91
-19.01
-17.22
-16.98
-17.04
-17.53
-18.74
-20.53
-23.33
-25.83
-27.42
-27.97
-27.58
-26.57
-25.99
-26.75
-29.04
-32.25
-35.39
-37.87
-39.40
-39.13
-36.81
-32.85
-27.73
-21.74
-14.89
-7.11
1.32
10.02
18.67
26.89
34.17
40.17
44.82
48.38
51.24
53.58
55.34
56.38
56.48
55.54
53.68
51.22
48.50
45.79
43.07
40.15
36.82
32.83
28.01
22.26
15.62
8.31
0.88
-5.93
-11.34
-14.74
-15.90
-14.98
-12.36
-8.49
-3.70
1.84
7.97
14.45
20.83
26.46
30.69
33.00
33.20
31.50
28.34
24.26
19.67
14.75
9.56
4.18
-1.13
-5.93
-9.67
-12.00
-12.91
-12.81
-12.31
-12.02
-12.25
-12.99
-13.99
-14.92
-15.62
-16.13
-16.64
-17.42
-18.64
-20.31
-22.23
-24.08
-25.44
-25.88
-24.99
-22.49
-18.22
-12.28
-5.04
2.96
11.04
18.62
25.28
30.85
35.31
38.70
41.02
42.21
42.20
41.06
38.99
36.36
33.54
30.85
28.45
26.36
24.54
22.95
21.64
20.64
19.96
19.51
19.13
18.59
17.70
16.37
14.56
12.33
9.76
6.94
3.94
0.83
-2.39
-5.68
-9.01
-12.26
-15.18
-17.47
-18.75
-18.71
-17.15
-14.11
-9.88
-5.00
-0.12
4.14
7.33
9.28
10.02
9.75
8.67
6.96
4.78
2.39
0.05
-1.94
-3.42
-4.42
-5.13
-5.82
-6.75
-7.99
-9.55
-11.33
-13.27
-15.35
-17.60
-19.99
-22.46
-24.79
-26.66
-27.66
-27.40
-25.64
-22.36
-17.78
-12.22
-6.07
0.37
6.86
13.24
19.35
25.05
30.20
34.69
38.48
41.53
43.81
45.19
45.44
44.30
41.56
37.22
31.54
25.03
18.33
12.04
6.50
1.76
-2.37
-6.16
-9.78
-13.19
-16.19
-18.59
-20.32
-21.48
-22.31
-23.05
-23.73
-24.18
-24.05
-23.08
-21.22
-18.72
-15.99
-13.46
-11.37
-9.77
-8.60
-7.87
-7.63
-7.93
-8.63
-9.30
-9.33
-8.05
-5.01
-0.14
6.31
13.87
22.09
30.62
39.19
47.51
55.21
61.87
67.09
70.61
72.37
72.56
71.50
69.53
66.96
63.98
60.75
57.40
53.96
50.45
46.78
42.85
38.40
33.05
26.42
18.24
8.54
-2.44
-14.26
-26.29
-37.90
-48.60
-58.07
-66.17
-72.75
-77.79
-81.54
-84.48
-87.02
-89.31
-91.21
-92.20
-91.59
-88.59
-82.73
-74.11
-63.22
-50.57
-36.46
-21.00
-4.75
10.19
21.54
28.38
31.35
31.63
30.33
28.31
26.12
24.47
24.03
25.64
29.80
36.24
43.52
49.32
52.00
49.03
39.62
24.96
7.97
-8.03
-20.52
-28.63
-32.26
-32.74
-32.21
-31.82
-32.24
-32.76
-33.04
-33.35
-34.42
-36.66
-39.92
-43.56
-46.13
-46.37
-43.75
-39.05
-32.69
-26.22
-20.89
-17.25
-15.21
-13.43
-10.36
-4.83
3.40
13.98
26.35
40.36
56.11
71.54
83.59
89.43
88.22
81.12
70.39
58.48
47.66
40.15
35.17
32.04
30.16
29.04
28.21
27.28
25.81
23.66
20.81
17.23
13.48
10.30
8.43
8.27
9.79
12.47
15.51
17.94
18.83
18.01
15.86
13.01
9.99
7.00
3.93
0.54
-3.38
-7.92
-12.81
-17.72
-22.49
-27.19
-32.07
-37.38
-43.17
-49.37
-55.80
-62.15
-68.11
-73.37
-77.67
-80.85
-82.91
-83.98
-84.27
-83.96
-82.98
-81.07
-77.90
-73.31
-67.53
-61.19
-55.07
-49.83
-45.74
-42.66
-40.16
-37.76
-35.10
-31.99
-28.35
-24.13
-19.24
-13.64
-7.36
-0.54
6.60
13.85
21.04
28.13
35.11
41.99
48.68
54.93
60.41
64.76
67.78
69.55
70.35
70.62
70.71
70.85
71.09
71.45
72.03
73.02
74.58
76.67
78.95
80.83
81.64
80.87
78.25
73.83
67.87
60.68
52.63
43.99
35.00
25.85
16.69
7.63
-1.28
-10.01
-18.52
-26.80
-34.73
-42.10
-48.60
-53.85
-57.46
-59.14
-58.79
-56.53
-52.76
-48.08
-43.19
-38.74
-35.17
-32.61
-30.93
-29.87
-29.19
-28.75
-28.54
-28.62
-29.05
-29.80
-30.76
-31.73
-32.46
-32.71
-32.28
-31.14
-29.45
-27.52
-25.76
-24.46
-23.74
-23.45
-23.36
-23.30
-23.29
-23.52
-24.23
-25.52
-27.30
-29.27
-31.14
-32.71
-34.00
-35.16
-36.35
-37.62
-38.93
-40.19
-41.33
-42.30
-42.97
-43.05
-42.15
-39.81
-35.78
-30.15
-23.28
-15.72
-7.96
-0.32
7.02
13.91
20.11
25.29
29.14
31.47
32.35
32.06
30.97
29.43
27.65
25.83
24.09
22.62
21.63
21.30
21.68
22.74
24.27
26.01
27.63
28.82
29.30
28.88
27.48
25.09
21.82
17.73
12.91
7.34
1.01
-6.07
-13.77
-21.75
-29.52
-36.46
-41.93
-45.45
-46.79
-45.97
-43.28
-39.19
-34.24
-28.95
-23.72
-18.83
-14.46
-10.75
-7.86
-5.96
-5.15
-5.29
-6.00
-6.67
-6.68
-5.56
-3.14
0.42
4.85
9.82
15.03
20.27
25.28
29.74
33.30
35.67
36.78
36.79
36.07
35.08
34.18
33.55
33.10
32.56
31.65
30.16
28.13
25.80
23.61
21.98
21.24
21.50
22.66
24.45
26.46
28.23
29.33
29.39
28.21
25.80
22.37
18.28
13.93
9.69
5.85
2.53
-0.24
-2.52
-4.40
-5.97
-7.29
-8.39
-9.25
-9.85
-10.22
-10.43
-10.59
-10.85
-11.35
-12.17
-13.27
-14.58
-15.91
-17.09
-17.94
-18.39
-18.45
-18.25
-17.97
-17.78
-17.68
-17.48
-16.73
-14.92
-11.59
-6.55
0.05
7.77
16.00
24.18
31.84
38.59
44.12
48.15
50.51
51.22
50.48
48.69
46.35
44.00
41.93
40.10
38.22
35.87
32.68
28.51
23.42
17.70
11.93
6.61
2.06
-1.71
-4.87
-7.77
-10.72
-14.00
-17.73
-21.69
-25.63
-29.49
-33.33
-37.21
-41.16
-45.01
-48.56
-51.58
-53.15
-52.69
-50.32
-46.66
-42.36
-38.02
-33.85
-30.07
-26.74
-22.34
-15.83
-7.40
1.84
10.80
18.61
25.25
30.73
35.06
40.47
48.22
57.83
67.96
78.26
89.33
102.96
119.99
139.72
162.96
188.54
212.79
231.31
241.47
242.60
236.72
226.17
195.82
142.59
77.95
19.46
-22.60
-44.53
-54.97
-59.99
-63.30
-66.90
-69.57
-70.13
-69.43
-69.62
-72.18
-77.73
-85.11
-93.33
-101.82
-108.13
-110.94
-111.05
-110.55
-110.97
-112.99
-115.68
-118.08
-119.54
-118.36
-113.85
-106.89
-99.33
-92.68
-87.85
-84.57
-82.37
-80.68
-78.26
-74.17
-68.27
-61.01
-52.96
-44.75
-36.76
-29.30
-22.46
-15.75
-8.56
-0.36
9.05
19.72
31.41
43.49
55.29
66.27
76.08
84.46
91.19
96.04
98.77
99.20
96.59
90.61
81.69
70.84
59.22
47.97
37.72
28.77
21.01
13.15
4.27
-5.70
-16.25
-26.93
-37.50
-48.08
-58.56
-68.53
-78.37
-87.67
-95.05
-98.89
-98.36
-93.54
-85.66
-76.11
-59.22
-34.29
-5.90
19.68
39.13
51.47
59.61
65.07
68.43
69.78
67.92
62.40
54.04
44.38
34.83
26.40
19.38
14.02
10.52
8.07
6.09
4.50
3.31
2.26
0.93
-1.15
-3.95
-7.03
-10.38
-13.84
-17.12
-19.89
-22.01
-23.46
-24.39
-24.75
-24.43
-23.62
-22.38
-20.64
-18.22
-15.05
-11.14
-6.69
-1.96
2.75
6.99
10.40
12.78
14.17
14.70
14.58
13.89
12.58
10.54
7.67
4.07
0.10
-3.74
-7.06
-9.71
-11.86
-13.88
-16.17
-18.94
-22.08
-25.22
-27.84
-29.41
-29.50
-27.82
-24.27
-19.07
-12.73
-5.88
0.85
6.95
12.17
16.50
20.10
23.09
25.23
26.11
25.48
23.33
19.97
15.92
11.89
8.63
6.67
5.67
4.96
3.97
2.53
0.75
-1.11
-2.64
-3.43
-3.14
-2.46
-1.98
-1.82
-1.45
-0.40
1.32
3.14
4.24
3.84
0.53
-6.31
-16.10
-27.35
-38.63
-49.31
-59.48
-69.58
-73.37
-67.09
-51.94
-33.41
-16.58
-3.76
4.75
9.50
11.32
11.07
8.68
4.29
-1.38
-6.86
-10.76
-12.36
-11.64
-8.78
-3.82
2.01
8.90
17.05
26.61
37.14
47.46
56.10
62.25
65.81
66.93
65.51
61.27
54.31
45.48
36.11
27.59
20.99
16.13
11.39
3.94
-8.73
-27.17
-48.95
-69.72
-85.65
-94.71
-100.68
-105.08
-108.80
-111.99
-113.89
-113.56
-107.59
-94.97
-75.99
-52.18
-25.23
2.77
30.27
56.70
82.01
102.90
114.78
115.24
106.03
92.36
79.27
69.86
64.68
62.17
59.72
55.17
48.02
39.16
30.27
22.48
16.33
11.95
9.29
8.18
8.39
9.57
10.97
11.65
10.76
8.28
5.04
2.25
0.71
0.56
1.47
3.04
4.92
6.76
8.03
8.02
5.98
1.50
-4.62
-11.21
-16.60
-19.69
-20.61
-20.49
-20.65
-21.73
-23.28
-24.01
-22.66
-18.81
-13.29
-7.77
-4.06
-2.88
-3.62
-4.66
-4.28
-1.60
2.98
8.14
12.32
14.56
14.95
14.42
14.22
15.24
17.74
21.18
24.69
27.25
28.12
26.99
23.95
19.57
14.11
7.91
1.25
-5.45
-11.57
-16.28
-18.74
-18.42
-15.35
-10.32
-4.53
0.70
4.74
7.73
10.27
13.06
16.37
19.80
22.43
23.25
21.28
16.51
9.65
1.76
-6.18
-13.44
-19.63
-24.66
-28.62
-31.97
-34.64
-36.44
-37.28
-37.29
-36.90
-36.74
-37.49
-37.16
-36.76
-36.90
-37.52
-38.07
-37.69
-35.47
-30.80
-23.65
-14.86
-6.42
-0.07
2.98
2.35
-1.16
-6.06
-11.20
-15.32
-17.69
-18.33
-17.16
-14.31
-10.26
-5.73
-1.75
0.74
1.30
0.08
-2.23
-4.12
-3.44
1.41
11.44
26.33
43.93
60.61
72.24
75.84
71.13
60.77
48.90
39.58
34.74
33.79
34.60
35.04
34.17
32.42
30.90
28.97
25.29
18.38
7.97
-4.36
-15.93
-24.35
-28.67
-29.44
-27.68
-23.25
-14.72
-0.39
19.94
43.90
67.09
84.91
94.72
96.31
91.69
83.14
71.85
57.72
40.37
20.37
-0.26
-17.80
-29.52
-35.50
-38.91
-44.35
-55.24
-71.82
-90.77
-107.19
-116.94
-118.24
-111.78
-99.81
-85.00
-70.01
-57.66
-50.85
-52.34
-62.96
-79.98
-97.18
-106.90
-103.12
-83.89
-52.00
-13.28
25.02
56.87
79.10
91.11
94.06
89.87
80.62
66.60
51.03
37.06
24.77
12.41
-1.07
-14.52
-25.55
-32.26
-34.41
-33.05
-30.12
-28.55
-27.23
-24.74
-20.39
-14.77
-9.13
-3.97
2.11
11.27
25.98
44.31
61.02
72.62
78.00
77.93
74.75
71.24
68.92
66.07
61.36
53.93
42.07
27.15
12.53
0.64
-8.48
-16.71
-25.30
-33.66
-39.50
-40.35
-35.12
-25.08
-14.33
-5.71
-1.66
-3.26
-10.24
-20.85
-32.40
-41.80
-46.48
-45.19
-38.21
-27.46
-13.55
0.86
13.02
21.03
24.11
22.55
17.95
11.70
3.84
-6.00
-17.61
-29.24
-38.15
-41.72
-38.81
-30.53
-20.09
-11.55
-7.74
-9.34
-14.44
-19.70
-22.43
-21.24
-16.68
-10.76
-5.53
-1.72
1.27
4.96
10.61
18.17
26.58
34.32
39.68
41.67
40.57
37.58
34.23
31.66
30.86
31.27
32.21
32.62
31.90
30.26
28.43
27.11
26.54
26.32
25.91
25.15
23.59
21.34
19.46
19.49
22.35
27.70
33.24
36.56
35.88
29.62
17.20
-0.62
-22.18
-45.33
-67.81
-87.20
-101.07
-102.80
-89.56
-65.21
-37.88
-14.63
1.11
8.67
8.96
4.06
-3.18
-10.52
-16.19
-19.30
-20.41
-21.11
-23.08
-26.70
-30.54
-32.29
-30.70
-26.07
-19.82
-14.19
-9.91
-7.13
-5.06
-2.23
2.74
9.99
18.59
26.92
33.51
37.81
40.60
42.50
43.64
43.58
41.28
35.88
27.39
16.78
5.48
-5.62
-15.49
-23.99
-31.15
-36.62
-39.59
-39.13
-34.73
-26.56
-16.08
-4.67
5.67
12.93
15.82
14.40
10.23
5.92
4.00
5.70
10.16
14.89
17.44
16.81
13.90
10.79
9.45
9.88
11.31
12.28
11.29
7.74
2.01
-5.04
-12.53
-19.76
-26.08
-30.62
-32.41
-30.75
-25.46
-17.19
-7.32
2.43
10.49
15.94
18.61
18.77
16.77
12.79
7.05
0.15
-6.56
-11.05
-11.06
-5.01
7.13
23.61
41.40
57.51
70.07
78.65
83.71
85.89
85.42
82.20
76.38
68.58
60.07
52.32
45.91
39.96
32.67
22.31
8.24
-8.51
-25.92
-41.34
-52.33
-57.74
-57.94
-54.42
-49.17
-44.07
-40.50
-39.60
-41.84
-47.12
-53.19
-58.00
-60.60
-61.64
-65.52
-72.82
-82.66
-93.92
-102.92
-107.55
-107.04
-101.56
-91.90
-75.43
-52.35
-25.69
0.78
24.55
44.04
58.23
66.41
68.44
65.50
59.68
53.37
48.70
46.88
47.30
48.42
49.24
48.71
46.95
44.59
42.18
40.12
38.65
37.56
36.68
36.12
36.21
37.54
40.16
43.18
45.74
47.66
48.30
47.96
46.89
44.87
41.26
35.11
25.19
11.67
-3.79
-19.00
-32.41
-44.08
-55.47
-68.31
-83.62
-101.75
-121.01
-138.17
-149.85
-153.74
-149.34
-137.41
-119.08
-90.16
-51.46
-9.28
26.99
49.72
56.19
48.76
33.81
19.47
12.44
14.64
23.73
34.98
43.91
48.33
48.81
47.85
47.95
49.91
51.87
51.41
47.24
39.82
30.86
22.54
16.55
13.71
13.73
15.25
16.72
17.04
15.38
11.23
4.58
-3.89
-12.61
-19.50
-22.85
-21.69
-16.28
-8.02
1.01
8.94
14.58
17.68
18.41
17.09
14.01
9.41
3.87
-1.77
-6.31
-8.97
-9.57
-8.69
-7.07
-5.07
-2.83
-0.41
1.74
3.42
3.76
2.10
-1.97
-7.77
-12.80
-13.71
-7.60
6.04
25.09
44.51
60.81
71.26
74.84
72.15
62.27
45.64
23.55
-1.73
-27.65
-49.57
-64.49
-72.05
-73.06
-68.34
-58.94
-49.72
-42.58
-41.04
-47.50
-62.05
-82.15
-104.12
-121.18
-128.33
-122.75
-97.81
-56.63
-11.00
25.69
46.97
54.89
55.92
55.59
55.83
55.28
49.71
37.03
19.52
2.75
-7.57
-8.62
-1.83
8.63
18.54
24.37
25.37
23.61
22.08
23.09
27.83
36.24
47.62
60.29
71.25
76.25
72.47
59.59
40.08
18.56
-0.07
-12.27
-17.00
-15.60
-11.07
-6.14
-2.29
0.22
1.73
2.47
2.40
1.11
-1.87
-6.55
-12.17
-17.54
-21.62
-24.08
-25.55
-26.96
-28.93
-31.36
-32.90
-32.07
-28.20
-21.96
-14.79
-8.05
-2.10
3.56
9.24
14.22
16.84
15.68
10.94
5.04
1.66
3.76
11.56
22.16
30.98
34.01
29.87
20.32
9.15
0.04
-5.20
-7.23
-7.97
-9.30
-11.42
-12.72
-11.09
-5.70
2.05
8.94
11.65
8.58
0.69
-9.09
-17.51
-22.53
-23.94
-23.14
-21.95
-21.57
-22.16
-23.04
-23.28
-22.20
-19.77
-16.18
-12.01
-7.94
-4.47
-1.81
0.16
1.76
3.36
5.12
6.98
8.65
9.81
10.30
10.20
9.73
9.08
8.41
7.82
7.59
8.09
9.69
12.55
16.35
20.25
23.10
24.00
22.77
20.05
16.83
13.86
11.32
8.87
6.02
2.31
-2.27
-7.30
-12.00
-15.67
-17.88
-18.56
-17.93
-16.42
-15.02
-14.30
-14.22
-14.07
-12.94
-10.11
-5.10
2.50
13.29
27.33
44.26
61.97
77.32
87.79
92.46
91.66
86.05
76.04
60.35
39.32
15.06
-8.95
-29.27
-44.55
-55.05
-62.15
-67.97
-76.77
-90.41
-108.07
-126.89
-143.14
-153.44
-155.70
-149.78
-126.20
-88.73
-46.21
-6.64
26.61
53.96
76.55
93.78
102.93
103.11
90.41
65.66
34.31
3.98
-18.84
-30.91
-32.59
-27.01
-18.07
-9.45
-2.84
2.10
6.46
10.98
15.65
20.23
24.96
29.56
33.41
36.91
40.54
43.98
46.15
45.98
43.30
39.03
34.73
31.37
29.39
28.52
27.80
26.02
22.45
17.23
11.42
6.52
3.68
3.23
4.63
6.60
7.69
6.90
4.06
-0.23
-5.41
-10.88
-16.47
-21.96
-27.06
-31.42
-34.88
-37.70
-40.63
-44.58
-48.86
-53.09
-55.40
-53.35
-45.04
-30.09
-9.97
12.40
33.40
49.70
58.83
59.96
53.87
42.57
28.72
14.92
3.00
-6.16
-12.35
-15.73
-16.25
-13.85
-8.90
-2.45
3.83
8.06
8.94
6.25
0.82
-5.75
-11.86
-16.48
-19.32
-20.56
-20.51
-19.22
-16.46
-11.94
-5.91
0.83
6.89
10.81
11.75
9.91
6.34
2.34
-1.32
-4.61
-8.08
-12.44
-17.96
-24.50
-31.56
-38.37
-43.98
-47.33
-47.31
-43.10
-34.78
-23.26
-10.38
1.63
11.10
17.50
21.35
23.75
25.62
27.32
28.67
29.52
29.80
30.04
30.98
33.04
35.99
38.89
40.44
39.64
36.28
30.92
24.66
18.53
12.99
7.89
2.64
-3.30
-10.06
-17.20
-23.93
-29.34
-32.76
-33.98
-33.24
-31.13
-28.40
-26.01
-24.31
-23.66
-24.18
-25.70
-27.89
-30.24
-32.25
-33.53
-33.85
-33.16
-31.57
-29.29
-26.60
-23.77
-21.10
-18.82
-17.05
-15.68
-14.35
-12.44
-9.10
-3.42
5.23
16.91
30.47
44.07
55.46
62.63
64.56
61.65
55.60
48.62
42.62
38.48
35.91
33.96
31.67
28.71
25.42
22.43
20.12
18.40
16.93
15.58
14.74
15.09
17.01
20.00
22.74
22.98
19.06
10.67
-0.88
-13.18
-23.75
-30.98
-34.48
-34.96
-33.55
-31.16
-28.37
-25.52
-22.99
-21.23
-20.56
-20.89
-21.67
-22.02
-21.16
-18.85
-15.51
-12.02
-9.07
-6.80
-4.63
-1.82
2.11
7.02
12.36
17.33
21.25
23.86
25.14
25.25
24.07
21.79
19.16
17.42
17.84
20.94
26.11
32.00
37.22
40.48
41.68
41.94
42.11
43.36
45.91
48.96
51.25
51.84
49.43
43.54
34.48
23.09
10.03
-4.57
-20.69
-37.90
-54.99
-71.78
-88.24
-104.17
-119.21
-132.98
-145.63
-157.56
-168.94
-171.13
-158.01
-128.60
-87.79
-42.88
-0.56
34.13
58.82
74.48
86.60
98.48
110.17
119.04
121.57
115.30
100.43
80.13
59.41
41.43
26.89
12.57
-6.66
-34.59
-71.41
-113.33
-153.69
-184.79
-199.25
-193.18
-166.99
-124.09
-69.24
-7.97
53.65
107.43
140.42
146.22
129.90
102.78
75.04
52.94
39.33
34.74
38.26
48.13
62.58
78.88
93.20
101.75
102.37
94.68
79.60
59.13
36.51
16.26
2.29
-4.07
-4.73
-3.50
-4.13
-8.65
-15.97
-23.02
