1698846372.00
64.000000
-0.00
-0.00
-0.00
-0.00
-0.00
-0.00
-0.00
-0.00
-0.00
-0.00
0.00
0.01
0.01
-0.00
-0.03
-0.05
-0.05
0.00
0.13
0.36
0.66
1.01
1.37
1.72
2.06
2.40
2.79
3.24
3.80
4.42
5.06
5.66
6.20
6.68
7.15
7.68
8.31
9.14
10.09
11.04
11.88
12.56
13.14
13.76
14.65
15.96
17.91
20.32
22.90
25.38
27.58
29.57
31.68
34.32
37.81
42.54
48.15
54.10
59.83
64.97
69.58
74.14
79.34
85.71
93.76
103.00
112.62
121.73
129.77
136.75
143.30
150.75
157.77
166.64
177.95
191.79
206.97
220.57
228.25
225.36
208.53
176.86
132.76
80.06
23.09
-34.90
-92.40
-149.15
-205.29
-260.54
-314.03
-364.26
-410.28
-451.36
-486.94
-516.17
-537.68
-549.75
-550.61
-539.16
-515.11
-479.64
-434.84
-383.38
-327.94
-270.82
-213.78
-158.05
-104.61
-54.23
-7.83
33.73
69.70
99.67
123.65
142.05
155.65
165.30
171.86
175.91
177.75
177.45
174.98
170.37
163.85
155.93
147.28
138.58
130.32
122.65
115.30
107.80
99.69
90.75
81.21
71.61
62.63
54.76
48.11
42.37
37.02
31.54
25.51
18.64
10.79
2.16
-6.37
-13.05
-15.65
-12.28
-2.52
11.94
27.74
41.04
49.19
51.73
50.32
47.59
45.71
45.49
46.40
47.42
47.88
47.88
47.96
48.44
48.92
48.27
45.22
39.01
29.96
19.46
9.40
1.32
-4.16
-7.40
-9.20
-10.10
-10.08
-8.73
-5.86
-1.99
1.60
3.52
2.96
0.27
-3.18
-5.79
-6.51
-5.39
-3.47
-2.13
-2.38
-4.34
-7.32
-10.16
-11.87
-11.94
-10.54
-8.36
-6.10
-4.30
-3.08
-2.25
-1.53
-0.69
0.26
1.10
1.46
1.00
-0.44
-2.70
-5.30
-7.60
-9.10
-9.56
-9.12
-8.05
-6.50
-4.35
-1.37
2.51
6.92
11.04
13.91
14.90
14.00
11.97
9.89
8.72
8.81
9.78
10.79
11.05
10.25
8.70
7.08
6.00
5.64
5.68
5.56
4.87
3.59
2.03
0.59
-0.67
-1.92
-3.44
-5.37
-7.60
-9.80
-11.73
-13.32
-14.61
-15.61
-16.12
-15.68
-13.87
-10.60
-6.26
-1.72
2.03
4.29
4.87
4.16
2.87
1.75
1.27
1.60
2.53
3.67
4.57
4.87
4.46
3.38
1.85
0.12
-1.63
-3.30
-4.86
-6.29
-7.56
-8.69
-9.86
-11.31
-13.32
-15.98
-19.11
-22.25
-24.90
-26.64
-27.25
-26.71
-25.11
-22.51
-19.02
-14.87
-10.44
-6.23
-2.67
0.04
1.85
2.80
2.86
1.89
-0.36
-3.93
-8.63
-14.17
-19.66
-24.02
-26.26
-25.82
-22.72
-17.74
-11.92
-6.38
-1.90
1.45
4.05
6.67
10.02
14.43
19.37
23.98
26.98
27.11
23.85
17.42
9.05
0.66
-5.54
-7.96
-5.30
1.56
10.88
20.39
27.16
28.99
25.13
19.17
13.13
9.43
10.42
17.75
32.73
53.80
78.33
102.90
124.48
140.73
150.86
154.57
146.34
123.77
88.13
44.64
0.43
-37.93
-66.45
-83.91
-92.09
-94.75
-95.08
-95.19
-95.34
-94.45
-90.96
-83.94
-73.13
-59.22
-43.87
-28.64
-15.47
-6.17
-1.68
-1.64
-5.18
-11.02
-17.70
-25.03
-32.95
-41.44
-49.86
-56.70
-59.85
-57.61
-49.17
-35.24
-17.94
0.36
17.55
32.01
42.32
48.52
51.67
53.78
56.72
61.35
66.75
69.91
66.24
51.66
25.94
-9.22
-48.29
-84.11
-110.61
-124.94
-127.55
-121.05
-108.25
-91.08
-70.73
-48.25
-25.83
-6.72
5.80
10.20
7.36
0.46
-7.54
-14.62
-18.73
-19.10
-14.86
-7.49
1.88
11.96
22.70
34.45
47.48
61.74
76.58
91.08
104.26
115.73
125.43
133.57
140.24
145.42
149.03
150.86
150.89
149.29
146.58
143.06
138.45
131.50
120.68
105.06
85.09
62.70
40.40
20.06
1.91
-15.25
-32.83
-51.08
-68.58
-83.10
-93.18
-99.27
-103.50
-108.47
-115.56
-124.20
-132.15
-136.85
-136.65
-131.32
-121.77
-109.23
-94.75
-79.11
-62.99
-47.16
-32.39
-19.38
-8.52
0.05
6.42
10.88
13.92
16.18
18.30
20.67
23.27
25.64
27.22
27.61
26.86
25.43
23.97
23.03
22.85
23.29
23.82
23.68
22.02
18.15
11.77
3.29
-6.22
-15.24
-22.38
-26.98
-29.47
-31.18
-33.74
-38.18
-44.51
-51.56
-57.75
-61.90
-63.76
-64.02
-63.74
-63.82
-64.57
-65.88
-67.24
-68.13
-67.80
-65.12
-58.57
-46.89
-29.84
-8.81
13.12
32.57
46.81
55.04
58.70
60.77
64.54
72.26
84.47
99.48
115.03
127.93
135.35
135.54
128.33
115.24
99.09
83.31
70.14
62.32
60.27
62.97
68.36
73.93
77.30
76.74
71.62
61.19
47.99
33.46
18.64
3.84
-11.20
-26.85
-43.09
-59.19
-75.48
-89.04
-99.14
-105.76
-109.49
-111.25
-112.09
-113.02
-105.12
-101.45
-100.24
-101.29
-104.11
-108.04
-112.37
-116.30
-118.82
-118.74
-116.49
-109.78
-99.04
-85.71
-71.72
-58.77
-47.70
-38.55
-31.02
-26.16
-22.81
-21.18
-21.05
-21.59
-21.64
-20.17
-16.73
-11.40
-5.25
2.32
11.29
21.58
32.73
43.73
53.28
60.20
63.79
63.71
60.95
56.45
51.16
45.84
40.87
36.32
32.10
28.17
24.46
21.15
18.23
15.50
12.84
10.39
8.65
8.28
9.68
12.61
16.10
18.84
19.81
18.76
16.32
13.69
12.07
12.21
14.25
17.90
22.70
28.20
34.01
39.67
44.61
48.24
50.28
50.87
50.66
50.58
51.43
53.61
56.99
60.96
64.73
67.59
69.21
69.57
68.82
66.99
63.79
58.72
51.37
41.91
31.38
21.53
14.23
10.64
10.78
13.59
17.65
21.95
26.31
31.22
37.24
44.38
51.95
58.92
64.58
69.04
73.24
78.46
85.52
94.23
103.20
110.37
113.69
111.84
104.47
92.07
75.58
56.05
34.62
12.58
-8.78
-28.52
-46.52
-63.56
-80.90
-99.32
-118.43
-136.60
-151.64
-161.85
-166.74
-167.10
-164.55
-160.82
-157.39
-155.16
-154.39
-154.55
-154.25
-151.54
-144.65
-132.75
-116.39
-97.18
-76.96
-56.98
-37.58
-18.56
0.18
18.41
35.70
51.93
67.39
82.36
96.35
107.67
113.86
112.88
104.48
90.73
75.45
62.66
55.14
53.64
57.30
64.53
73.86
83.93
93.03
98.59
97.50
87.28
67.53
40.56
10.64
-17.91
-42.72
-64.05
-84.01
-104.48
-125.35
-143.97
-156.26
-158.90
-151.07
-134.93
-114.60
-94.22
-76.38
-61.45
-48.18
-34.85
-20.48
-5.46
8.76
20.35
28.02
31.62
32.07
30.82
29.11
27.46
25.62
23.04
19.46
15.20
11.14
8.23
6.95
6.94
7.23
6.73
4.96
2.45
0.58
0.97
4.65
11.46
20.02
28.34
34.70
38.23
39.10
38.12
36.15
33.67
30.81
27.63
24.32
21.26
18.65
16.11
12.63
6.84
-2.32
-15.01
-30.31
-46.54
-61.98
-75.41
-86.35
-94.76
-100.59
-103.51
-102.95
-98.54
-90.46
-79.62
-67.30
-54.80
-43.08
-32.74
-24.21
-17.98
-14.51
-14.06
-16.34
-20.42
-24.94
-28.54
-30.29
-29.99
-28.08
-25.44
-23.06
-21.73
-21.90
-23.67
-26.80
-30.86
-35.31
-39.63
-43.39
-46.32
-48.38
-49.74
-50.77
-52.05
-54.20
-57.72
-62.68
-68.56
-74.17
-77.88
-77.99
-73.25
-63.25
-48.51
-30.37
-10.61
8.91
26.54
41.02
51.64
58.34
61.64
62.55
62.24
61.70
61.45
61.52
61.52
60.92
59.24
56.14
51.57
45.82
39.51
33.52
28.63
25.21
22.99
21.20
18.99
15.94
12.27
8.72
6.10
4.87
4.99
5.99
7.39
8.91
10.52
12.34
14.49
17.08
20.29
24.42
29.75
36.46
44.39
53.14
62.14
70.85
78.84
85.75
91.26
95.06
96.85
96.53
94.21
90.30
85.33
79.82
74.16
68.50
62.87
57.19
51.43
45.56
39.60
33.55
27.43
21.27
15.03
8.71
2.19
-4.65
-11.96
-19.72
-27.71
-35.54
-42.73
-48.98
-54.33
-59.11
-63.79
-68.52
-72.97
-76.23
-77.13
-74.65
-68.31
-58.32
-45.47
-30.87
-15.66
-0.86
12.63
24.09
32.91
38.78
41.66
41.88
40.00
36.64
32.44
27.96
23.61
19.66
16.11
12.69
8.93
4.40
-1.05
-7.09
-13.08
-18.28
-22.14
-24.45
-25.25
-24.71
-23.13
-20.93
-18.90
-18.13
-19.82
-24.81
-33.13
-43.81
-54.94
-64.17
-69.22
-68.59
-61.85
-49.85
-34.51
-18.35
-3.76
7.58
15.18
19.73
22.72
25.74
29.86
35.24
41.26
46.81
50.82
52.55
51.79
48.90
44.67
40.13
36.25
33.58
32.13
31.37
30.54
28.99
26.47
23.15
19.41
15.52
11.46
6.91
1.49
-5.03
-12.64
-21.09
-30.02
-38.92
-47.12
-53.86
-58.39
-60.16
-58.98
-55.10
-49.07
-41.57
-33.26
-24.76
-16.58
-9.24
-3.14
1.50
4.73
6.86
8.28
9.36
10.30
11.21
12.27
13.83
16.37
20.31
25.80
32.57
39.94
47.08
53.28
58.11
61.40
63.21
63.63
62.72
60.62
57.49
53.59
49.23
44.60
39.75
34.60
29.13
23.50
18.24
14.17
12.25
13.22
17.30
24.03
32.26
40.44
47.19
51.64
53.75
54.08
53.47
52.55
51.55
50.29
48.51
46.07
43.19
40.47
38.71
38.79
41.26
46.24
53.18
60.94
67.99
72.78
74.21
71.84
66.03
57.74
48.26
38.75
29.77
20.96
11.01
-1.91
-19.21
-40.98
-65.56
-90.05
-111.44
-127.87
-139.14
-146.27
-150.45
-152.02
-150.29
-144.30
-133.92
-120.47
-106.41
-94.26
-85.43
-79.71
-75.70
-71.84
-67.36
-62.53
-58.24
-55.26
-53.62
-52.58
-51.05
-48.15
-43.71
-38.20
-32.53
-27.58
-23.94
-21.71
-20.63
-20.24
-20.12
-20.03
-19.96
-20.09
-20.64
-21.68
-22.96
-23.96
-23.98
-22.40
-18.91
-13.60
-6.94
0.36
7.58
14.08
19.44
23.40
25.89
26.93
26.72
25.52
23.65
21.35
18.70
15.59
11.79
7.05
1.27
-5.42
-12.62
-19.73
-26.11
-31.21
-34.73
-36.67
-37.33
-37.21
-36.90
-36.98
-37.87
-39.73
-42.42
-45.49
-48.30
-50.16
-50.45
-48.75
-44.82
-38.58
-30.03
-19.32
-6.78
7.01
21.21
34.83
46.98
56.96
64.41
69.27
71.73
72.14
70.94
68.59
65.51
62.13
58.82
55.89
53.54
51.85
50.78
50.14
49.66
49.10
48.23
46.88
44.94
42.31
38.93
34.83
30.10
24.89
19.35
13.58
7.57
1.33
-4.96
-10.89
-15.75
-18.78
-19.36
-17.22
-12.66
-6.36
0.77
7.87
14.34
19.83
24.16
27.15
28.45
27.54
23.94
17.47
8.55
-1.81
-12.18
-21.08
-27.42
-30.65
-30.81
-28.35
-23.85
-17.91
-11.10
-3.97
2.89
8.90
13.56
16.63
18.05
17.86
16.27
13.60
10.30
6.95
4.13
2.30
1.85
2.97
5.69
9.87
15.23
21.36
27.71
33.64
38.47
41.76
43.27
42.91
40.78
37.14
32.35
26.85
20.97
14.98
9.47
4.97
1.75
-0.24
-1.24
-1.60
-1.65
-1.74
-2.09
-2.00
-0.76
1.78
4.95
7.69
9.04
8.46
5.98
2.16
-0.79
-0.70
3.46
11.24
21.28
32.24
43.09
53.20
62.26
71.72
82.96
96.15
110.12
123.34
134.69
143.52
149.27
141.71
114.98
71.10
19.64
-28.69
-67.66
-96.20
-116.05
-129.47
-137.92
-141.23
-138.10
-128.67
-115.22
-101.36
-90.39
-84.22
-83.09
-85.86
-89.64
-91.07
-88.72
-83.00
-75.26
-66.76
-58.13
-49.45
-40.63
-30.93
-19.92
-8.02
3.97
15.24
25.26
33.52
39.18
40.88
37.40
27.86
12.01
-8.82
-32.11
-54.89
-74.67
-90.12
-101.11
-108.23
-112.37
-114.32
-113.65
-109.87
-103.19
-94.67
-85.61
-76.77
-68.05
-58.84
-48.34
-34.48
-15.88
7.45
34.13
62.20
90.05
116.47
140.27
160.25
177.37
192.69
206.84
219.49
229.98
237.96
243.00
244.08
227.87
187.05
124.34
52.28
-15.24
-69.45
-106.85
-127.40
-133.09
-127.26
-112.19
-90.81
-66.70
-42.79
-22.16
-6.85
2.16
4.53
0.48
-7.38
-17.65
-26.44
-30.39
-28.03
-19.98
-8.77
2.02
9.12
11.77
10.93
8.56
5.93
3.29
0.29
-3.65
-9.03
-15.90
-23.12
-29.09
-32.07
-31.25
-26.85
-20.14
-12.59
-6.15
-2.84
-4.07
-10.32
-20.69
-33.32
-45.35
-54.25
-58.68
-59.01
-56.91
-54.30
-52.34
-50.77
-48.39
-43.83
-36.53
-26.98
-16.64
-7.12
0.42
5.78
9.62
12.94
16.43
20.06
23.22
25.12
25.31
23.97
21.84
19.92
19.03
19.53
21.23
23.57
25.84
27.42
28.05
27.77
26.93
25.97
25.21
24.67
24.12
23.17
21.46
18.94
15.61
11.77
7.81
4.07
0.63
-2.60
-5.75
-8.89
-11.82
-14.15
-15.41
-15.25
-13.74
-11.45
-9.30
-8.19
-8.65
-10.62
-13.47
-16.36
-18.45
-19.26
-18.62
-16.50
-12.85
-7.66
-1.15
5.94
11.82
14.67
13.29
7.65
-0.91
-10.15
-17.80
-22.44
-23.80
-22.56
-19.63
-15.74
-11.29
-6.54
-1.93
1.89
4.07
4.14
2.35
0.18
-0.04
4.24
13.96
27.29
39.74
45.93
42.38
29.57
12.17
-3.43
-12.75
-15.60
-15.65
-17.51
-23.62
-31.99
-38.30
-38.84
-33.06
-23.90
-15.83
-11.99
-12.54
-15.05
-16.52
-15.34
-11.90
-7.72
-4.16
-1.57
0.59
2.97
5.62
7.91
8.96
8.36
6.45
4.24
2.75
2.70
4.16
6.91
10.43
14.17
17.76
20.93
23.29
24.02
22.23
17.38
9.89
1.28
-6.40
-11.28
-13.01
-11.57
-7.47
-1.97
2.69
3.57
-1.94
-14.76
-33.15
-52.96
-69.43
-80.03
-84.30
-83.90
-81.47
-79.14
-77.41
-75.09
-70.21
-60.98
-46.32
-26.76
-3.98
19.85
42.72
63.14
80.31
93.98
104.35
111.88
117.22
121.09
124.14
126.78
129.09
130.84
131.67
131.40
130.27
128.99
128.43
129.38
132.12
136.37
141.51
146.86
151.99
156.68
160.61
163.00
162.56
157.84
147.91
133.04
114.84
95.95
79.15
66.56
59.08
56.39
57.39
60.38
63.86
66.86
68.66
68.73
66.86
63.27
58.39
52.42
44.56
33.58
18.63
-0.07
-20.92
-41.05
-57.17
-66.57
-68.03
-62.84
-53.07
-40.81
-28.13
-17.16
-9.62
-5.94
-4.74
-3.38
-1.60
0.55
2.30
1.60
-4.48
-17.48
-35.84
-55.46
-72.12
-88.87
-109.22
-134.68
-164.87
-198.56
-233.54
-266.85
-296.10
-321.10
-351.57
-393.73
-446.55
-504.46
-562.41
-616.80
-664.16
-700.43
-721.30
-732.98
-737.35
-730.07
-705.85
-664.55
-610.76
-550.14
-487.19
-364.58
-175.64
36.63
217.69
342.68
415.88
453.05
470.03
478.42
484.70
481.40
464.40
436.70
404.64
371.73
338.41
304.99
273.39
246.78
220.79
194.53
171.42
155.71
147.88
145.11
144.46
144.52
145.90
145.73
144.52
144.73
147.99
151.46
148.53
133.21
103.94
65.30
23.94
-8.96
-24.73
-20.82
-1.36
25.64
52.77
74.61
87.51
87.86
74.09
48.17
16.81
-9.67
-23.36
-20.18
-2.78
20.88
41.45
52.88
54.41
49.10
44.03
43.82
48.80
54.78
56.38
48.33
29.08
0.78
-31.35
-61.01
-83.16
-93.98
-92.76
-80.93
-61.33
-37.59
-14.14
4.53
15.29
17.21
12.20
3.74
-4.67
-11.16
-15.71
-18.92
-21.38
-22.82
-22.65
-20.40
-16.32
-10.93
-4.81
1.71
8.29
14.10
18.18
19.73
18.70
15.76
12.17
9.07
7.12
6.36
5.93
5.19
4.03
2.96
2.59
3.33
5.04
7.06
8.21
6.37
-0.45
-13.31
-31.62
-52.67
-71.91
-84.27
-85.98
-72.62
-45.19
-9.59
25.58
52.45
66.79
69.19
63.73
55.51
47.96
41.23
33.94
25.40
16.99
11.70
12.10
18.21
27.21
34.64
36.21
30.34
18.76
4.74
-9.45
-24.02
-41.03
-61.67
-84.62
-106.39
-122.48
-129.31
-125.83
-113.94
-97.06
-78.46
-59.24
-38.87
-16.96
6.03
29.02
50.89
70.68
88.12
98.52
98.68
90.39
79.09
69.27
62.33
57.61
53.92
50.99
49.20
49.37
50.81
50.14
42.59
25.11
-0.46
-30.11
-57.16
-75.51
-81.57
-75.50
-60.85
-42.48
-24.24
-8.20
4.59
13.63
18.29
17.27
11.74
5.10
1.36
2.89
9.39
17.80
24.04
24.55
17.93
5.57
-9.18
-22.38
-30.79
-32.97
-29.81
-23.83
-18.24
-14.66
-13.10
-12.25
-10.35
-6.23
0.08
7.12
12.66
14.15
10.96
4.52
-2.67
-8.41
-12.01
-13.84
-14.32
-12.62
-6.40
6.84
27.10
50.11
68.88
75.93
67.58
46.29
19.75
-2.94
-15.34
-16.27
-9.19
0.75
9.29
15.54
20.71
25.42
28.23
26.06
16.75
0.64
-19.15
-38.32
-53.25
-62.84
-67.10
-69.29
-72.82
-78.55
-83.78
-82.87
-69.63
-40.35
3.52
54.55
101.21
132.24
141.13
128.44
100.97
68.60
40.00
19.63
7.44
0.77
-3.19
-5.10
-4.31
-0.26
6.83
15.75
24.66
32.11
37.27
39.46
37.54
30.12
15.99
-4.46
-28.92
-53.66
-75.48
-91.16
-99.05
-99.55
-94.74
-87.97
-82.41
-80.60
-84.18
-93.39
-106.44
-119.52
-127.30
-121.89
-101.46
-68.47
-28.87
9.52
40.18
60.42
71.56
77.59
82.75
90.17
99.46
108.63
114.66
114.87
108.38
96.73
83.39
71.00
62.48
56.50
48.70
34.87
14.46
-8.32
-26.65
-35.26
-33.81
-26.94
-22.12
-24.90
-36.40
-53.39
-70.85
-83.47
-87.75
-82.58
-68.47
-49.01
-29.74
-16.63
-14.30
-24.19
-43.61
-66.77
-87.03
-98.72
-100.93
-96.22
-88.24
-78.95
-67.56
-51.30
-27.77
2.92
38.71
74.02
102.89
121.64
130.36
132.09
131.21
131.62
127.87
121.44
113.43
103.54
90.62
74.44
56.34
39.05
25.37
16.69
13.66
14.15
16.22
17.78
18.70
19.78
21.60
23.76
24.89
24.39
21.33
15.62
8.20
0.95
-4.26
-6.25
-4.72
-0.72
5.20
11.66
17.08
19.96
19.40
15.14
7.50
-2.63
-14.16
-25.66
-36.31
-45.64
-53.38
-59.15
-62.58
-63.50
-62.14
-59.20
-55.58
-52.33
-50.18
-49.28
-49.02
-48.36
-46.20
-41.77
-34.89
-26.01
-16.10
-6.43
1.78
7.61
10.58
10.68
8.29
3.96
-1.66
-8.04
-14.71
-21.28
-27.43
-32.94
-37.74
-41.91
-45.59
-48.86
-51.60
-53.57
-54.55
-54.59
-54.14
-53.93
-54.75
-57.09
-60.86
-65.42
-69.80
-73.11
-74.74
-74.50
-72.50
-68.91
-63.78
-57.08
-48.68
-38.43
-26.10
-11.37
6.21
26.87
50.25
74.99
98.71
118.50
131.79
137.21
135.02
126.84
114.92
101.45
88.01
75.63
65.00
56.67
51.07
48.32
47.99
49.18
50.74
51.68
51.49
50.20
48.25
46.17
44.30
42.63
40.84
38.43
34.99
30.34
24.60
18.18
11.60
5.51
0.58
-2.46
-2.87
-0.09
6.10
15.36
26.80
39.21
51.37
62.43
72.03
80.24
87.24
93.06
97.46
99.95
100.02
97.43
92.27
84.97
76.13
66.41
56.46
46.90
38.24
30.80
24.53
18.97
13.30
6.55
-2.04
-12.62
-24.58
-36.67
-47.63
-56.81
-64.50
-71.84
-80.20
-90.40
-102.25
-114.58
-125.76
-134.45
-140.10
-142.94
-143.67
-142.98
-141.22
-138.43
-134.67
-130.43
-126.74
-124.89
-125.86
-129.69
-135.15
-140.09
-142.08
-139.20
-130.39
-115.13
-92.85
-62.44
-22.67
26.77
84.02
144.66
202.44
250.82
284.69
301.31
300.13
282.09
249.00
203.59
150.05
94.17
42.72
1.78
-25.12
-37.99
-40.01
-35.65
-28.55
-19.95
-8.69
7.49
30.11
58.16
89.13
120.50
150.79
179.41
205.72
228.14
243.68
248.55
239.04
213.70
173.98
123.33
65.65
5.01
-53.39
-102.23
-132.65
-138.27
-116.80
-71.64
-12.00
49.43
101.15
136.83
156.49
164.75
163.23
153.88
140.39
127.62
119.43
118.06
124.34
137.43
154.45
162.09
149.94
116.97
70.24
18.16
-32.60
-77.49
-114.15
-143.01
-180.72
-239.67
-318.61
-405.56
-488.67
-560.62
-618.22
-660.95
-691.03
-730.56
-795.27
-883.30
-980.04
-1072.91
-1156.28
-1229.14
-1291.09
-1229.48
-996.87
-645.90
-282.45
21.06
244.24
395.83
493.50
556.15
600.19
619.91
611.13
580.87
542.60
503.32
464.27
423.35
381.78
345.60
310.32
275.68
248.72
241.26
250.08
263.61
271.87
273.07
272.14
267.27
256.14
239.39
220.82
203.53
191.09
187.28
195.28
213.14
229.92
232.26
212.04
170.66
116.48
61.90
18.28
-8.06
-18.10
-19.73
-23.81
-36.58
-55.96
-74.56
-84.41
-82.53
-72.43
-62.82
-63.59
-81.45
-119.90
-175.72
-241.74
-310.88
-379.27
-444.90
-504.84
-534.29
-514.65
-444.09
-340.10
-229.28
-133.92
-65.87
-25.77
-6.58
1.47
3.10
-0.86
-9.85
-23.22
-38.85
-54.00
-65.81
-72.08
-72.13
-69.19
-67.46
-68.94
-72.44
-73.97
-72.26
-65.40
-51.18
-29.42
-3.97
19.71
37.45
48.03
52.90
55.35
59.11
69.71
89.91
117.56
147.20
173.60
194.35
209.82
223.30
238.27
261.76
297.48
343.96
395.64
446.71
493.06
530.95
558.23
572.76
580.30
587.86
600.49
618.82
639.88
658.43
667.39
662.56
602.18
469.29
279.82
74.63
-108.66
-252.77
-351.16
-418.25
-461.43
-483.80
-481.63
-454.80
-408.12
-352.11
-297.34
-252.45
-222.09
-204.52
-196.26
-188.98
-177.16
-160.39
-142.88
-129.44
-120.34
-114.09
-105.30
-89.29
-61.16
-21.07
24.87
66.08
92.28
89.12
54.03
-2.74
-64.17
-112.86
-139.76
-145.77
-138.79
-128.14
-120.38
-117.87
-119.99
-125.99
-132.43
-135.38
-130.41
-113.92
-85.03
-46.16
-1.93
37.84
65.36
78.21
78.77
72.14
63.51
56.67
55.68
61.45
72.98
87.25
98.70
100.19
86.13
55.30
9.69
-39.26
-79.34
-103.14
-109.74
-103.55
-91.22
-78.69
-69.99
-67.79
-73.61
-86.37
-102.92
-117.19
-121.69
-110.60
-82.71
-40.98
3.08
37.88
56.33
57.98
48.14
34.56
23.79
19.37
21.68
29.09
37.82
43.26
40.36
25.64
-1.03
-35.80
-72.35
-104.28
-127.56
-140.74
-143.94
-137.97
-123.30
-100.10
-69.12
-32.24
7.81
48.47
85.34
114.91
133.66
138.00
125.48
96.53
55.62
10.67
-29.61
-58.68
-73.83
-76.83
-71.89
-62.75
-50.73
-34.83
-13.52
12.84
40.97
66.06
83.27
89.98
87.16
78.86
70.20
64.98
64.17
66.18
69.11
71.46
72.72
73.25
73.71
74.50
75.59
76.63
77.31
78.57
81.12
85.11
89.96
94.90
99.33
102.80
104.83
104.88
103.73
102.05
100.16
98.07
95.70
93.04
90.06
86.59
75.23
52.90
21.37
-14.08
-48.58
-79.80
-107.19
-130.48
-149.23
-163.05
-170.76
-171.79
-166.20
-154.49
-137.44
-116.33
-93.24
-70.95
-51.96
-36.74
-24.59
-14.54
-6.19
0.10
3.75
4.54
2.92
0.02
-2.50
-3.74
-4.08
-4.76
-6.89
-10.73
-15.47
-19.54
-21.50
-20.36
-16.30
-10.55
-4.66
0.26
4.09
7.48
11.23
15.67
20.44
24.62
27.23
27.75
26.24
23.19
19.11
14.39
9.53
5.06
1.94
1.18
3.30
7.80
12.97
16.48
16.39
12.08
4.44
-4.50
-12.56
-18.33
-21.59
-23.05
-23.82
-24.34
-24.32
-23.21
-21.03
-18.90
-18.88
-23.07
-32.50
-46.37
-61.13
-72.06
-75.03
-68.20
-52.42
-30.38
-5.38
19.29
39.77
52.50
54.29
43.99
24.12
1.19
-16.03
-20.04
-6.72
19.28
49.32
75.27
93.14
103.08
106.73
104.30
93.72
72.54
40.41
2.04
-35.73
-65.45
-82.65
-87.33
-83.07
-74.75
-64.09
-54.50
-46.18
-38.10
-29.43
-20.46
-12.34
-6.23
-2.65
-1.18
-1.08
-0.93
0.17
2.34
4.84
6.66
7.15
6.39
5.22
4.47
5.02
6.95
9.49
11.33
11.31
9.01
4.93
0.06
-4.40
-7.62
-9.67
-11.20
-13.08
-15.88
-19.84
-25.22
-31.87
-38.84
-43.78
-42.97
-32.51
-10.17
22.82
61.60
98.83
128.09
146.18
153.69
153.75
149.69
143.43
135.48
126.29
116.91
109.93
108.04
112.19
120.67
129.77
135.68
136.33
132.43
125.95
119.64
115.33
113.28
112.29
110.39
105.48
95.29
83.03
69.75
56.04
41.91
26.91
10.51
-7.58
-27.52
-49.52
-73.90
-101.90
-133.95
-168.85
-203.21
-232.08
-250.69
-256.65
-251.35
-239.69
-228.81
-224.75
-230.73
-246.99
-272.06
-303.90
-339.97
-376.35
-406.77
-423.54
-419.37
-390.50
-339.03
-272.51
-201.23
-133.98
-75.12
-24.07
22.33
66.86
109.42
146.47
172.68
183.61
177.60
155.75
120.41
73.71
17.50
-45.24
-108.66
-163.96
-200.91
-211.35
-193.04
-151.25
-96.69
-41.07
7.58
46.90
78.75
107.44
137.95
174.04
217.13
266.10
317.17
364.71
401.97
422.01
421.13
401.31
369.22
332.91
298.81
269.58
244.63
221.08
194.48
162.11
125.11
87.14
52.03
22.98
2.36
-6.93
5.37
43.69
98.97
155.14
199.82
227.30
239.83
239.74
230.35
215.76
198.13
177.81
157.12
138.17
121.22
105.07
87.83
68.68
47.81
24.96
0.37
-24.37
-47.42
-67.90
-85.95
-102.63
-118.72
-134.66
-151.23
-168.69
-186.14
-202.32
-216.58
-229.14
-241.20
-253.96
-268.00
-282.98
-296.89
-306.01
-306.38
-295.36
-272.63
-240.33
-201.96
-161.24
-121.18
-83.67
-49.70
-20.47
2.04
15.23
16.74
5.80
-16.14
-45.50
-77.50
-107.61
-132.99
-152.95
-168.65
-182.16
-195.43
-209.68
-225.07
-240.78
-254.97
-265.11
-268.43
-262.91
-248.32
-226.92
-203.18
-182.25
-167.85
-160.37
-156.53
-150.70
-137.42
-113.71
-80.09
-39.69
3.73
47.62
91.54
136.73
185.01
237.43
293.19
349.26
400.52
440.66
463.52
464.94
444.07
403.75
349.51
287.46
222.08
155.01
85.69
13.61
-59.04
-126.28
-179.27
-209.47
-212.14
-188.35
-144.35
-88.47
-27.52
35.24
99.17
163.37
223.76
272.11
298.26
294.11
257.63
194.50
116.25
36.49
-33.05
-84.89
-116.09
-126.86
-119.13
-95.52
-59.71
-17.63
22.43
51.31
62.27
53.95
31.37
3.36
-21.07
-36.99
-45.64
-53.14
-66.59
-89.90
-122.16
-159.03
-196.27
-230.79
-260.73
-284.81
-301.40
-307.98
-301.70
-280.79
-246.02
-202.13
-154.64
-108.27
-66.22
-30.41
-1.51
21.22
39.24
53.74
63.25
66.46
62.95
53.45
39.61
24.58
13.01
9.71
26.89
64.36
108.17
141.33
156.31
154.87
143.01
127.06
111.26
96.98
82.30
67.95
55.89
49.72
51.23
58.72
67.54
72.01
68.01
49.61
20.94
-9.12
-32.40
-46.00
-52.39
-56.57
-63.17
-74.09
-91.67
-116.23
-147.82
-184.55
-222.64
-256.52
-280.21
-289.68
-284.64
-268.66
-243.88
-216.44
-191.74
-172.83
-159.96
-151.60
-145.80
-141.16
-136.99
-132.09
-125.59
-115.75
-101.59
-83.75
-64.35
-45.86
-30.27
-18.36
-9.24
-1.47
7.42
19.26
34.25
51.11
67.91
83.11
95.93
106.79
116.54
127.53
141.20
157.29
174.48
191.38
206.66
218.63
225.38
225.52
222.90
222.54
228.41
242.98
267.38
300.15
336.37
368.81
390.36
403.24
409.73
408.07
394.02
365.35
323.35
272.03
217.20
165.28
132.54
127.66
145.72
173.72
201.02
223.31
240.93
256.38
272.32
304.55
360.79
434.17
510.01
577.70
633.87
679.26
716.01
658.31
478.91
228.36
-12.33
-198.09
-325.60
-408.97
-463.51
-500.09
-525.64
-530.30
-509.85
-472.88
-434.68
-405.41
-387.06
-377.22
-371.65
-368.68
-357.47
-333.53
-302.60
-274.66
-254.85
-241.94
-232.20
-221.97
-209.83
-188.99
-156.62
-116.48
-76.08
-41.20
-14.07
0.32
0.76
-11.41
-28.93
-44.65
-54.84
-59.22
-58.90
-55.56
-51.44
-48.03
-46.46
-45.78
-44.77
-42.69
-39.24
-34.14
-27.10
-18.37
-7.79
4.70
19.15
35.20
51.78
67.08
79.04
86.22
88.34
86.88
83.84
80.52
76.79
71.22
62.15
48.90
32.51
15.43
1.17
-7.28
-8.95
-5.40
0.13
3.95
3.34
-2.41
-11.66
-19.77
-20.41
-8.68
15.84
48.27
79.77
100.35
102.98
85.63
52.92
14.43
-19.82
-42.88
-51.58
-46.10
-29.99
-9.74
5.32
7.25
-6.59
-32.41
-60.84
-79.42
-77.21
-50.35
-1.00
53.05
86.11
84.51
54.85
14.63
-20.11
-41.09
-50.60
-54.99
-59.73
-66.42
-72.82
-76.23
-76.40
-75.89
-76.43
-79.96
-86.28
-94.03
-100.28
-101.17
-94.02
-78.77
-57.62
-33.73
-10.40
10.61
28.50
43.74
57.91
72.30
86.88
100.34
111.07
114.23
108.36
96.42
83.65
74.33
70.14
70.43
73.29
76.61
79.28
80.12
78.47
74.05
67.12
58.58
49.75
41.75
34.93
30.21
27.84
27.39
27.84
28.07
27.56
26.43
25.15
24.26
24.18
25.18
27.40
30.54
33.96
36.89
38.59
38.65
37.10
34.61
32.07
30.34
29.67
29.61
29.32
28.06
25.65
22.53
19.55
17.17
15.23
12.73
8.41
1.43
-7.94
-18.26
-27.48
-33.85
-36.98
-38.26
-40.49
-47.09
-60.95
-83.64
-115.13
-153.90
-197.19
-241.21
-281.41
-313.14
-332.70
-338.45
-331.41
-314.80
-292.70
-268.29
-242.79
-215.50
-184.97
-150.74
-114.34
-79.31
-49.72
-28.19
-14.38
-4.68
6.19
22.84
46.94
76.54
107.22
134.43
155.69
171.27
183.01
192.29
198.63
199.93
194.24
181.74
165.61
150.99
142.77
143.43
152.11
165.22
177.92
185.86
186.26
178.20
162.31
140.27
114.23
86.22
57.85
30.07
3.16
-22.96
-48.26
-72.33
-94.37
-113.43
-128.85
-140.39
-148.19
-152.41
-153.02
-149.87
-142.87
-132.39
-119.39
-105.25
-91.41
-78.97
-68.60
-60.68
-55.55
-53.56
-54.76
-58.62
-63.92
-69.06
-72.70
-74.28
-74.26
-73.65
-73.45
-74.00
-74.88
-75.15
-73.87
-70.49
-65.03
-58.14
-51.05
-45.35
-42.61
-43.90
-49.15
-56.98
-64.99
-70.66
-72.33
-69.89
-64.74
-59.04
-54.70
-52.65
-52.64
-53.69
-54.78
-55.29
-55.14
-54.57
-53.86
-52.81
-51.18
-49.00
-46.64
-44.56
-43.10
-42.34
-41.90
-41.02
-38.41
-33.13
-25.12
-15.32
-5.29
3.33
9.31
12.20
12.31
11.22
10.32
10.08
10.24
10.51
10.87
11.48
12.48
13.89
17.72
25.09
35.36
46.84
58.34
69.40
79.68
88.48
94.72
101.52
110.39
119.53
125.51
126.66
123.98
120.01
117.46
118.42
130.74
158.15
197.23
240.15
280.50
315.41
344.45
368.13
387.27
411.47
446.10
488.09
529.02
562.48
586.74
603.31
614.68
567.52
443.07
269.21
96.33
-43.64
-144.87
-214.26
-260.97
-292.84
-315.67
-324.65
-317.55
-299.31
-279.27
-264.37
-256.97
-256.23
-260.09
-265.97
-264.57
-250.38
-225.26
-196.24
-169.68
-149.38
-135.98
-128.99
-127.00
-123.83
-115.26
-101.42
-85.75
-71.49
-60.63
-54.05
-51.81
-53.10
-54.45
-53.22
-49.05
-43.37
-37.61
-32.90
-29.78
-28.10
-26.84
-23.86
-17.53
-7.25
6.35
22.28
38.63
52.63
60.94
60.70
50.12
29.30
0.65
-31.73
-59.38
-74.10
-73.03
-59.89
-41.38
-23.44
-9.38
0.06
5.77
9.17
10.79
10.69
8.79
6.02
3.94
3.96
6.49
10.67
14.98
17.82
19.57
21.29
25.35
33.67
46.24
60.67
73.13
79.95
76.93
65.01
47.15
27.29
8.88
-5.75
-15.55
-20.32
-20.55
-17.42
-12.24
-6.93
-2.92
-0.84
-0.49
-1.23
-2.39
-3.63
-5.04
-6.57
-8.49
-10.75
-13.04
-14.85
-15.82
-15.77
-14.89
-13.72
-12.82
-13.16
-15.55
-20.51
-27.90
-36.93
-46.09
-53.50
-57.97
-58.43
-55.28
-50.14
-45.21
-42.44
-42.73
-45.53
-48.54
-49.42
-45.88
-36.87
-22.93
-6.11
10.79
25.26
35.91
42.71
46.97
50.24
54.03
59.58
67.52
77.51
87.92
95.90
97.50
90.60
75.13
53.56
30.16
9.32
-6.17
-16.01
-21.91
-26.32
-30.91
-36.24
-41.52
-45.60
-47.78
-48.09
-47.17
-45.60
-43.40
-39.89
-34.09
-26.13
-17.02
-8.32
-1.39
3.49
7.35
11.74
17.65
24.58
30.91
34.65
34.74
31.66
26.80
21.58
16.43
10.74
3.70
-4.72
-13.24
-19.76
-22.47
-21.08
-17.06
-12.96
-11.08
-12.50
-16.15
-19.50
-19.64
-14.72
-4.82
8.19
21.56
32.70
40.13
43.76
44.44
42.83
39.95
35.95
30.61
23.82
15.98
8.01
0.84
-5.00
-9.52
-13.13
-16.39
-19.52
-22.33
-24.59
-25.83
-25.89
-24.81
-22.70
-19.62
-15.75
-11.28
-6.60
-2.30
1.12
3.29
4.14
3.87
2.81
1.17
-0.85
-3.02
-5.11
-6.95
-8.78
-11.32
-15.61
-22.10
-30.66
-39.73
-46.94
-50.22
-48.71
-43.22
-35.65
-27.92
-20.94
-14.44
-7.27
1.55
12.05
23.22
33.56
41.77
47.40
51.15
53.63
55.40
56.43
56.08
53.57
48.44
41.01
32.37
23.88
16.57
10.87
6.53
2.96
-0.21
-2.93
-4.74
-5.08
-3.93
-1.98
-0.38
-0.25
-2.09
-5.35
-8.76
-10.71
-9.96
-6.29
-0.73
4.94
8.80
9.63
7.39
2.99
-2.16
-6.79
-10.23
-12.55
-14.16
-15.75
-18.14
-21.45
-26.49
-34.18
-44.78
-57.04
-68.26
-74.87
-74.26
-65.85
-51.23
-33.49
-15.71
0.53
15.33
29.64
44.38
58.10
67.56
69.77
63.74
50.88
34.36
18.69
6.09
-1.93
-5.07
-4.07
-0.31
5.12
11.00
16.65
22.01
27.42
33.35
39.41
44.68
48.22
49.03
46.02
38.22
24.96
6.30
-16.45
-41.67
-66.81
-88.64
-104.66
-113.84
-116.59
-114.22
-107.82
-97.77
-85.17
-71.03
-56.23
-42.51
-32.08
-26.59
-26.06
-27.87
-27.63
-22.23
-9.69
10.51
36.35
63.99
89.31
106.05
109.54
107.13
105.16
103.92
102.91
100.03
92.71
79.33
60.21
38.21
17.26
-0.62
-14.85
-25.45
-33.18
-38.76
-42.40
-43.95
-42.94
-39.30
-34.68
-31.07
-29.58
-30.79
-34.56
-40.16
-46.71
-53.06
-58.39
-62.94
-67.18
-71.09
-74.42
-76.53
-76.46
-73.20
-65.89
-54.28
-39.32
-22.64
-6.12
8.43
19.66
27.00
30.63
31.39
30.35
28.31
25.77
22.83
19.35
15.04
9.91
4.21
-1.35
-5.98
-9.02
-10.20
-9.75
-8.29
-6.62
-5.56
-5.80
-7.61
-10.74
-14.22
-16.52
-16.02
-11.61
-3.43
7.05
17.50
25.75
30.59
32.20
31.88
31.21
31.36
32.71
35.04
37.98
41.38
45.19
49.28
53.18
56.13
57.33
56.40
53.55
49.58
45.48
42.01
39.32
36.97
34.09
29.85
23.74
15.86
6.79
-2.50
-11.09
-18.36
-24.10
-28.55
-32.14
-35.34
-38.53
-41.88
-45.38
-48.85
-51.90
-54.01
-54.61
-53.14
-49.27
-42.98
-34.62
-24.84
-14.52
-4.56
4.17
10.98
15.48
17.62
17.59
15.80
12.69
8.71
4.34
-0.04
-4.17
-7.88
-11.19
-14.24
-17.19
-20.16
-23.12
-25.84
-28.08
-29.62
-30.41
-30.50
-30.08
-29.30
-28.22
-26.77
-24.75
-21.92
-18.06
-13.06
-6.99
-0.02
7.57
15.46
23.34
30.89
37.86
43.98
49.11
53.05
55.69
56.94
56.77
55.18
52.34
48.52
44.15
39.66
35.42
31.65
28.48
25.92
23.97
22.65
21.93
21.67
21.64
21.55
21.16
20.40
19.33
18.11
16.79
15.30
13.45
11.11
8.42
5.81
3.93
3.36
4.37
6.82
10.22
13.86
17.06
19.32
20.32
20.05
18.64
16.36
13.60
10.75
8.11
5.87
4.15
2.99
2.40
2.31
2.55
2.80
2.66
1.76
-0.13
-2.99
-6.60
-10.58
-14.58
-18.30
-21.55
-24.19
-25.94
-26.51
-25.71
-23.67
-20.92
-18.25
-16.39
-15.70
-16.08
-16.98
-17.73
-17.86
-17.29
-16.13
-14.57
-12.67
-10.37
-7.67
-4.71
-1.85
0.43
1.64
1.50
-0.05
-2.73
-6.08
-9.48
-12.33
-14.31
-15.35
-15.69
-15.71
-15.63
-15.50
-15.15
-14.40
-13.30
-12.22
-11.70
-12.10
-13.41
-15.19
-16.65
-16.90
-15.28
-11.51
-5.79
1.43
9.63
18.34
27.14
35.58
43.17
49.41
53.94
56.53
57.31
56.79
55.64
54.33
53.04
51.67
49.98
47.80
45.14
42.29
40.20
39.63
40.82
43.18
45.55
46.62
45.36
41.33
34.90
28.14
23.29
21.86
24.01
28.83
34.84
40.62
45.15
48.19
51.62
57.31
65.99
76.72
87.60
96.78
103.01
105.61
104.65
102.63
101.85
103.46
107.12
111.72
116.12
118.92
117.87
99.10
55.06
-11.44
-87.03
-155.60
-205.78
-232.93
-237.85
-225.21
-201.44
-171.40
-139.46
-109.49
-84.66
-66.77
-55.78
-49.61
-47.44
-48.66
-51.53
-54.81
-58.10
-61.43
-64.57
-66.73
-66.94
-65.15
-62.07
-58.05
-53.53
-48.84
-43.75
-37.67
-30.26
-21.56
-12.63
-5.19
-0.74
-0.52
-5.27
-14.32
-26.35
-38.30
-45.69
-45.18
-36.46
-21.98
-5.60
9.02
20.51
30.84
42.90
60.24
85.51
119.03
158.34
199.33
233.02
252.28
252.62
232.61
196.01
150.27
103.01
58.81
18.08
-21.84
-63.39
-106.62
-149.03
-183.04
-199.34
-192.74
-166.18
-129.89
-97.55
-80.77
-86.05
-114.86
-160.06
-208.46
-246.45
-264.33
-257.04
-223.81
-168.12
-86.62
2.98
72.59
105.07
104.15
85.64
65.13
50.90
43.31
38.10
29.53
17.75
8.30
6.58
12.96
23.08
30.95
32.74
28.55
20.21
12.11
8.05
9.60
14.43
18.82
19.93
17.14
11.64
4.55
-2.10
-6.04
-6.31
-4.00
-1.25
-0.12
-1.80
-6.44
-13.81
-22.43
-29.94
-34.17
-34.19
-29.40
-20.66
-9.49
2.36
13.28
22.38
29.52
34.87
38.33
39.57
38.05
33.55
26.38
17.49
8.27
0.25
-5.25
-7.41
-5.95
-1.27
5.93
14.90
24.95
35.55
46.22
56.50
65.88
73.85
79.80
83.11
83.14
79.30
71.17
58.69
42.39
23.37
3.26
-16.34
-34.14
-49.57
-62.61
-73.67
-83.24
-91.74
-99.45
-106.49
-112.70
-117.40
-119.36
-116.94
-108.59
-93.56
-72.61
-48.10
-23.55
-2.62
12.04
19.52
20.75
17.92
13.66
10.12
8.51
9.07
11.28
14.32
17.41
19.95
21.60
22.30
22.25
21.93
21.97
22.95
25.25
28.90
33.59
38.72
43.59
47.56
50.20
51.37
51.17
49.98
48.29
46.47
44.60
42.33
39.05
34.29
28.12
21.42
15.64
12.29
12.23
15.20
19.81
24.12
26.45
25.98
22.93
18.08
12.20
5.42
-2.66
-12.51
-23.88
-35.57
-45.88
-53.68
-59.26
-64.37
-71.16
-80.63
-91.61
-100.96
-104.91
-100.97
-89.03
-71.21
-50.49
-29.24
-8.59
11.41
30.74
48.61
63.39
73.26
77.20
75.71
70.51
63.61
56.48
49.48
42.12
33.63
23.81
13.38
4.28
-1.60
-3.34
-1.39
2.82
7.65
12.00
15.74
19.45
24.62
32.23
42.26
53.69
65.16
75.43
83.58
89.11
91.61
91.57
89.26
84.62
77.57
68.52
58.59
49.08
41.07
29.50
11.93
-10.53
-33.66
-53.22
-66.86
-73.93
-76.12
-74.88
-71.93
-67.90
-63.33
-58.63
-54.51
-51.50
-49.46
-47.64
-44.75
-40.22
-33.14
-23.04
-10.04
4.96
20.71
36.14
50.49
63.43
73.72
80.79
84.54
85.12
82.25
75.06
62.52
44.00
19.97
-9.23
-41.79
-74.63
-104.36
-128.68
-146.81
-159.04
-165.72
-159.17
-135.45
-97.52
-54.84
-17.77
7.24
18.82
19.91
15.91
11.92
9.68
8.66
7.40
4.72
0.41
-4.77
-9.42
-12.30
-11.89
-9.21
-6.08
-4.02
-3.45
-3.76
-3.91
-3.04
-0.87
2.17
4.50
4.89
3.14
0.23
-2.43
-3.77
-3.49
-1.95
0.21
2.14
3.50
4.51
5.57
6.82
7.81
7.79
6.13
2.78
-1.82
-6.68
-10.66
-12.80
-12.66
-10.42
-6.72
-2.34
2.01
5.84
8.98
11.41
13.17
14.21
14.38
13.50
11.55
8.76
5.57
2.55
0.14
-1.49
-2.44
-3.00
-3.42
-3.76
-3.90
-3.57
-2.53
-0.73
1.71
4.45
7.10
9.26
10.52
10.56
9.21
6.58
3.00
-0.86
-4.28
-6.66
-7.73
-7.76
-7.38
-7.37
-8.30
-10.37
-13.16
-15.86
-17.51
-17.42
-15.47
-12.14
-8.19
-4.12
0.21
5.72
13.57
24.26
37.01
49.51
58.68
61.92
58.29
48.91
36.39
23.72
13.06
5.21
-0.41
-5.25
-11.26
-20.46
-34.49
-53.77
-76.47
-98.03
-111.91
-111.76
-94.27
-61.26
-19.62
20.93
51.51
67.40
69.22
61.81
51.39
42.78
37.80
35.55
33.89
31.15
27.01
22.31
18.26
15.54
13.92
12.54
10.67
8.28
6.11
5.23
6.15
8.35
10.43
10.84
8.81
4.83
0.37
-2.98
-4.37
-4.06
-3.07
-2.40
-2.55
-3.48
-5.06
-7.56
-11.60
-17.62
-25.19
-32.65
-37.54
-37.61
-31.90
-21.30
-8.39
3.57
11.87
15.47
15.30
13.66
13.06
14.86
18.64
22.45
23.85
20.86
12.47
-1.49
-20.55
-43.30
-66.89
-86.76
-97.58
-95.41
-79.91
-55.18
-28.43
-6.80
5.83
10.20
10.41
11.06
14.45
19.72
24.11
25.33
23.19
19.82
18.23
20.46
26.45
34.08
40.40
43.16
41.68
37.00
31.23
26.66
24.85
26.23
30.04
34.84
39.09
41.57
41.86
40.35
38.06
36.01
34.52
33.00
30.34
25.75
19.32
12.30
6.60
4.07
5.45
10.02
15.95
21.26
24.89
26.92
28.24
29.96
32.86
36.88
41.10
44.29
45.43
44.41
41.86
38.57
34.98
30.71
24.24
13.10
-5.17
-32.34
-65.80
-98.61
-123.11
-134.99
-134.32
-124.24
-109.14
-92.96
-78.52
-67.24
-58.93
-52.82
-48.19
-44.35
-40.84
-38.30
-36.09
-34.21
-33.83
-36.40
-43.38
-54.94
-68.65
-79.36
-80.68
-67.38
-35.48
8.92
54.48
89.95
108.85
111.38
102.57
88.90
75.45
64.61
56.91
52.96
52.66
54.66
54.46
46.20
26.11
-4.03
-36.30
-59.04
-61.58
-39.13
5.00
60.94
115.59
156.78
176.22
170.30
139.83
89.55
27.46
-36.53
-88.17
-114.88
-110.66
-78.47
-29.00
23.57
65.95
89.40
91.39
74.60
43.81
3.74
-42.06
-90.92
-136.02
-168.42
-181.36
-174.08
-151.64
-121.87
-91.94
-66.36
-46.64
-31.66
-19.76
-9.92
-2.00
3.83
7.30
8.46
7.91
6.80
6.50
7.67
9.98
12.56
14.56
15.44
15.10
13.82
12.27
11.32
11.35
12.18
13.26
14.03
14.15
13.49
12.23
10.77
9.65
9.22
9.49
10.17
10.81
10.98
10.43
9.17
7.56
6.25
5.89
6.76
8.65
10.87
12.44
12.53
10.86
8.02
5.24
3.94
5.07
8.56
13.33
17.65
19.93
19.55
17.27
14.92
14.48
17.04
22.04
27.51
30.73
29.41
22.41
10.01
-6.48
-24.88
-41.75
-53.02
-54.27
-43.12
-21.35
4.42
24.49
30.15
17.86
-8.84
-41.31
-69.52
-86.83
-92.08
-88.62
-81.25
-73.24
-65.10
-55.03
-41.96
-25.51
-6.83
11.95
28.44
40.94
48.68
51.95
51.76
49.22
45.47
40.93
35.64
29.68
23.77
19.30
17.71
19.74
24.74
31.06
36.53
39.44
39.15
36.03
31.27
26.17
21.74
18.55
16.81
16.31
16.54
16.79
16.32
14.59
11.41
7.04
2.20
-2.15
-5.36
-7.54
-9.71
-13.47
-20.17
-30.21
-42.27
-53.51
-60.53
-60.72
-53.28
-39.05
-19.67
3.31
28.53
54.44
78.91
99.39
114.06
123.04
128.72
134.53
142.66
151.80
157.76
156.10
145.29
128.27
111.21
100.09
97.13
102.39
111.94
120.20
123.37
121.31
116.75
112.86
110.87
109.51
106.11
98.18
85.13
68.36
50.11
32.00
14.50
-2.82
-20.58
-39.06
-58.38
-78.32
-98.34
-117.68
-135.67
-151.77
-165.61
-176.76
-184.47
-187.91
-186.34
-179.83
-169.89
-159.70
-153.22
-153.59
-161.57
-174.65
-187.58
-193.92
-188.23
-168.16
-135.61
-96.29
-57.71
-26.71
-7.12
1.16
1.80
0.25
1.89
10.44
27.28
51.54
80.57
110.83
138.79
161.86
179.10
191.20
199.96
207.17
213.67
218.88
221.22
219.10
211.53
198.40
179.96
156.35
127.52
93.78
56.61
18.95
-15.53
-43.83
-65.02
-80.57
-93.41
-106.23
-119.99
-133.73
-145.36
-152.92
-155.59
-153.99
-149.83
-145.38
-142.80
-143.60
-147.96
-154.41
-159.92
-160.72
-153.75
-137.87
-114.58
-87.26
-59.83
-35.43
-15.61
-0.66
9.71
15.71
17.44
15.21
10.11
4.04
-0.85
-2.90
-1.68
1.87
5.87
8.38
8.08
4.72
-0.94
-7.60
-13.93
-19.06
-22.71
-25.12
-26.89
-28.88
-31.99
-36.87
-43.52
-50.70
-55.75
-55.09
-45.39
-25.05
4.82
40.49
76.88
109.22
134.46
151.56
160.95
163.58
160.44
152.52
141.31
129.04
118.45
112.06
111.31
116.02
124.56
134.58
143.82
150.83
155.25
157.57
158.77
159.67
160.51
160.89
160.06
157.32
152.36
145.17
135.80
124.02
109.29
90.96
68.79
43.24
15.52
-12.68
-39.72
-64.45
-86.37
-105.69
-123.07
-139.46
-155.88
-173.22
-192.09
-212.40
-233.12
-252.28
-267.28
-275.56
-275.55
-267.32
-252.80
-235.29
-218.38
-204.78
-195.60
-190.22
-186.98
-184.04
-180.11
-174.63
-167.57
-158.96
-148.71
-136.72
-122.89
-107.16
-89.52
-70.17
-49.62
-28.98
-9.84
6.27
18.53
27.21
33.54
38.93
44.09
48.75
51.79
52.08
49.21
43.93
37.75
32.26
28.36
25.91
23.94
21.32
17.52
13.03
9.19
7.40
8.16
10.54
12.38
11.28
5.69
-4.55
-18.28
-33.85
-49.51
-63.46
-73.79
-78.60
-76.79
-68.76
-56.59
-43.21
-31.16
-21.55
-13.82
-6.56
1.52
11.08
21.97
33.66
45.49
56.77
66.57
73.65
76.67
74.75
68.10
58.31
48.09
40.31
36.88
37.84
41.31
44.41
44.74
41.71
36.65
32.00
29.63
29.95
31.97
34.36
36.46
38.53
41.16
44.31
47.06
48.02
46.21
41.67
35.43
28.81
22.56
16.67
10.46
3.25
-5.00
-13.75
-22.19
-29.86
-37.10
-44.81
-53.96
-64.82
-76.65
-87.75
-96.23
-100.76
-101.22
-98.80
-95.47
-92.96
-92.19
-92.90
-94.11
-94.93
-95.10
-94.55
-92.59
-87.27
-75.94
-56.91
-31.01
-1.77
26.42
50.94
72.32
93.29
116.21
140.55
162.56
177.30
181.43
174.85
160.02
139.97
116.78
91.89
67.51
47.94
38.96
45.36
68.20
103.75
144.54
182.14
209.74
223.46
222.14
206.80
179.51
143.01
100.37
54.96
10.19
-30.86
-65.98
-94.37
-116.76
-135.02
-151.04
-165.32
-176.29
-181.18
-178.00
-167.46
-153.49
-141.64
-136.55
-139.44
-147.75
-156.94
-163.04
-164.40
-161.44
-155.35
-146.43
-133.91
-116.97
-95.93
-72.58
-49.41
-28.34
-10.20
5.32
19.10
31.99
44.93
58.81
73.66
88.27
100.00
105.18
100.99
87.47
68.44
50.86
41.75
44.66
57.78
74.55
87.22
91.18
87.26
80.61
76.93
78.54
82.84
84.41
79.02
66.33
49.74
33.39
18.73
3.84
-14.57
-37.52
-61.82
-81.31
-90.43
-87.51
-75.96
-62.41
-52.87
-50.26
-53.48
-58.51
-61.04
-58.49
-51.16
-41.90
-34.32
-30.65
-30.47
-30.56
-26.83
-16.69
-0.66
17.78
34.12
45.44
51.99
56.44
61.76
68.94
75.95
79.01
74.90
63.01
45.69
27.01
10.71
-1.09
-8.22
-11.86
-13.12
-12.38
-9.32
-3.32
5.83
17.47
30.10
41.64
49.72
52.68
49.84
41.85
30.70
19.12
10.10
6.33
9.15
17.86
29.67
40.21
45.17
42.03
31.09
15.17
-1.79
-16.32
-26.40
-31.36
-31.44
-27.35
-20.80
-15.11
-14.91
-24.06
-42.99
-66.77
-85.87
-90.03
-72.94
-35.42
14.40
64.35
102.88
122.69
122.41
105.68
79.11
50.20
25.56
9.76
4.30
7.64
15.72
23.61
27.66
26.89
23.02
19.02
17.48
19.30
23.86
29.99
36.71
43.52
49.70
53.71
53.01
45.24
29.50
7.42
-17.18
-39.67
-56.27
-65.47
-68.01
-66.23
-62.49
-58.04
-52.90
-46.26
-37.50
-27.21
-17.44
-10.74
-9.07
-12.74
-20.03
-28.39
-35.55
-40.36
-42.27
-40.64
-34.19
-21.65
-3.49
16.79
33.47
40.94
36.78
23.47
7.06
-5.95
-12.12
-12.39
-10.94
-12.54
-20.02
-33.49
-50.70
-68.09
-81.82
-88.26
-84.75
-70.70
-48.37
-22.54
0.66
15.95
20.77
16.11
5.91
-4.72
-11.20
-11.11
-4.53
6.36
18.41
28.60
35.01
37.25
36.05
32.85
29.02
25.78
23.97
24.21
26.89
32.01
39.03
46.54
52.28
53.65
48.50
36.31
18.94
0.55
-13.93
-21.13
-20.95
-16.83
-13.84
-15.86
-23.46
-33.90
-42.95
-47.44
-46.51
-40.88
-31.46
-18.14
-0.69
19.51
38.54
51.47
55.21
51.19
45.22
43.81
49.78
59.84
66.43
62.62
46.83
23.97
2.29
-11.79
-17.49
-19.61
-25.11
-38.95
-61.40
-88.20
-112.49
-127.58
-128.62
-113.48
-83.13
-41.56
4.63
47.73
80.44
98.22
100.32
89.59
71.28
51.01
33.13
19.68
10.27
2.76
-5.31
-15.72
-28.61
-42.68
-55.85
-66.22
-72.84
-75.78
-76.24
-75.98
-76.94
-80.80
-88.54
-100.17
-114.48
-128.90
-140.14
-145.06
-141.46
-128.45
-106.37
-76.23
-39.53
2.09
46.31
89.97
129.23
160.39
181.17
191.31
192.25
185.79
173.60
156.58
135.74
112.86
90.70
72.28
60.05
55.49
58.48
67.67
80.19
91.99
98.58
96.20
83.10
60.53
32.61
4.56
-19.14
-36.55
-48.56
-57.99
-68.19
-81.42
-97.94
-115.57
-130.47
-138.41
-136.65
-125.58
-108.78
-91.79
-79.80
-75.47
-78.25
-84.93
-91.33
-93.79
-90.05
-79.27
-62.12
-40.48
-17.15
4.74
22.42
34.49
40.95
43.13
43.23
43.44
45.44
50.21
57.78
67.06
76.17
82.63
83.81
77.81
63.88
43.20
18.76
-5.41
-25.09
-36.86
-38.55
-29.63
-10.74
16.11
47.69
79.50
106.25
123.18
127.78
121.14
107.27
91.29
76.67
64.05
51.60
37.37
21.28
5.33
-7.81
-16.48
-20.99
-23.03
-23.98
-23.78
-21.18
-15.08
-6.21
2.94
9.19
10.42
6.78
0.36
-5.93
-10.10
-11.29
-10.00
-7.28
-4.40
-2.81
-4.26
-10.20
-21.08
-35.73
-51.30
-64.54
-73.07
-76.94
-78.49
-80.82
-85.89
-93.08
-99.41
-100.90
-94.70
-80.19
-59.10
-34.50
-9.61
12.98
31.82
46.64
58.19
67.83
77.10
87.01
97.66
107.92
115.98
119.97
119.00
113.52
104.80
94.51
83.93
73.66
63.64
53.24
41.66
28.29
12.88
-4.14
-21.63
-37.98
-51.68
-61.77
-67.73
-69.69
-68.04
-63.49
-57.29
-51.26
-47.49
-47.28
-50.34
-54.69
-57.54
-57.20
-54.26
-51.29
-50.91
-53.79
-57.73
-58.72
-53.77
-43.24
-31.03
-22.39
-20.56
-24.51
-29.30
-29.12
-20.66
-5.47
11.02
22.88
27.04
24.70
20.38
18.59
21.16
26.55
31.16
31.92
28.11
21.49
14.80
10.01
7.66
7.25
8.40
11.40
17.02
25.56
35.92
45.55
51.31
50.85
43.58
31.38
17.78
6.91
1.84
3.04
8.40
14.09
16.68
14.66
9.08
2.48
-2.63
-4.94
-4.69
-2.86
-0.25
2.77
5.98
8.92
10.54
9.55
5.18
-2.46
-12.09
-21.60
-28.89
-32.37
-31.46
-27.07
-21.21
-16.16
-13.53
-13.30
-14.21
-14.57
-13.30
-10.47
-7.14
-4.54
-3.43
-4.13
-6.51
-10.30
-15.23
-20.95
-27.15
-33.65
-40.23
-46.34
-51.11
-53.54
-52.88
-49.05
-42.12
-31.96
-17.95
0.52
22.94
46.68
67.64
81.84
87.64
86.69
83.15
81.25
82.90
87.05
90.53
90.49
85.91
77.77
67.90
57.42
46.04
32.54
15.93
-3.55
-24.11
-42.77
-56.49
-63.09
-61.91
-53.93
-41.47
-27.42
-14.53
-4.72
1.28
3.56
2.82
-0.17
-4.73
-10.19
-15.69
-20.20
-22.67
-22.56
-19.80
-15.00
-9.12
-3.26
1.70
5.22
7.17
7.79
7.62
7.39
7.74
9.09
11.35
14.24
17.28
19.69
20.55
18.90
14.28
7.20
-0.74
-7.37
-10.84
-10.41
-6.57
-0.33
7.69
17.39
28.81
41.22
52.85
61.42
65.45
65.09
62.37
60.01
60.01
62.34
64.86
64.47
58.54
46.38
29.74
12.08
-3.37
-15.22
-24.86
-35.59
-50.45
-69.95
-91.31
-109.95
-122.20
-127.51
-128.16
-126.83
-123.81
-116.32
-100.29
-73.82
-39.39
-3.32
27.26
47.83
58.20
61.37
60.74
57.85
52.07
41.96
27.22
9.68
-7.54
-21.71
-31.59
-37.77
-41.78
-45.20
-49.13
-54.10
-60.40
-67.97
-76.03
-82.86
-86.28
-84.44
-76.93
-65.18
-52.00
-40.43
-32.46
-28.60
-27.95
-29.51
-32.47
-36.86
-43.19
-51.84
-62.47
-73.79
-83.86
-90.68
-92.71
-89.35
-80.93
-68.63
-53.95
-38.44
-23.56
-10.51
-0.22
6.59
9.55
8.64
4.50
-1.75
-8.80
-15.73
-22.43
-29.58
-38.43
-50.14
-64.95
-81.87
-98.42
-111.86
-119.88
-121.75
-118.41
-112.15
-105.68
-101.49
-101.94
-109.10
-124.77
-149.17
-180.12
-212.28
-237.68
-247.51
-235.31
-199.95
-146.90
-87.10
-33.23
4.63
22.65
24.14
17.46
11.99
14.29
26.41
46.29
69.81
92.74
111.84
124.69
129.13
123.52
107.44
82.73
53.49
24.86
1.28
-15.14
-24.74
-30.06
-33.96
-38.70
-45.42
-54.39
-65.25
-77.30
-89.70
-101.64
-112.74
-123.00
-132.76
-142.50
-152.54
-162.72
-172.24
-179.95
-184.59
-185.15
-181.09
-172.48
-159.94
-144.44
-127.03
-108.66
-90.09
-71.88
-54.35
-37.78
-22.42
-8.60
3.41
13.32
20.97
26.25
29.15
29.72
28.06
24.29
18.53
11.07
2.40
-6.76
-15.45
-22.58
-27.12
-26.78
-20.32
-8.30
7.54
25.56
44.65
63.97
82.86
100.65
118.34
136.30
153.63
168.76
180.57
188.70
193.13
193.97
191.20
188.43
187.49
186.93
183.63
175.77
163.54
148.32
131.69
114.80
108.38
117.55
137.61
158.48
172.84
178.59
176.69
169.06
157.44
164.07
200.79
259.93
323.16
378.01
422.38
459.77
494.68
529.75
598.99
718.25
871.41
1025.05
1155.27
1255.38
1329.05
1382.94
1422.19
1493.72
1621.08
1786.64
1949.83
2081.60
2174.74
2235.12
2271.45
2028.13
1427.11
618.08
-156.10
-756.92
-1170.76
-1437.01
-1599.67
-1686.99
-1735.01
-1721.07
-1635.41
-1503.02
-1368.68
-1263.28
-1192.37
-1148.74
-1120.91
-1101.31
-1051.60
-952.41
-816.89
-678.65
-563.39
-490.10
-461.01
-464.28
-482.78
-467.45
-402.32
-297.29
-175.21
-65.92
17.87
74.84
108.10
120.48
100.00
48.87
-17.41
-82.87
-140.22
-188.33
-227.94
-257.04
-279.54
-293.12
-294.25
-283.56
-267.21
-252.25
-241.32
-233.25
-225.67
-217.76
-209.02
-197.56
-182.27
-164.34
-146.11
-128.13
-109.49
-89.13
-67.25
-44.40
-20.19
4.95
29.01
49.14
63.72
72.48
76.02
75.03
70.62
64.53
57.90
50.96
43.46
35.58
27.98
21.50
16.77
14.32
14.60
17.54
22.49
28.48
34.53
39.77
43.64
45.96
47.08
47.72
48.70
50.58
53.39
56.57
59.17
60.15
58.75
54.68
48.13
39.75
30.49
21.45
13.74
8.36
5.95
6.65
10.07
15.29
21.11
26.40
30.35
32.61
33.32
32.85
31.55
29.57
26.71
22.66
17.24
10.67
3.61
-2.86
-7.55
-9.41
-7.77
-2.35
6.69
18.87
33.44
49.48
65.82
81.16
94.25
104.08
110.07
112.12
110.58
106.07
99.33
91.00
81.44
70.90
59.68
48.33
37.66
28.59
21.82
17.67
15.73
14.87
13.91
12.16
9.82
7.75
7.08
8.63
12.94
19.51
27.14
34.65
41.51
48.02
54.74
62.03
69.59
77.37
84.42
89.28
91.05
89.96
87.41
84.80
82.89
81.51
81.20
81.47
81.07
79.05
75.33
70.98
66.73
62.92
59.40
57.61
57.62
57.40
53.83
43.69
25.70
-0.03
-31.05
-73.76
-123.51
-167.99
-195.34
-201.73
-192.12
-171.33
-145.00
-116.40
-87.41
-57.26
-25.52
3.24
26.49
37.59
35.45
22.98
5.59
-12.29
-27.69
-41.01
-54.57
-70.06
-87.62
-104.73
-118.98
-129.00
-135.17
-138.04
-139.73
-141.53
-143.63
-145.44
-144.94
-140.68
-132.23
-120.18
-105.34
-88.88
-71.96
-55.42
-39.65
-24.24
-8.83
6.09
19.65
31.16
40.10
46.31
49.90
51.35
51.41
50.65
49.44
47.96
46.34
44.62
42.85
41.17
39.78
38.91
38.50
38.31
37.95
37.01
35.14
32.24
28.54
24.79
21.76
19.81
18.65
17.26
14.35
8.64
-0.72
-14.68
-31.99
-49.49
-63.37
-70.63
-69.93
-61.30
-46.14
-27.01
-7.05
10.82
24.52
33.24
38.48
41.67
44.24
47.01
50.11
53.16
55.62
56.95
56.85
55.31
52.46
48.74
44.30
39.03
33.84
30.01
28.45
29.30
31.85
34.85
37.08
36.93
33.45
26.50
16.56
4.27
-9.57
-23.96
-37.54
-48.72
-57.44
-64.23
-69.85
-75.30
-81.59
-89.41
-98.63
-108.28
-117.03
-125.39
-134.01
-142.93
-151.26
-157.77
-161.50
-162.39
-161.52
-151.26
-129.08
-97.66
-62.81
-28.89
2.70
31.84
57.95
79.71
95.70
103.54
102.40
93.44
79.51
64.18
50.96
42.64
40.88
45.84
54.99
65.26
74.17
80.83
85.00
86.91
87.00
86.02
85.07
84.73
85.91
89.66
96.52
105.71
115.01
121.62
123.28
119.15
109.31
94.64
75.98
53.31
25.50
-7.91
-45.93
-85.94
-124.29
-157.76
-184.05
-202.13
-212.13
-214.68
-210.50
-200.28
-184.62
-164.40
-141.07
-115.95
-89.98
-63.58
-36.94
-10.46
14.97
38.00
56.62
68.47
72.26
68.55
59.70
49.04
39.39
32.24
27.67
26.73
28.51
30.63
30.86
28.75
25.58
22.83
19.98
17.68
15.72
12.71
6.99
-2.57
-16.43
-32.30
-48.05
-61.25
-69.59
-71.83
-68.16
-59.57
-47.31
-32.71
-17.24
-2.77
9.12
17.79
23.40
27.48
31.21
35.14
39.04
42.32
44.58
45.99
47.12
48.46
50.03
51.34
51.84
51.25
49.72
47.79
46.26
45.66
46.03
46.76
46.81
45.34
42.27
37.57
31.48
24.11
15.32
5.27
-5.44
-15.86
-24.85
-31.52
-35.80
-38.26
-39.80
-41.16
-42.13
-42.40
-42.17
-42.37
-44.30
-49.19
-57.61
-66.85
-74.38
-77.68
-75.66
-69.19
-60.58
-52.38
-46.45
-43.44
-42.99
-43.98
-44.68
-43.71
-40.06
-32.67
-20.09
-0.77
26.77
58.90
88.50
109.83
120.72
121.80
115.29
104.11
91.16
78.63
67.65
58.87
52.89
49.88
49.39
50.34
51.17
50.05
45.29
35.91
22.50
7.15
-7.52
-19.44
-27.57
-31.96
-33.52
-33.50
-33.18
-33.13
-33.29
-33.43
-33.33
-32.83
-31.86
-30.43
-28.63
-26.42
-23.54
-19.84
-15.74
-12.41
-11.30
-13.38
-18.45
-24.95
-30.79
-33.98
-33.67
-30.41
-25.59
-20.60
-16.08
-11.93
-7.73
-3.32
0.92
4.36
6.38
6.80
5.70
3.32
-0.01
-4.00
-8.40
-12.88
-16.94
-20.10
-21.90
-22.06
-20.49
-17.34
-13.12
-8.64
-4.87
-2.49
-1.97
-3.31
-6.16
-9.98
-14.15
-18.10
-21.36
-23.53
-24.21
-23.31
-21.03
-17.72
-13.72
-9.00
-3.14
4.56
13.26
22.25
30.40
36.50
39.72
39.88
37.62
34.01
30.02
26.22
22.85
19.80
16.92
14.29
12.16
10.80
10.33
10.75
11.98
14.12
17.13
20.68
24.05
26.34
26.78
25.03
21.34
16.41
11.16
6.27
2.13
-1.16
-3.70
-5.72
-7.53
-9.45
-11.50
-13.24
-13.82
-12.33
-8.38
-2.47
3.97
9.13
11.60
10.92
7.75
3.51
-0.13
-1.84
-0.95
2.62
8.58
16.53
26.09
36.83
48.30
60.14
72.00
83.48
93.93
102.45
108.06
109.90
107.39
100.58
90.27
77.78
64.51
51.49
39.19
27.76
16.92
6.04
-5.45
-17.87
-30.97
-44.19
-56.85
-68.53
-78.95
-87.30
-93.42
-98.38
-103.92
-110.91
-118.54
-124.51
-125.96
-120.53
-107.45
-88.14
-65.66
-43.88
-25.82
-12.84
-4.43
0.99
5.17
8.98
12.11
13.81
13.53
12.10
11.41
13.50
19.45
28.91
40.15
50.86
59.74
65.44
67.85
67.52
65.00
60.61
54.73
48.05
41.32
36.98
36.06
38.01
40.59
40.67
35.88
25.87
12.37
-1.46
-12.94
-21.62
-28.80
-36.56
-46.23
-57.55
-68.90
-79.42
-88.33
-96.05
-103.69
-111.32
-117.30
-118.80
-113.07
-97.79
-75.02
-48.20
-21.17
2.96
22.83
38.83
52.48
65.05
76.97
87.48
95.30
98.44
94.88
83.37
64.21
39.62
13.01
-12.12
-33.28
-48.86
-58.61
-63.31
-64.14
-62.09
-57.41
-50.60
-42.87
-36.13
-31.88
-30.84
-32.68
-36.37
-40.30
-42.14
-40.57
-36.03
-30.21
-24.79
-20.46
-16.57
-11.49
-2.64
13.59
39.17
73.23
112.53
153.01
190.78
222.84
246.96
252.95
235.95
199.38
152.71
105.85
65.20
33.10
10.03
-7.80
-23.08
-36.07
-46.52
-55.38
-64.41
-73.50
-82.28
-90.20
-96.97
-101.86
-103.12
-99.75
-93.30
-86.96
-84.01
-86.63
-95.10
-108.05
-122.65
-135.52
-139.30
-130.89
-112.38
-88.96
-64.90
-41.66
-19.25
2.29
22.00
38.36
49.45
54.70
55.35
53.71
51.69
50.38
50.34
51.81
54.93
59.10
63.63
67.98
71.72
74.72
75.95
74.88
71.42
65.91
58.49
49.36
38.63
26.30
11.75
-5.21
-24.03
-43.51
-61.96
-77.66
-89.06
-95.03
-91.85
-80.66
-64.30
-45.98
-28.78
-15.24
-7.01
-4.55
-6.89
-11.63
-16.19
-17.86
-14.90
-7.38
3.05
14.12
23.89
30.84
34.26
33.55
29.25
23.03
17.79
16.97
23.51
38.40
58.75
79.85
96.56
106.10
108.48
105.27
97.75
86.06
69.71
49.26
27.44
8.19
-4.81
-10.69
-11.94
-12.91
-17.05
-25.08
-34.68
-41.94
-44.14
-40.52
-32.90
-24.38
-17.77
-14.54
-14.97
-18.72
-25.26
-35.20
-48.36
-64.39
-82.04
-98.85
-111.71
-117.92
-116.16
-105.65
-90.07
-73.01
-57.47
-44.98
-35.58
-28.44
-22.60
-17.57
-13.26
-10.22
-8.39
-7.67
-7.87
-8.90
-10.45
-11.67
-10.86
-5.73
4.98
21.80
43.08
65.44
85.02
98.86
105.75
105.53
100.25
91.46
80.50
68.32
56.11
45.46
37.85
33.67
31.66
29.38
23.89
13.61
-1.01
-17.58
-32.79
-43.69
-48.60
-47.32
-40.53
-29.80
-16.94
-4.02
6.63
12.78
13.14
8.00
-0.65
-9.60
-15.75
-17.08
-13.19
-5.33
4.25
13.19
19.80
23.39
24.12
22.58
19.35
14.72
8.60
0.80
-8.58
-18.86
-28.71
-36.40
-40.41
-39.89
-34.88
-26.23
-15.17
-3.06
8.85
19.34
27.29
31.65
31.76
27.64
20.19
11.06
2.14
-5.02
-9.56
-11.45
-11.25
-9.79
-7.87
-6.04
-4.52
-3.30
-2.24
-1.16
0.07
1.50
3.09
4.58
5.67
6.22
6.19
5.67
4.79
3.57
1.89
-0.41
-3.58
-7.56
-11.86
-15.77
-18.64
-20.20
-20.72
-20.87
-20.52
-19.82
-18.81
-17.17
-14.39
-10.15
-4.64
1.42
7.01
11.27
13.50
13.51
11.87
9.62
7.91
7.78
10.23
15.22
22.00
28.90
33.84
35.47
33.34
27.90
20.05
10.84
1.02
-9.04
-19.45
-30.35
-41.01
-50.60
-58.01
-62.96
-65.72
-66.67
-65.88
-62.99
-57.15
-46.33
-28.90
-4.65
24.72
56.27
86.75
113.48
134.84
145.09
141.09
124.40
100.59
75.66
53.67
36.45
24.24
16.10
10.33
6.03
2.57
-0.66
-4.30
-8.80
-14.49
-21.62
-30.21
-40.47
-50.42
-57.47
-59.57
-55.65
-45.70
-30.89
-13.80
1.79
11.64
12.99
5.46
-8.43
-23.45
-33.12
-32.20
-18.84
4.81
34.85
65.03
88.83
101.31
100.28
86.12
60.75
26.49
-14.50
-60.07
-104.39
-139.14
-157.69
-158.74
-146.18
-126.14
-104.16
-84.03
-67.48
-54.56
-44.60
-37.06
-31.74
-28.59
-27.36
-27.15
-26.48
-23.35
-16.10
-4.48
9.95
24.46
36.50
44.88
49.89
52.73
54.63
56.26
57.28
56.93
54.71
50.81
46.00
41.03
36.31
31.94
28.07
24.43
20.80
17.04
13.09
9.09
5.35
2.31
0.32
-0.68
-1.17
-1.79
-2.88
-4.31
-5.49
-5.94
-5.61
-4.93
-4.68
-5.63
-7.92
-11.00
-13.90
-15.42
-14.79
-11.39
-4.93
4.41
15.56
26.88
36.64
43.35
47.03
47.49
45.39
41.71
37.36
32.69
28.01
23.91
21.15
20.37
21.10
22.16
21.72
18.23
10.64
-0.61
-13.87
-27.13
-38.65
-47.96
-55.14
-60.55
-61.06
-56.77
-50.07
-44.53
-45.20
-53.72
-70.60
-94.62
-123.22
-153.90
-181.06
-200.52
-209.83
-208.42
-197.05
-177.50
-151.69
-121.53
-88.93
-56.15
-24.68
4.51
30.69
53.73
73.79
91.30
106.27
118.18
125.91
129.79
130.28
127.35
121.24
112.81
103.48
94.43
86.31
79.16
75.09
74.92
77.00
78.57
77.79
74.68
70.75
68.35
69.73
79.26
98.16
123.09
148.51
170.22
186.71
198.51
207.14
193.88
153.77
99.60
50.16
15.13
-6.12
-19.00
-29.64
-42.65
-59.95
-77.29
-90.01
-96.09
-96.04
-91.26
-83.34
-74.13
-65.43
-58.42
-50.98
-41.71
-31.70
-23.62
-19.80
-20.84
-25.91
-33.13
-40.35
-44.59
-45.21
-44.44
-45.76
-51.73
-62.07
-74.54
-86.09
-94.01
-95.93
-91.21
-80.88
-66.00
-49.40
-33.07
-18.60
-7.13
0.79
5.81
9.08
11.83
15.09
19.05
23.52
27.67
30.38
30.73
28.59
24.69
20.35
16.80
14.58
13.14
11.17
7.01
-0.69
-12.18
-26.19
-40.01
-49.91
-52.91
-47.55
-34.72
-17.37
0.61
15.87
26.54
32.56
35.05
35.26
34.14
32.07
29.26
26.13
23.49
22.24
22.86
25.34
28.86
32.22
34.27
34.16
31.51
26.55
19.95
12.79
6.18
0.93
-2.57
-4.54
-5.51
-6.11
-6.91
-8.32
-10.55
-13.68
-17.60
-22.00
-26.33
-29.91
-32.06
-32.25
-30.38
-26.99
-23.04
-19.76
-18.06
-18.00
-18.68
-18.54
-16.14
-10.92
-3.50
4.41
10.89
14.64
15.33
13.67
10.74
7.53
4.54
1.94
-0.35
-2.24
-3.34
-3.11
-1.22
2.02
5.67
8.42
9.17
7.44
3.67
-1.16
-5.83
-9.39
-11.37
-11.87
-11.42
-10.80
-10.83
-12.00
-14.42
-17.71
-20.99
-23.36
-24.26
-23.63
-21.70
-18.75
-14.71
-9.56
-3.65
2.18
6.54
8.10
6.34
1.75
-4.44
-10.74
-16.15
-20.28
-23.22
-25.14
-25.90
-25.14
-22.45
-18.25
-13.20
-8.25
-4.27
-1.82
-1.17
-2.15
-4.39
-7.45
-10.86
-14.07
-16.64
-18.26
-18.71
-18.08
-16.59
-14.69
-12.97
-11.94
-11.83
-12.52
-13.57
-14.35
-14.22
-12.76
-9.91
-5.83
-0.89
4.54
10.10
15.51
20.50
24.87
28.44
31.05
32.63
33.26
33.10
32.38
31.32
30.15
29.03
28.03
27.08
26.05
24.76
23.08
20.98
18.49
15.74
12.81
9.73
6.43
2.80
-1.19
-5.49
-9.96
-14.35
-18.29
-21.28
-22.72
-22.09
-19.16
-14.12
-7.58
-0.44
6.36
12.11
16.56
19.82
22.10
23.58
24.33
24.44
24.01
23.27
22.53
22.47
23.65
26.36
30.49
35.62
41.14
46.34
50.56
53.30
54.91
55.89
56.57
56.87
56.67
55.93
54.89
53.89
53.18
53.60
55.48
58.39
61.35
63.58
64.91
65.74
66.48
67.14
68.39
70.41
72.87
75.17
76.93
78.17
78.71
77.45
65.75
38.39
-3.70
-53.04
-99.88
-136.69
-159.69
-168.49
-165.19
-153.20
-134.74
-111.62
-85.93
-60.69
-39.72
-26.43
-22.19
-25.27
-31.30
-34.08
-29.47
-17.53
-2.14
11.41
19.27
20.71
17.63
12.57
7.71
3.37
-1.49
-7.93
-16.00
-24.53
-31.94
-37.11
-40.16
-41.39
-41.20
-39.56
-36.08
-30.34
-22.37
-12.88
-2.25
7.71
15.22
18.85
18.11
13.78
7.42
0.83
-4.60
-8.27
-10.55
-12.09
-13.89
-16.44
-19.28
-21.30
-21.41
-19.03
-14.33
-8.22
-1.86
2.90
4.81
3.77
0.73
-3.04
-6.51
-9.24
-11.50
-14.06
-18.69
-26.60
-37.44
-49.55
-60.89
-69.83
-75.40
-77.19
-70.17
-52.61
-27.91
-2.50
18.67
34.03
44.36
51.30
56.46
60.78
63.59
63.91
61.30
56.05
48.78
40.15
30.81
21.61
13.64
7.30
2.82
0.48
0.32
2.12
5.29
9.19
13.36
17.61
21.49
24.71
27.44
29.83
32.17
34.31
35.62
35.32
32.93
28.45
22.63
16.95
12.60
10.88
12.05
14.94
17.51
17.86
14.90
8.78
0.80
-7.98
-15.52
-20.78
-24.58
-28.85
-35.10
-43.71
-53.84
-63.89
-73.17
-79.71
-82.71
-83.73
-85.77
-91.99
-105.33
-128.85
-157.90
-189.06
-214.58
-225.30
-214.34
-179.02
-121.61
-49.08
28.82
103.21
155.40
176.84
174.72
161.66
146.00
130.48
115.03
99.49
84.93
72.14
63.81
61.07
62.14
63.62
63.15
60.35
56.48
53.36
51.10
49.64
47.06
40.08
26.54
7.53
-12.97
-30.08
-40.29
-42.76
-37.71
-26.56
-11.71
4.15
18.35
28.32
32.02
28.79
19.84
8.62
-1.11
-7.12
-9.32
-9.20
-8.70
-9.24
-11.21
-14.12
-17.08
-19.51
-21.52
-23.55
-26.00
-28.94
-32.10
-34.95
-37.11
-38.06
-37.59
-35.76
-32.77
-28.87
-24.29
-19.32
-14.33
-9.68
-5.64
-2.19
1.00
4.61
9.31
15.50
22.86
30.29
36.26
39.30
38.56
34.09
27.02
19.07
11.87
6.27
2.00
-2.15
-7.43
-14.26
-21.75
-27.54
-28.90
-24.20
-13.91
-0.73
11.63
20.08
23.25
21.73
17.84
14.56
14.67
19.51
29.00
41.77
55.26
66.27
71.85
70.55
63.06
51.69
38.51
25.04
12.04
-0.26
-11.73
-22.57
-32.63
-41.24
-47.86
-53.60
-60.45
-70.21
-83.60
-100.18
-118.40
-135.86
-149.80
-152.64
-140.72
-116.39
-86.45
-57.43
-32.45
-11.74
5.63
21.22
36.83
52.09
66.10
78.45
89.48
99.84
110.21
118.05
122.07
121.63
116.10
105.88
92.55
78.41
65.66
55.62
48.65
44.92
43.94
44.29
44.51
43.45
40.46
35.30
28.01
18.98
9.34
0.22
-7.74
-14.24
-19.21
-22.67
-24.61
-25.01
-23.84
-20.96
-16.55
-11.31
-6.27
-2.48
-0.77
-1.64
-5.28
-11.60
-20.24
-30.74
-42.50
-54.66
-66.12
-75.61
-81.87
-83.91
-81.18
-73.60
-61.54
-45.79
-27.45
-7.98
10.91
27.47
40.23
48.31
51.62
50.74
46.74
40.71
33.52
25.73
17.69
9.69
2.13
-4.51
-9.82
-13.51
-15.63
-16.50
-16.65
-16.67
-17.03
-18.04
-19.78
-22.21
-25.26
-28.88
-33.02
-37.52
-42.02
-45.92
-48.40
-48.60
-45.82
-39.62
-30.01
-17.49
-3.05
11.94
25.96
37.60
45.88
50.42
51.44
49.57
45.68
40.65
35.27
30.16
25.75
22.25
19.67
17.86
16.60
15.62
14.70
13.58
11.95
9.44
5.68
0.37
-6.55
-14.82
-23.86
-32.80
-40.70
-46.75
-50.39
-51.40
-49.91
-46.27
-41.01
-34.77
-28.25
-22.12
-16.93
-12.86
-9.75
-7.07
-4.09
-0.15
5.13
11.71
19.09
26.35
32.33
35.80
35.87
32.19
25.11
15.58
4.90
-5.66
-15.17
-23.12
-29.37
-33.97
-37.03
-38.72
-39.23
-38.71
-37.14
-34.21
-29.41
-22.28
-12.82
-1.77
9.41
18.97
25.36
27.72
26.09
21.25
14.38
6.80
-0.26
-5.81
-9.11
-9.87
-8.27
-4.93
-0.74
3.35
6.61
8.67
9.44
9.05
7.72
5.66
3.13
0.40
-2.20
-4.36
-5.76
-6.19
-5.49
-3.61
-0.65
3.01
6.63
9.25
9.85
7.65
2.38
-5.71
-15.89
-27.35
-39.40
-51.57
-63.30
-73.71
-81.52
-85.29
-83.79
-76.43
-63.64
-46.85
-28.10
-9.27
8.21
23.34
35.47
44.08
48.88
49.51
45.63
37.15
25.09
11.37
-1.73
-12.15
-18.58
-20.04
-16.55
-9.02
0.99
12.82
26.24
40.81
55.48
68.55
78.95
85.66
87.75
84.52
77.42
69.13
62.53
59.72
61.68
69.44
82.73
99.70
117.02
132.46
144.96
154.58
161.73
159.51
144.92
121.09
98.28
74.88
46.67
11.46
-27.64
-64.73
-93.94
-110.51
-113.47
-106.17
-94.99
-86.43
-83.65
-85.65
-89.04
-90.95
-89.63
-85.61
-81.48
-81.24
-89.77
-109.43
-138.47
-172.08
-204.39
-229.57
-243.47
-244.81
-220.65
-170.09
-107.02
-50.32
-10.07
14.85
30.69
42.88
53.83
63.50
69.11
69.74
67.59
66.06
67.00
69.97
73.20
75.17
75.37
72.36
65.92
57.49
49.05
41.89
36.24
31.72
27.73
23.62
17.72
9.51
0.42
-6.97
-10.70
-10.52
-7.63
-3.69
0.20
3.55
7.21
12.56
20.11
28.51
35.10
37.37
34.59
27.92
19.59
11.96
6.68
4.52
5.60
9.95
16.93
26.18
36.28
45.01
50.13
50.48
46.58
40.31
34.12
29.81
28.03
28.39
30.09
32.52
35.26
37.77
38.89
37.06
30.87
20.19
6.65
-6.79
-17.14
-22.81
-24.40
-24.06
-23.73
-24.03
-23.96
-22.08
-18.20
-14.34
-14.13
-21.01
-36.41
-58.35
-82.59
-104.18
-119.01
-124.99
-122.02
-111.33
-94.04
-72.78
-49.36
-25.35
-2.27
18.42
35.31
47.14
53.40
53.92
49.58
42.61
35.91
32.26
33.42
39.38
48.29
57.71
65.33
70.01
71.95
71.61
68.72
61.81
48.86
28.95
3.93
-21.25
-39.98
-46.68
-39.86
-23.19
-3.83
10.96
17.00
14.75
7.87
0.57
-4.72
-8.03
-10.71
-13.42
-15.22
-14.30
-9.83
-3.40
1.41
1.05
-5.72
-16.92
-28.37
-36.08
-38.34
-36.21
-32.36
-29.17
-27.47
-26.47
-25.06
-22.73
-19.89
-17.27
-14.99
-12.11
-7.12
0.72
10.60
19.93
25.28
23.91
15.05
0.56
-15.54
-28.55
-34.62
-31.95
-21.31
-4.94
14.72
36.10
58.43
80.61
99.82
111.72
111.55
96.61
68.13
31.47
-5.83
-36.70
-56.80
-65.29
-63.69
-54.35
-39.48
-21.17
-2.21
13.56
22.02
20.46
9.23
-7.64
-23.83
-33.37
-33.06
-23.75
-9.61
3.93
12.25
13.17
7.20
-3.43
-15.61
-26.13
-32.11
-31.55
-24.08
-11.68
1.50
10.86
13.07
7.58
-2.97
-13.85
-20.41
-20.16
-13.87
-4.75
3.83
9.97
13.77
16.83
20.83
26.29
31.89
34.82
32.45
23.94
10.74
-4.54
-19.17
-30.71
-37.31
-38.52
-36.09
-33.71
-36.37
-47.26
-69.29
-102.86
-140.90
-169.05
-169.87
-132.90
-62.36
23.32
99.09
145.70
157.02
136.64
96.53
52.08
15.99
-5.22
-11.22
-4.81
8.23
19.86
21.82
11.28
-7.75
-28.55
-46.45
-60.47
-72.42
-82.44
-90.06
-94.75
-96.12
-93.81
-88.72
-81.70
-72.02
-57.13
-32.60
3.42
47.73
92.28
126.49
141.30
133.50
108.63
79.21
61.34
65.81
93.53
136.40
182.03
218.91
239.31
240.31
210.77
149.27
66.26
-19.80
-90.90
-135.31
-148.88
-134.75
-101.21
-59.64
-19.36
12.35
30.67
33.90
24.05
8.02
-9.64
-24.64
-34.85
-39.15
-39.11
-38.46
-40.86
-47.82
-58.32
-69.18
-76.53
-77.95
-71.31
-56.06
-33.91
-8.39
16.44
37.07
52.07
61.70
66.42
68.07
68.67
69.79
72.78
78.17
85.67
96.30
111.48
126.15
135.22
136.50
131.37
121.75
110.74
91.50
58.89
11.80
-47.84
-115.84
-184.19
-244.00
-279.78
-280.25
-248.08
-198.46
-150.08
-114.66
-92.70
-77.22
-60.68
-40.04
-19.27
-6.03
-4.61
-13.27
-24.85
-30.12
-22.58
-1.93
25.79
49.89
60.02
52.34
30.60
4.46
-15.12
-20.80
-11.86
6.44
25.79
39.77
47.70
52.97
60.03
70.52
81.57
87.13
81.65
63.10
33.52
1.10
-26.20
-43.36
-49.47
-46.76
-38.56
-27.48
-14.97
-1.66
11.99
24.76
35.30
42.59
46.44
47.67
47.73
47.98
48.88
49.68
48.17
42.26
31.36
17.11
2.93
-7.55
-12.37
-12.40
-10.57
-10.46
-14.13
-21.23
-29.72
-37.50
-43.66
-48.62
-53.57
-58.35
-61.98
-63.02
-60.64
-55.38
-48.97
-43.41
-39.52
-37.24
-34.93
-30.75
-23.60
-13.81
-2.99
6.59
13.06
15.66
15.04
13.07
11.73
12.37
15.16
19.16
22.94
25.35
26.16
26.06
26.31
27.74
30.54
33.95
36.96
38.70
38.76
37.12
33.89
29.18
22.73
14.80
5.75
-3.59
-12.16
-18.89
-23.10
-24.53
-23.39
-20.37
-16.30
-12.18
-8.73
-6.32
-4.91
-4.20
-3.89
-3.84
-4.09
-4.71
-5.66
-6.66
-7.28
-7.23
-6.42
-5.13
-3.72
-2.48
-1.40
-0.31
0.97
2.49
4.05
5.32
5.99
5.93
5.26
4.19
2.97
1.84
1.00
0.64
0.90
1.86
3.45
5.49
7.63
9.49
10.72
11.16
10.81
9.78
8.27
6.46
4.52
2.51
0.44
-1.69
-3.89
-6.10
-8.27
-10.32
-12.17
-13.79
-15.27
-16.81
-18.70
-21.33
-24.51
-28.25
-32.48
-37.00
-41.58
-45.91
-49.67
-52.44
-53.75
-53.13
-50.27
-45.08
-37.76
-28.85
-19.10
-9.31
-0.22
7.63
13.96
18.60
21.60
23.16
23.55
23.08
22.07
20.84
19.63
18.61
17.80
17.10
16.34
15.36
14.09
12.57
10.93
9.31
7.69
5.89
3.62
0.68
-2.88
-6.63
-9.84
-11.65
-11.40
-8.80
-3.98
2.57
10.17
18.13
25.83
32.73
38.43
42.63
45.23
46.28
46.03
44.79
42.89
40.56
37.95
35.14
32.19
29.23
26.36
23.71
21.38
19.35
17.53
15.79
13.99
11.99
9.63
6.72
3.11
-1.14
-5.83
-10.48
-14.37
-16.76
-17.15
-15.46
-12.04
-7.51
-2.60
1.92
5.48
7.81
9.02
9.32
8.86
7.66
5.73
3.13
-0.17
-4.07
-8.25
-12.20
-15.70
-18.92
-22.40
-26.66
-31.91
-38.22
-45.29
-52.47
-58.80
-63.71
-67.11
-69.30
-70.38
-68.88
-63.79
-55.74
-46.63
-37.87
-30.26
-23.12
-16.28
-9.77
-3.62
2.15
8.00
12.67
16.49
20.31
25.21
31.82
40.16
49.26
57.21
61.92
62.10
58.19
51.75
44.77
38.71
34.12
30.38
26.12
20.04
11.53
1.13
-10.26
-21.77
-32.74
-42.64
-50.91
-56.89
-59.88
-59.25
-54.54
-45.87
-33.81
-19.32
-3.50
12.49
27.53
40.75
51.61
59.92
65.69
69.03
70.21
69.61
67.61
64.54
60.77
56.70
52.75
49.24
46.39
44.52
43.75
43.62
43.04
40.78
36.11
28.94
19.91
10.09
0.94
-6.40
-11.70
-15.69
-19.26
-22.99
-27.14
-31.71
-36.44
-40.25
-41.58
-39.07
-32.11
-20.68
-5.31
12.68
31.45
45.81
50.97
46.38
36.06
24.41
13.60
4.05
-4.83
-13.56
-22.24
-30.10
-36.46
-41.17
-44.69
-48.32
-51.90
-55.04
-57.22
-57.96
-56.51
-52.77
-47.17
-40.46
-33.26
-25.86
-18.69
-12.20
-6.89
-2.36
0.54
0.62
-3.20
-11.19
-22.54
-35.56
-47.73
-56.23
-55.68
-43.60
-22.47
1.59
22.99
39.07
49.58
55.28
56.76
54.15
46.94
35.30
20.86
6.38
-5.41
-12.95
-16.15
-16.09
-14.18
-12.00
-10.43
-9.55
-9.01
-8.71
-8.84
-9.64
-10.89
-11.98
-12.47
-12.19
-11.21
-9.73
-7.97
-6.05
-3.92
-1.39
1.68
5.16
8.75
12.10
14.73
16.12
15.88
14.07
11.61
10.13
11.44
16.54
25.28
35.68
44.60
48.97
46.96
38.91
27.08
14.65
4.48
-1.97
-4.85
-5.48
-5.56
-6.59
-9.52
-14.79
-22.42
-31.83
-41.78
-50.08
-54.25
-52.54
-44.95
-33.34
-20.70
-9.64
-1.34
4.73
9.90
15.14
20.26
24.02
25.05
22.80
17.89
11.80
5.95
1.08
-2.85
-6.36
-9.75
-12.84
-14.87
-14.76
-11.51
-4.62
5.27
16.91
28.61
38.72
45.96
49.60
49.45
45.85
39.41
30.94
21.40
11.61
2.09
-7.23
-17.02
-28.08
-40.65
-54.02
-66.47
-75.62
-79.41
-76.90
-68.70
-56.71
-43.24
-30.14
-18.32
-7.82
1.77
10.66
18.54
24.59
27.86
27.78
24.38
18.32
10.69
2.76
-4.29
-9.59
-12.70
-13.57
-12.42
-9.70
-6.04
-2.08
0.90
1.96
0.80
-2.07
-5.43
-7.70
-7.50
-4.14
2.17
10.30
18.63
25.36
29.02
28.72
24.36
16.64
6.88
-3.30
-12.36
-19.14
-23.13
-24.52
-24.06
-22.81
-21.82
-21.86
-23.24
-25.69
-28.35
-29.99
-29.35
-25.43
-17.71
-6.26
8.33
25.19
43.30
61.68
79.33
95.22
108.28
117.51
122.25
122.42
118.64
112.08
104.14
95.89
87.74
79.26
69.44
57.17
41.82
23.46
2.91
-18.52
-39.42
-58.48
-74.68
-87.37
-96.25
-101.42
-103.29
-102.51
-99.77
-95.56
-90.02
-82.83
-73.41
-61.19
-45.92
-27.95
-8.35
11.26
28.96
43.05
52.34
56.45
55.71
51.04
43.56
34.42
24.47
14.25
3.94
-6.59
-17.54
-28.97
-40.47
-51.06
-59.33
-63.78
-63.36
-57.90
-48.32
-36.39
-24.23
-13.77
-6.20
-1.81
-0.00
0.32
0.41
1.31
3.62
7.40
12.29
17.63
22.63
26.60
29.00
29.47
27.80
23.93
17.97
10.23
1.26
-8.13
-16.85
-23.70
-27.54
-27.56
-23.54
-16.01
-6.24
4.07
13.18
19.73
23.01
22.99
20.14
15.18
8.87
1.93
-4.88
-10.78
-14.98
-16.86
-16.16
-13.04
-8.08
-2.06
4.23
10.16
15.32
19.36
21.97
22.87
21.81
18.79
14.10
8.37
2.50
-2.50
-5.71
-6.48
-4.62
-0.47
5.12
11.07
16.33
20.18
22.34
22.99
22.52
21.27
19.40
16.84
13.48
9.32
4.64
-0.04
-4.10
-7.05
-8.75
-9.42
-9.51
-9.49
-9.57
-9.69
-9.60
-9.13
-8.27
-7.32
-6.64
-6.60
-7.33
-8.74
-10.55
-12.36
-13.80
-14.57
-14.48
-13.43
-11.48
-8.77
-5.56
-2.26
0.63
2.55
3.02
1.82
-0.87
-4.49
-8.17
-11.01
-12.22
-11.30
-8.01
-2.42
5.18
14.28
24.16
33.99
42.96
50.37
55.72
58.80
59.68
58.74
56.61
54.15
52.17
51.26
51.50
52.46
53.30
53.06
50.99
46.78
40.60
33.02
24.82
16.76
9.46
3.24
-1.88
-6.23
-10.37
-15.01
-20.64
-27.42
-34.93
-42.28
-48.28
-51.89
-52.43
-49.88
-44.82
-38.24
-31.28
-24.94
-19.88
-16.28
-14.02
-12.77
-12.17
-11.94
-11.96
-12.34
-13.30
-15.03
-17.64
-21.06
-25.00
-28.98
-32.41
-34.66
-35.38
-34.54
-32.45
-29.69
-26.96
-24.82
-23.53
-22.91
-22.39
-21.44
-19.50
-16.07
-10.85
-3.98
3.90
11.89
19.01
24.60
27.92
28.79
27.71
25.65
23.48
21.64
20.11
18.65
16.97
14.07
9.27
2.71
-4.67
-11.76
-17.76
-22.31
-25.38
-27.25
-29.54
-33.82
-40.85
-50.20
-60.82
-71.44
-80.76
-87.61
-85.29
-70.52
-45.80
-18.24
5.76
23.51
35.18
41.87
44.45
43.38
38.03
28.43
15.83
2.65
-8.81
-17.22
-22.10
-23.49
-21.54
-17.43
-12.44
-7.68
-3.87
-1.56
-1.09
-2.22
-4.30
-5.66
-5.13
-1.62
5.76
17.47
32.87
49.85
65.32
76.54
82.02
81.63
76.86
70.23
64.41
61.08
60.33
60.67
59.59
54.57
44.09
28.57
10.36
-7.04
-20.43
-28.29
-31.10
-30.71
-29.11
-27.49
-25.93
-24.04
-21.80
-19.86
-19.27
-20.75
-24.11
-28.34
-32.44
-35.55
-37.71
-39.36
-40.74
-41.32
-39.89
-35.13
-26.39
-14.23
-0.28
13.34
24.78
32.95
37.56
38.75
36.93
32.73
27.07
21.11
15.70
11.06
6.55
1.27
-5.34
-12.78
-19.58
-24.14
-25.65
-24.70
-22.76
-21.27
-20.75
-20.68
-20.04
-18.08
-14.87
-11.15
-7.84
-5.27
-2.97
0.19
5.42
13.28
23.23
33.47
41.74
45.67
44.06
37.28
27.00
15.61
5.48
-1.40
-3.70
-0.60
7.76
20.15
34.06
46.01
52.32
50.32
39.46
21.45
-0.12
-21.17
-38.37
-50.16
-56.38
-57.98
-56.22
-51.99
-45.65
-37.19
-26.88
-15.60
-4.75
4.25
10.37
13.41
13.92
12.87
11.11
9.10
6.91
4.52
2.02
-0.24
-1.86
-2.46
-2.02
-0.86
0.45
1.41
1.88
2.14
2.73
4.11
6.34
9.04
11.53
13.18
13.67
13.12
11.94
10.56
9.31
8.26
7.35
6.49
5.63
4.69
3.58
2.17
0.41
-1.57
-3.55
-5.19
-6.20
-6.50
-6.24
-5.66
-4.97
-4.12
-2.41
0.71
5.70
12.61
21.00
29.88
38.03
44.27
47.86
48.64
46.92
43.36
38.66
33.37
27.83
22.20
16.61
11.19
6.13
1.55
-2.52
-6.16
-9.67
-13.38
-17.52
-22.16
-27.13
-32.16
-36.98
-41.43
-45.49
-49.34
-53.20
-57.27
-61.63
-66.18
-70.67
-74.66
-77.70
-79.44
-79.63
-78.14
-74.87
-69.70
-62.58
-53.66
-43.36
-32.46
-22.05
-13.24
-6.78
-2.76
-0.49
1.27
4.13
9.77
19.46
33.55
51.22
70.59
89.01
103.58
111.72
112.05
105.13
93.31
79.96
68.18
59.78
54.84
51.93
48.73
43.33
35.12
24.79
13.66
2.98
-6.24
-13.30
-16.60
-15.35
-11.13
-6.69
-3.62
-1.59
0.35
2.65
4.51
4.36
0.69
-6.64
-15.76
-23.72
-28.04
-28.03
-24.68
-19.97
-15.84
-13.40
-12.63
-12.52
-11.84
-9.77
-6.44
-2.34
1.72
4.86
6.33
5.41
2.67
-1.07
-4.91
-8.61
-11.95
-15.28
-19.23
-24.44
-31.44
-40.47
-51.80
-63.76
-76.16
-86.62
-91.41
-86.89
-71.55
-47.40
-19.67
4.97
21.19
26.77
23.56
15.70
7.36
1.10
-2.45
-3.84
-3.76
-2.37
0.22
3.95
8.15
11.75
13.79
13.64
11.35
7.43
2.57
-2.70
-7.85
-12.16
-14.73
-14.73
-11.75
-6.01
1.51
9.43
16.40
21.39
24.02
24.36
22.52
18.74
13.55
7.96
3.24
0.13
-1.68
-3.24
-5.76
-10.31
-17.39
-26.67
-36.99
-46.95
-55.52
-62.12
-65.59
-63.56
-54.24
-37.95
-17.78
1.50
15.13
20.24
13.80
-2.74
-23.14
-40.28
-49.41
-49.21
-40.76
-26.06
-7.24
13.91
36.45
61.81
91.12
123.56
156.56
187.15
212.86
231.81
243.16
233.09
197.76
146.97
97.00
58.64
33.06
15.70
1.11
-14.26
-28.80
-41.50
-51.71
-60.66
-70.69
-83.07
-97.12
-111.01
-122.90
-131.50
-134.77
-131.85
-124.07
-114.09
-104.08
-94.88
-86.17
-77.21
-67.46
-56.12
-43.17
-29.99
-18.70
-10.83
-6.64
-5.33
-5.63
-6.44
-6.82
-6.30
-5.17
-4.07
-3.39
-3.05
-2.81
-2.48
-2.23
-2.31
-2.87
-3.98
-5.37
-6.46
-6.49
-4.86
-1.38
3.59
9.29
14.75
19.03
21.42
21.51
19.35
15.51
11.09
7.51
6.11
7.75
12.53
19.94
29.00
38.62
47.75
55.39
60.61
62.67
61.31
57.06
51.49
46.65
44.52
46.26
51.82
59.95
68.67
75.90
80.07
80.80
78.51
74.07
68.34
61.94
55.16
48.09
40.81
33.64
27.73
24.23
23.54
25.05
27.32
28.73
28.11
25.23
20.95
17.74
17.84
22.13
29.74
38.64
46.73
52.48
55.28
55.28
54.04
52.92
52.43
52.28
52.17
52.23
52.64
53.34
46.26
26.60
-4.60
-40.69
-74.27
-101.08
-120.25
-132.89
-140.35
-143.95
-143.78
-140.08
-133.92
-127.18
-121.39
-116.67
-111.61
-104.33
-91.92
-71.94
-43.93
-9.87
26.32
60.21
88.03
104.22
107.81
100.04
83.68
62.16
38.93
17.02
-1.47
-15.68
-26.11
-33.88
-40.56
-46.98
-52.66
-56.12
-55.84
-51.24
-43.27
-34.21
-26.43
-21.87
-21.08
-23.01
-25.77
-27.61
-27.82
-26.77
-25.42
-24.26
-23.35
-22.35
-20.86
-18.88
-16.78
-15.09
-14.00
-13.27
-12.42
-11.27
-10.09
-9.23
-8.66
-7.78
-5.73
-2.04
2.90
7.65
10.47
10.24
7.31
3.48
1.23
2.73
9.09
20.28
34.55
49.52
62.82
72.64
78.03
78.93
75.95
70.16
62.96
55.38
47.99
40.81
33.64
26.23
18.46
10.47
1.84
-6.40
-12.26
-14.19
-12.37
-9.01
-7.31
-10.03
-18.17
-30.47
-43.81
-54.90
-61.90
-64.94
-65.75
-66.38
-67.94
-70.13
-71.54
-70.57
-66.48
-60.06
-52.79
-46.20
-41.14
-37.51
-34.40
-30.47
-24.31
-14.88
-2.10
13.56
30.89
47.94
62.23
71.43
74.23
71.20
65.84
61.09
59.94
63.40
69.56
74.54
74.52
68.26
57.17
46.86
42.02
44.21
50.71
55.56
52.61
38.25
13.17
-18.05
-48.47
-72.02
-84.98
-86.98
-81.67
-73.38
-66.75
-64.79
-67.64
-72.49
-75.35
-72.49
-62.07
-44.92
-23.43
-0.51
21.67
41.82
59.08
72.11
78.46
77.21
68.39
53.90
36.95
21.07
8.79
0.94
-3.44
-6.00
-7.95
-10.07
-12.24
-14.00
-14.77
-14.08
-11.65
-7.74
-3.18
0.94
2.99
1.79
-3.08
-10.97
-20.40
-29.37
-36.04
-38.93
-36.93
-30.89
-22.61
-14.72
-10.09
-10.91
-17.49
-27.60
-36.41
-38.08
-28.06
-5.12
27.80
64.62
98.32
122.73
133.60
128.16
107.39
74.32
34.35
-5.37
-38.16
-58.68
-65.25
-60.34
-49.19
-36.97
-26.85
-19.23
-13.06
-7.38
-2.25
1.34
2.90
3.18
4.04
6.80
11.54
16.74
20.48
21.81
21.44
21.60
24.73
32.06
42.64
53.86
62.69
67.17
67.32
64.66
61.74
60.70
62.31
65.45
67.78
66.94
61.94
53.95
45.48
39.47
37.62
39.52
42.98
45.31
44.59
40.11
34.82
30.60
28.57
28.77
30.48
32.98
36.03
39.96
45.21
51.75
58.44
63.75
66.17
64.76
59.25
49.99
37.63
22.95
6.93
-9.50
-24.97
-38.20
-48.34
-55.27
-59.59
-62.15
-63.54
-63.88
-63.15
-61.34
-59.03
-57.29
-57.41
-60.17
-65.41
-71.97
-78.17
-82.59
-84.52
-84.06
-81.69
-77.91
-72.78
-66.07
-57.65
-47.92
-38.01
-29.50
-23.78
-21.48
-22.24
-24.85
-27.81
-29.95
-30.80
-30.54
-29.71
-28.76
-27.90
-27.08
-26.15
-25.09
-24.03
-23.14
-22.50
-21.95
-21.17
-19.77
-17.53
-14.46
-10.81
-7.03
-3.48
-0.47
1.87
3.49
4.43
4.77
4.74
4.67
4.93
5.77
7.10
8.48
9.26
8.93
7.34
4.81
1.96
-0.60
-2.61
-4.17
-5.69
-7.58
-10.06
-13.10
-16.51
-20.04
-23.51
-26.81
-29.90
-32.72
-35.14
-36.96
-38.02
-38.27
-37.70
-36.38
-34.29
-31.29
-27.11
-21.55
-14.62
-6.73
1.32
8.57
14.17
17.70
19.33
19.73
19.69
19.85
20.45
21.34
22.21
22.76
22.92
22.78
22.42
21.74
20.49
18.44
15.51
11.91
7.98
4.02
0.07
-3.99
-8.33
-12.94
-17.58
-21.98
-25.95
-29.56
-33.05
-36.67
-40.40
-44.01
-47.05
-49.08
-49.85
-49.31
-47.64
-45.05
-41.79
-38.03
-33.87
-29.37
-24.56
-19.62
-14.85
-10.67
-7.44
-5.33
-4.18
-3.61
-3.21
-2.65
-1.88
-1.03
-0.32
0.16
0.41
0.59
0.82
1.16
1.56
1.84
1.80
1.31
0.34
-0.99
-2.48
-3.93
-5.32
-6.80
-8.64
-10.99
-13.84
-16.87
-19.60
-21.56
-22.33
-21.73
-19.64
-16.04
-10.97
-4.63
2.57
10.03
17.02
22.88
27.18
29.82
30.97
31.01
30.36
29.38
28.28
27.15
25.98
24.73
23.43
22.12
20.87
19.75
18.79
17.95
17.18
16.41
15.59
14.71
13.82
12.91
11.95
10.81
9.28
7.18
4.33
0.79
-3.26
-7.55
-11.79
-15.73
-19.11
-21.60
-22.78
-22.20
-19.59
-14.96
-8.71
-1.55
5.65
12.04
17.03
20.34
22.00
22.28
21.63
20.56
19.55
19.05
19.32
20.53
22.58
25.20
27.99
30.57
32.82
35.00
37.61
41.19
46.03
51.92
58.27
64.32
69.41
73.24
75.94
77.95
79.80
81.97
84.65
87.60
89.99
90.51
87.80
80.93
69.98
56.19
41.65
28.58
18.49
11.72
7.48
4.42
1.36
-2.29
-6.46
-10.77
-14.98
-19.20
-23.73
-28.79
-34.23
-39.62
-44.41
-48.28
-51.22
-53.56
-55.71
-57.97
-60.46
-63.11
-65.83
-68.53
-71.22
-73.90
-76.59
-79.30
-82.05
-84.87
-87.70
-90.44
-92.92
-95.07
-96.93
-98.67
-100.55
-102.80
-105.54
-108.61
-111.48
-113.19
-112.51
-108.19
-99.45
-86.33
-69.82
-51.54
-33.31
-16.60
-2.23
9.50
18.57
25.00
28.87
30.35
29.89
28.15
25.84
23.39
20.93
18.31
15.35
12.00
8.43
4.85
1.44
-1.80
-4.99
-8.25
-11.58
-14.86
-17.89
-20.51
-22.77
-24.92
-27.33
-30.36
-34.20
-38.72
-43.45
-47.67
-50.57
-51.31
-49.13
-43.48
-34.20
-21.65
-6.60
9.85
26.35
41.57
54.37
64.02
70.21
72.84
72.21
69.11
64.79
60.60
57.65
56.58
57.47
59.92
62.98
65.69
67.46
68.08
67.52
65.78
62.94
59.33
55.53
51.76
47.78
42.97
36.45
27.44
15.99
3.47
-7.93
-13.79
-11.01
-0.13
15.85
34.19
53.21
71.81
88.47
100.97
106.94
104.64
94.09
77.46
58.23
39.70
24.37
13.68
8.32
8.14
11.84
17.34
22.57
26.12
27.48
27.64
27.07
26.32
25.61
24.61
22.95
20.63
17.99
15.35
12.90
10.66
8.87
8.06
8.63
10.63
13.79
17.46
20.64
22.72
23.63
24.08
25.16
27.73
31.98
37.29
44.11
51.41
57.92
62.32
63.90
62.53
58.42
51.88
43.34
33.30
22.07
10.10
-2.72
-16.30
-30.37
-44.66
-58.89
-72.55
-85.00
-95.80
-104.88
-113.77
-123.68
-134.93
-146.85
-158.27
-167.72
-174.08
-177.20
-177.99
-179.53
-183.58
-189.71
-195.86
-200.12
-201.25
-199.06
-194.19
-187.48
-181.36
-176.08
-169.70
-159.59
-144.86
-126.32
-106.06
-86.19
-56.72
-19.39
16.25
42.62
59.99
71.40
80.36
87.71
92.97
96.08
96.36
96.22
96.55
100.79
110.85
126.71
146.86
169.47
192.41
211.70
224.37
229.17
227.89
222.31
213.61
202.19
188.38
172.56
154.07
133.15
111.30
92.60
79.95
74.01
73.32
76.15
81.22
87.26
93.72
89.93
71.53
42.77
12.79
-12.14
-29.96
-41.06
-46.91
-49.10
-49.21
-47.05
-42.90
-38.12
-35.03
-34.90
-37.92
-43.54
-50.80
-58.75
-65.54
-70.30
-72.97
-74.68
-75.94
-77.10
-78.68
-81.47
-85.86
-90.60
-93.15
-88.13
-74.23
-52.06
-24.64
3.61
28.21
48.36
64.89
79.31
92.32
102.66
108.42
107.65
99.67
85.61
68.06
49.87
33.20
18.60
4.62
-9.10
-22.85
-36.42
-48.93
-59.19
-66.42
-70.33
-71.36
-70.54
-68.78
-67.04
-66.02
-66.25
-68.00
-71.38
-75.91
-80.37
-82.71
-80.23
-70.68
-53.15
-28.70
-0.22
28.29
53.11
71.55
82.66
87.16
86.48
82.09
75.09
66.36
56.77
47.24
38.13
29.83
22.90
17.75
14.30
11.77
9.40
6.57
3.12
-1.95
-8.87
-16.66
-23.78
-29.30
-33.86
-38.54
-44.58
-52.80
-65.11
-81.90
-101.20
-119.78
-135.14
-146.97
-155.43
-160.86
-163.40
-165.89
-170.77
-178.60
-188.22
-197.87
-206.07
-209.74
-205.04
-176.50
-121.27
-52.64
9.61
53.61
84.05
106.20
124.57
137.96
146.12
147.21
141.20
131.01
121.10
114.59
111.31
110.03
109.07
107.51
103.21
95.42
85.62
76.48
69.81
65.11
61.26
57.03
51.86
44.54
34.79
23.80
13.50
5.15
-1.63
-7.91
-14.96
-23.58
-34.55
-47.46
-60.46
-70.58
-74.98
-71.94
-61.09
-43.46
-21.21
2.65
25.24
44.58
59.73
70.57
77.37
80.62
80.91
78.84
75.01
69.96
64.24
58.31
52.43
46.74
41.26
35.99
31.08
26.73
23.14
20.31
17.94
15.45
12.16
7.58
1.63
-5.40
-12.94
-20.42
-27.51
-34.24
-40.96
-48.25
-56.63
-66.23
-76.50
-86.09
-92.95
-94.87
-90.09
-78.04
-59.52
-36.61
-12.04
11.58
32.34
49.19
61.80
70.22
74.60
75.13
72.21
66.57
59.31
51.73
45.00
39.84
36.32
34.00
32.13
30.10
27.66
24.96
22.41
20.33
18.72
17.18
15.07
11.76
6.93
0.71
-6.43
-13.79
-20.79
-27.10
-32.79
-38.27
-44.15
-50.99
-59.05
-68.09
-77.18
-84.82
-89.12
-88.21
-80.80
-66.57
-46.39
-22.21
3.40
27.89
49.19
66.03
77.91
84.93
87.54
86.38
82.21
75.93
68.51
60.89
53.85
47.87
43.11
39.47
36.68
34.46
32.59
31.00
29.64
28.38
27.00
25.13
22.34
18.40
13.32
7.43
1.28
-4.69
-10.28
-15.62
-21.11
-27.09
-33.66
-40.58
-47.35
-53.47
-58.65
-62.91
-66.58
-70.20
-74.42
-79.83
-86.78
-95.04
-103.59
-110.53
-113.46
-110.07
-99.00
-80.27
-55.41
-26.93
2.30
29.70
53.34
71.95
84.91
92.10
93.88
91.11
85.05
77.13
68.70
60.81
54.05
48.63
44.53
41.59
39.59
38.23
37.12
35.75
33.60
30.21
25.36
19.10
11.70
3.57
-4.86
-13.30
-21.68
-30.11
-38.89
-48.31
-58.42
-68.73
-78.01
-84.46
-86.05
-81.33
-69.84
-52.49
-31.26
-8.62
13.12
32.35
48.18
60.27
68.51
72.91
73.63
71.13
66.25
60.12
53.88
48.41
44.16
41.08
38.81
36.90
34.98
32.92
30.78
28.72
26.82
24.94
22.71
19.65
15.35
9.70
2.98
-4.24
-11.34
-17.87
-23.77
-29.28
-34.85
-40.94
-47.96
-56.16
-65.54
-75.69
-85.53
-93.40
-97.20
-94.97
-85.61
-69.34
-47.72
-23.30
1.20
23.48
42.08
56.34
66.18
71.78
73.55
72.03
68.04
62.49
56.38
50.51
45.42
41.31
38.15
35.80
34.11
33.00
32.44
32.37
32.58
32.68
32.14
30.45
27.40
23.11
18.05
12.74
7.55
2.51
-2.67
-8.38
-14.84
-22.00
-29.49
-36.87
-43.78
-50.06
-55.75
-61.08
-66.36
-71.99
-78.29
-85.34
-92.74
-99.42
-103.67
-103.57
-97.49
-84.75
-65.93
-42.81
-17.85
6.37
27.76
44.99
57.42
64.94
67.81
66.52
61.82
54.73
46.44
38.19
31.06
25.68
22.20
20.26
19.21
18.29
16.90
14.70
11.66
7.95
3.80
-0.62
-5.26
-10.20
-15.58
-21.58
-28.36
-36.03
-44.61
-53.87
-63.22
-71.55
-77.39
-79.14
-75.55
-66.12
-51.35
-32.66
-12.05
8.37
26.77
41.92
53.13
60.17
63.10
62.22
58.08
51.63
44.10
36.85
30.98
27.07
25.03
24.23
23.84
23.21
22.07
20.45
18.57
16.51
14.18
11.30
7.61
2.94
-2.66
-9.02
-15.92
-23.16
-30.64
-38.31
-46.23
-54.52
-63.40
-72.99
-83.11
-93.02
-101.26
-105.83
-104.70
-96.49
-81.03
-59.59
-34.44
-8.34
16.26
37.64
54.91
67.83
76.47
81.03
81.78
79.16
73.88
66.90
59.37
52.37
46.68
42.63
40.10
38.71
38.04
37.84
38.08
38.85
40.15
41.74
43.10
43.59
42.67
40.04
35.73
29.95
22.88
14.54
4.81
-6.43
-19.01
-32.40
-45.66
-57.73
-67.62
-74.74
-79.00
-80.83
-81.10
-80.89
-81.21
-82.64
-85.00
-87.23
-87.56
-83.99
-74.97
-59.97
-39.76
-16.20
8.29
31.31
51.00
66.18
76.40
81.67
82.41
79.30
73.31
65.63
57.56
50.21
44.27
39.91
36.81
34.44
32.41
30.66
29.45
29.13
29.78
31.04
32.11
32.00
30.05
26.06
20.47
14.12
7.93
2.55
-1.73
-5.04
-7.75
-10.26
-12.78
-15.38
-17.91
-20.21
-22.15
-23.67
-24.85
-25.82
-26.66
-27.44
-28.19
-28.87
-29.48
-30.04
-30.67
-31.64
-33.31
-36.17
-40.58
-46.59
-53.62
-60.36
-64.99
-65.61
-60.85
-50.33
-34.89
-16.31
3.14
21.34
36.66
48.15
55.46
58.71
58.35
55.01
49.51
42.73
35.52
28.61
22.55
17.63
13.96
11.36
9.55
8.19
7.00
5.84
4.66
3.45
2.16
0.69
-1.06
-3.14
-5.52
-8.19
-11.20
-14.69
-18.89
-23.90
-29.54
-35.35
-40.67
-44.94
-47.89
-49.61
-50.49
-50.99
-51.38
-51.60
-51.34
-50.23
-47.93
-44.22
-38.93
-32.06
-23.88
-15.07
-6.61
0.50
5.66
9.06
11.72
15.05
20.07
26.80
34.23
40.77
45.03
46.25
44.56
40.79
36.01
30.91
25.72
20.43
15.43
11.83
11.01
14.34
23.11
38.33
60.38
88.68
121.69
156.88
190.79
218.78
235.91
238.63
226.04
199.78
163.41
121.51
78.87
39.65
6.04
-21.77
-44.68
-63.99
-81.57
-99.53
-119.40
-141.39
-160.18
-168.06
-161.67
-144.31
-121.18
-95.83
-70.30
-46.27
-25.71
-10.84
-3.99
-6.33
-16.48
-30.32
-42.96
-50.55
-51.20
-45.12
-33.97
-20.66
-8.26
1.20
7.49
11.71
15.19
18.65
21.73
23.09
20.49
12.23
-1.20
-16.99
-31.46
-42.41
-50.59
-58.13
-66.90
-77.18
-87.07
-93.44
-93.79
-88.04
-78.38
-66.41
-54.27
-41.28
-25.63
-6.79
13.26
30.69
41.90
45.90
44.92
42.82
42.87
46.12
51.08
55.21
56.88
55.35
51.32
46.13
40.55
34.90
28.96
22.47
15.59
8.91
3.07
-1.49
-4.81
-7.47
-9.98
-12.78
-16.09
-19.68
-23.06
-25.75
-27.46
-28.37
-29.19
-30.36
-32.25
-34.59
-36.35
-35.99
-32.12
-24.07
-12.38
1.19
14.61
25.79
33.31
36.78
36.76
34.31
30.67
27.03
22.16
16.36
10.16
4.17
-1.00
-4.96
-7.58
-9.02
-9.61
-9.74
-9.39
-8.61
-7.48
-6.12
-4.84
-4.07
-4.31
-6.00
-9.38
-14.17
-20.01
-26.49
-33.24
-40.07
-46.96
-53.96
-60.93
-67.36
-72.04
-73.53
-70.44
-61.94
-48.19
-30.35
-10.40
9.32
26.71
40.31
49.35
53.81
54.21
51.51
46.84
41.43
36.24
31.82
28.18
24.85
21.19
16.67
11.15
5.00
-1.09
-6.35
-10.27
-12.74
-14.03
-14.67
-15.25
-16.36
-18.51
-22.17
-27.72
-35.29
-44.50
-54.33
-63.07
-68.65
-69.05
-63.02
-50.52
-32.83
-12.12
9.21
29.22
46.80
61.66
73.94
83.76
90.99
95.32
96.49
94.74
90.93
86.42
82.65
80.79
81.31
84.03
88.12
92.37
95.67
97.35
97.46
96.70
96.12
96.64
98.75
102.26
106.34
109.89
111.82
111.39
108.35
103.18
97.18
92.35
90.54
92.61
98.00
104.76
109.89
110.09
102.49
85.48
59.12
24.56
-16.55
-62.09
-109.60
-156.59
-200.74
-240.09
-272.63
-296.13
-309.24
-312.29
-306.81
-294.81
-278.06
-257.70
-234.23
-207.22
-175.59
-139.16
-99.18
-57.57
-15.82
25.21
65.20
100.61
124.46
133.72
132.03
125.29
117.32
109.35
101.23
92.71
83.76
75.29
68.83
64.74
61.56
57.03
49.73
39.53
27.41
14.11
-0.20
-15.65
-32.68
-51.49
-70.99
-88.72
-103.24
-113.07
-118.56
-120.92
-120.91
-118.48
-113.06
-104.04
-91.02
-74.56
-55.90
-36.78
-18.74
-2.77
10.32
19.66
24.47
24.72
21.18
15.51
9.68
5.61
4.76
7.76
14.60
22.84
30.55
36.05
38.43
37.46
33.56
27.58
20.51
13.23
6.45
0.92
-2.94
-4.91
-5.08
-3.75
-1.23
2.18
6.21
10.52
14.88
18.84
21.92
23.74
24.18
23.38
21.61
19.15
16.11
12.60
8.62
4.29
-0.13
-4.14
-6.99
-7.73
-5.29
1.33
12.84
29.38
50.27
74.04
98.53
121.30
140.12
153.54
161.14
163.64
162.40
158.81
153.69
147.08
138.38
126.90
112.16
93.99
72.28
46.78
17.21
-16.23
-52.35
-88.79
-122.45
-150.37
-170.76
-183.30
-189.02
-189.45
-185.85
-178.77
-168.10
-153.58
-135.42
-114.57
-92.52
-70.85
-50.52
-31.48
-12.81
6.75
28.03
50.82
73.79
95.06
112.83
125.97
134.23
137.71
136.44
130.01
117.84
99.91
77.34
52.57
28.88
9.37
-4.06
-11.20
-13.26
-11.95
-8.54
-3.37
3.92
13.70
25.64
38.37
49.86
58.11
61.88
61.07
56.59
49.75
41.66
32.91
23.55
13.50
2.84
-8.08
-18.94
-29.76
-40.97
-52.98
-65.45
-76.91
-84.98
-87.39
-83.15
-73.36
-60.98
-49.77
-42.70
-40.85
-43.23
-47.53
-51.43
-53.73
-54.70
-55.68
-58.07
-62.22
-66.96
-69.78
-67.81
-59.17
-43.95
-24.28
-3.50
15.23
30.05
40.74
48.27
53.84
58.05
60.64
60.97
58.72
54.46
49.50
45.32
42.76
41.59
40.61
38.34
33.76
26.87
18.62
10.35
2.92
-3.75
-10.63
-18.98
-29.69
-42.74
-57.28
-72.03
-85.81
-97.86
-107.76
-115.07
-119.04
-118.58
-112.65
-100.62
-82.84
-60.52
-35.64
-10.33
13.48
34.40
51.52
64.35
72.60
76.27
75.64
71.55
65.28
58.34
52.01
47.06
43.61
41.29
39.51
37.83
36.06
34.33
32.83
31.75
31.02
30.33
29.22
27.16
23.85
19.22
13.50
7.08
0.34
-6.44
-13.13
-19.71
-26.17
-32.42
-38.23
-43.29
-47.31
-50.07
-51.52
-51.81
-51.33
-50.60
-50.20
-50.59
-51.95
-54.08
-56.29
-57.42
-56.06
-50.94
-41.35
-27.47
-10.41
8.05
25.92
41.49
53.67
62.04
66.65
67.78
65.81
61.22
54.70
47.21
39.79
33.39
28.57
25.33
23.19
21.48
19.58
17.15
14.16
10.74
7.04
3.11
-1.08
-5.59
-10.43
-15.54
-20.84
-26.13
-31.20
-35.85
-40.00
-43.80
-47.67
-52.21
-57.83
-64.42
-71.10
-76.35
-78.47
-76.15
-68.98
-57.53
-43.13
-27.41
-11.88
2.28
14.27
23.59
29.99
33.44
34.15
32.53
29.16
24.74
20.03
15.71
12.27
9.92
8.56
7.85
7.44
7.03
6.46
5.65
4.48
2.70
0.03
-3.70
-8.40
-13.72
-19.17
-24.31
-28.94
-33.17
-37.37
-41.97
-47.39
-53.79
-60.92
-67.94
-73.54
-76.18
-74.48
-67.73
-56.10
-40.69
-23.19
-5.44
11.00
25.08
36.29
44.44
49.60
51.98
51.92
49.98
46.85
43.36
40.24
38.06
37.09
37.24
38.18
39.48
40.76
41.80
42.53
43.00
43.29
43.38
43.11
42.21
40.41
37.59
33.88
29.55
25.01
20.60
16.52
12.74
9.18
5.72
2.32
-1.05
-4.37
-7.67
-11.03
-14.57
-18.44
-22.78
-27.62
-32.91
-38.44
-43.90
-49.00
-53.60
-57.84
-62.09
-66.88
-72.64
-79.56
-87.40
-95.39
-102.23
-106.24
-105.71
-99.37
-86.84
-68.82
-47.00
-23.57
-0.68
19.98
37.36
51.00
60.79
66.83
69.38
68.89
66.04
61.76
57.04
52.71
49.34
47.15
46.01
45.64
45.74
46.11
46.67
47.37
47.98
48.14
47.34
45.17
41.59
36.92
31.78
26.79
22.32
18.31
14.47
10.41
5.90
0.95
-4.24
-9.38
-14.24
-18.66
-22.55
-25.89
-28.85
-31.82
-35.36
-40.03
-46.06
-53.06
-59.90
-64.88
-66.19
-62.42
-53.08
-38.74
-20.95
-1.72
16.97
33.58
47.20
57.46
64.39
68.13
68.94
67.18
63.39
58.30
52.76
47.60
43.43
40.52
38.74
37.69
36.91
36.07
35.08
34.05
33.09
32.17
31.05
29.33
26.65
22.88
18.20
13.05
7.98
3.37
-0.60
-4.10
-7.50
-11.18
-15.46
-20.47
-26.11
-32.09
-38.07
-43.73
-48.87
-53.47
-57.67
-61.81
-66.27
-71.42
-77.33
-83.67
-89.55
-93.63
-94.38
-90.45
-81.19
-66.87
-48.71
-28.59
-8.54
9.76
25.25
37.59
46.90
53.49
57.70
59.79
60.03
58.82
56.73
54.44
52.53
51.36
50.92
50.96
51.12
51.12
50.85
50.39
49.82
49.06
47.93
46.13
43.50
40.15
36.37
32.55
28.98
25.68
22.42
18.90
14.88
10.35
5.56
0.84
-3.50
-7.34
-10.79
-14.08
-17.45
-21.02
-24.76
-28.57
-32.31
-35.88
-39.25
-42.46
-45.65
-49.03
-52.93
-57.60
-63.10
-69.06
-74.54
-78.16
-78.38
-73.98
-64.47
-50.31
-32.83
-13.87
4.66
21.23
34.84
45.05
51.81
55.28
55.79
53.88
50.29
45.92
41.69
38.31
36.17
35.21
35.08
35.29
35.38
35.11
34.50
33.68
32.82
31.91
30.73
28.94
26.27
22.67
18.36
13.76
9.29
5.09
1.05
-3.17
-7.89
-13.19
-18.84
-24.43
-29.53
-33.91
-37.66
-41.13
-44.77
-49.01
-54.05
-59.84
-65.97
-71.59
-75.51
-76.32
-72.81
-64.35
-51.20
-34.60
-16.39
1.43
17.29
30.33
40.39
47.74
52.76
55.70
56.67
55.73
53.11
49.32
45.09
41.21
38.30
36.62
36.05
36.24
36.72
37.12
37.22
36.95
36.26
35.08
33.29
30.75
27.42
23.40
18.93
14.34
9.87
5.67
1.71
-2.11
-5.97
-9.97
-14.21
-18.75
-23.57
-28.59
-33.59
-38.25
-42.25
-45.45
-47.98
-50.30
-52.99
-56.66
-61.63
-67.90
-74.90
-81.50
-86.11
-86.95
-82.61
-72.60
-57.66
-39.62
-20.85
-3.51
11.04
22.36
30.72
36.59
40.35
42.17
42.25
40.93
38.81
36.59
34.82
33.74
33.21
32.91
32.51
31.84
30.92
29.88
28.82
27.71
26.35
24.46
21.79
18.23
13.85
8.85
3.51
-1.93
-7.37
-12.81
-18.37
-24.19
-30.41
-37.08
-44.17
-51.63
-59.42
-67.59
-76.25
-85.44
-95.12
-105.11
-115.12
-124.90
-134.35
-143.65
-153.22
-163.62
-175.40
-188.77
-203.35
-217.92
-230.41
-238.30
-239.14
-231.24
-214.20
-189.09
-158.19
-124.45
-90.81
-59.70
-32.75
-10.72
6.42
19.26
28.85
36.40
43.12
50.02
57.74
66.52
76.25
86.50
96.66
106.11
114.36
121.19
126.67
131.09
134.73
137.74
140.00
141.21
141.04
139.33
136.24
132.15
127.77
123.65
119.95
116.46
112.76
108.38
103.01
96.54
89.11
81.16
73.04
64.86
56.51
47.84
38.79
29.50
20.23
11.26
3.13
-4.00
-10.35
-16.12
-20.94
-23.68
-22.70
-16.41
-4.02
15.08
39.71
67.00
93.50
116.63
135.22
149.23
159.15
165.56
170.94
176.70
182.74
188.39
193.73
199.59
206.56
214.24
221.25
228.88
236.91
242.98
244.16
239.19
228.90
215.09
199.50
183.39
171.50
165.61
163.28
159.74
151.45
137.52
119.04
98.22
51.99
-23.52
-111.63
-188.22
-240.58
-270.05
-284.13
-290.16
-292.79
-293.99
-289.87
-278.26
-260.96
-242.31
-225.70
-212.11
-200.89
-190.82
-180.92
-167.67
-149.87
-129.56
-110.25
-94.22
-81.67
-71.70
-63.42
-56.39
-48.75
-39.86
-30.81
-23.28
-18.10
-14.83
-12.51
-10.37
-7.82
-4.40
-0.22
3.74
6.30
6.85
5.53
2.86
-0.61
-4.42
-7.93
-10.63
-12.27
-12.94
-12.78
-12.01
-10.96
-9.97
-9.33
-9.17
-9.35
-9.57
-9.55
-9.13
-8.30
-7.20
-6.11
-5.26
-4.91
-5.10
-5.69
-6.42
-6.99
-7.17
-6.83
-6.01
-4.17
-1.26
2.53
6.90
11.54
16.23
20.84
25.18
28.99
31.90
33.48
33.48
32.03
29.54
26.55
23.52
20.72
18.26
16.17
14.37
12.74
11.15
9.37
7.25
4.71
1.83
-1.30
-4.61
-8.24
-12.34
-16.95
-21.84
-26.59
-30.71
-34.00
-36.64
-39.14
-42.02
-45.50
-49.32
-52.81
-55.21
-55.84
-54.21
-49.94
-42.76
-32.59
-19.77
-5.29
9.32
22.34
32.47
39.22
42.99
44.69
45.21
45.08
44.43
43.23
41.53
39.56
37.62
35.87
34.27
32.63
30.80
28.74
26.58
24.35
21.99
19.28
16.04
12.25
8.09
3.82
-0.42
-4.66
-9.04
-13.72
-18.72
-23.94
-29.28
-34.73
-40.33
-46.13
-52.08
-58.03
-63.84
-69.48
-75.02
-80.47
-85.49
-89.30
-90.79
-88.78
-82.44
-71.64
-56.99
-39.77
-21.69
-4.54
10.05
20.93
27.65
30.44
30.20
28.16
25.62
23.55
22.47
22.42
23.12
24.07
24.71
24.55
23.24
20.64
16.92
12.55
8.17
4.40
1.69
0.09
-0.71
-1.35
-2.60
-5.15
-9.45
-15.60
-23.33
-31.95
-40.49
-47.79
-52.76
-54.51
-52.59
-46.98
-38.11
-26.81
-14.09
-1.00
11.41
22.29
31.01
37.26
41.07
42.78
42.91
42.00
40.46
38.52
36.21
33.50
30.42
27.07
23.68
20.56
17.87
15.66
13.73
11.74
9.32
6.20
2.33
-2.14
-6.92
-11.74
-16.45
-21.00
-25.50
-30.13
-35.13
-40.78
-47.28
-54.61
-62.29
-69.31
-74.22
-75.53
-72.23
-64.17
-52.03
-36.95
-20.30
-3.33
12.93
27.73
40.49
50.63
57.77
61.87
63.35
62.97
61.57
59.78
58.08
56.65
55.27
53.54
51.32
48.89
46.69
45.11
44.10
43.73
43.98
44.17
43.34
40.96
37.28
32.99
28.77
25.01
22.78
23.21
25.80
28.48
29.10
26.41
20.03
10.35
-1.72
-13.39
-21.63
-26.33
-30.44
-37.40
-49.09
-65.38
-84.33
-102.73
-114.33
-112.11
-92.58
-56.69
-7.31
52.21
117.68
183.81
230.08
236.17
201.61
144.23
81.78
23.71
-26.28
-66.85
-97.25
-116.99
-126.13
-121.50
-103.34
-76.45
-47.30
-21.10
-1.11
11.46
16.76
17.68
16.80
14.61
9.31
-0.88
-15.92
-34.62
-54.26
-71.63
-84.06
-90.50
-91.83
-89.98
-86.67
-82.56
-77.71
-71.65
-63.86
-52.69
-36.69
-17.22
2.71
18.72
27.61
28.17
21.05
8.31
-5.73
-15.44
-16.11
-5.17
17.92
53.02
97.39
146.75
187.54
207.07
202.57
182.25
157.19
134.36
115.46
98.44
80.10
57.99
32.96
8.19
-12.98
-28.78
-39.27
-45.75
-50.09
-53.91
-57.92
-60.79
-60.56
-56.35
-49.29
-41.61
-35.43
-31.99
-31.52
-33.54
-36.49
-38.85
-39.93
-40.08
-40.07
-40.52
-41.66
-43.31
-45.51
-46.78
-46.06
-42.90
-37.70
-31.39
-24.93
-18.97
-13.74
-9.11
-4.71
-0.35
3.85
7.49
10.21
11.91
13.01
14.32
16.80
21.17
27.45
35.07
42.96
50.02
55.39
58.83
60.54
60.94
60.28
58.56
55.70
51.77
47.16
42.42
38.06
34.13
31.03
28.65
26.73
25.04
23.55
22.32
21.37
20.57
19.72
18.65
17.24
15.47
13.39
11.04
8.35
5.24
1.71
-2.17
-6.27
-10.58
-15.07
-19.66
-24.09
-28.01
-31.12
-33.37
-35.03
-36.56
-38.49
-41.09
-44.28
-47.72
-51.03
-53.97
-56.54
-58.95
-61.54
-64.67
-68.66
-73.58
-79.23
-84.98
-89.75
-92.18
-90.89
-84.86
-73.86
-58.56
-40.55
-21.85
-4.44
10.23
21.49
29.30
33.99
36.00
35.68
33.43
29.76
25.36
21.07
17.60
15.45
14.79
15.59
17.71
20.95
25.10
29.91
34.99
39.86
44.00
46.88
48.10
47.48
45.10
41.30
36.56
31.29
25.67
19.65
13.02
5.67
-2.33
-10.67
-18.97
-26.89
-34.33
-41.45
-48.62
-56.13
-63.99
-71.72
-78.26
-82.20
-82.07
-76.93
-66.65
-52.14
-35.08
-17.45
-0.98
13.25
24.85
33.92
40.70
45.35
47.89
48.40
47.14
44.70
41.79
39.11
37.04
35.60
34.58
33.70
32.83
31.98
31.29
30.84
30.60
30.47
30.24
29.72
28.72
27.06
24.70
21.69
18.21
14.47
10.62
6.66
2.45
-2.13
-7.11
-12.32
-17.49
-22.38
-26.88
-31.03
-34.90
-38.57
-42.12
-45.76
-49.87
-54.82
-60.72
-66.98
-72.30
-74.88
-73.07
-65.99
-53.88
-38.05
-20.38
-2.74
13.42
27.25
38.37
46.66
52.15
54.95
55.31
53.67
50.66
47.03
43.46
40.47
38.32
36.95
36.12
35.51
34.90
34.21
33.41
32.46
31.24
29.55
27.27
24.40
21.13
17.70
14.23
10.62
6.58
1.73
-4.13
-10.92
-18.24
-25.55
-32.34
-38.33
-43.52
-48.10
-52.42
-56.80
-61.45
-66.36
-71.18
-75.12
-77.06
-75.80
-70.41
-60.67
-47.18
-31.23
-14.46
1.58
15.69
27.15
35.57
40.84
43.07
42.61
40.06
36.23
32.04
28.24
25.34
23.42
22.27
21.51
20.77
19.85
18.73
17.56
16.45
15.40
14.20
12.54
10.16
6.91
2.86
-1.85
-7.07
-12.71
-18.74
-25.18
-32.06
-39.29
-46.65
-53.58
-59.16
-62.19
-61.45
-56.06
-45.90
-31.79
-15.33
1.55
17.13
30.19
40.06
46.64
50.13
50.95
49.52
46.32
41.87
36.73
31.40
26.07
21.00
16.50
12.99
10.76
9.94
10.42
11.93
14.05
15.79
16.44
15.84
14.33
12.31
9.87
6.78
2.56
-3.19
-11.26
-21.53
-32.97
-44.19
-54.18
-62.67
-69.68
-75.16
-78.75
-80.92
-81.86
-81.37
-79.07
-74.78
-68.76
-61.83
-55.65
-46.79
-35.96
-27.19
-24.40
-27.54
-32.63
-34.81
-30.92
-20.39
-4.87
11.97
26.80
37.67
44.27
47.44
48.87
50.69
54.70
61.41
69.04
75.04
77.52
76.12
71.73
65.86
59.83
54.24
49.13
43.82
38.17
32.73
28.42
25.72
24.51
24.22
24.33
24.53
24.46
24.06
22.92
20.89
17.96
14.31
10.34
6.42
2.78
-0.66
-3.81
-6.29
-7.27
-6.02
-2.33
3.30
9.96
16.76
23.34
29.98
36.64
43.36
49.02
51.51
48.80
40.06
26.20
9.68
-6.58
-20.26
-30.38
-37.17
-41.70
-44.88
-47.14
-48.52
-49.07
-49.11
-49.16
-50.13
-51.51
-52.50
-51.97
-48.89
-42.94
-34.61
-25.08
-15.68
-7.36
-0.45
5.12
9.62
13.29
16.17
18.24
19.43
19.80
19.49
18.71
17.60
16.31
15.07
14.15
13.69
13.71
14.04
14.48
14.89
15.25
15.59
15.98
16.41
16.77
16.93
16.80
16.42
15.83
15.55
15.67
16.10
16.49
16.47
15.78
14.40
12.59
10.77
9.30
8.29
7.61
6.99
6.18
5.09
3.85
2.72
1.95
1.70
1.88
2.37
3.06
3.96
5.14
6.65
8.34
9.96
11.18
11.74
11.59
10.87
9.82
8.60
7.22
5.57
3.54
1.18
-1.28
-3.45
-5.02
-5.87
-6.22
-6.49
-7.12
-8.37
-10.15
-12.07
-13.59
-14.23
-13.71
-12.03
-9.40
-6.22
-2.88
0.19
2.61
4.07
4.33
3.33
1.29
-1.39
-4.22
-6.81
-8.98
-10.79
-12.31
-13.52
-14.22
-14.00
-12.49
-9.56
-5.36
-0.39
4.60
8.96
12.32
14.61
15.95
16.60
16.94
17.49
18.79
21.20
24.81
29.47
34.78
40.15
44.97
48.82
51.48
52.76
52.08
48.63
41.82
31.32
17.21
0.11
-18.71
-37.42
-54.12
-67.97
-78.50
-85.00
-86.81
-84.01
-77.69
-69.71
-62.18
-56.93
-56.53
-61.91
-71.02
-80.18
-86.40
-88.57
-87.22
-83.78
-79.77
-78.64
-82.51
-89.69
-96.59
-100.62
-101.28
-99.58
-97.30
-96.44
-101.73
-116.67
-139.22
-164.74
-189.95
-214.30
-238.82
-264.54
-269.36
-240.18
-184.24
-119.53
-59.77
-9.49
32.11
67.94
100.94
133.41
163.97
188.90
209.27
227.91
246.76
266.63
288.94
317.13
343.99
365.09
360.41
324.81
267.80
205.51
149.76
104.87
70.06
42.53
19.32
-1.99
-18.95
-29.02
-32.25
-31.14
-28.90
-27.92
-29.53
-33.70
-40.10
-45.47
-47.46
-46.15
-43.61
-42.17
-43.38
-47.81
-54.71
-63.17
-70.64
-74.85
-75.30
-72.50
-67.40
-61.56
-57.06
-55.45
-57.38
-61.02
-63.19
-60.76
-52.09
-37.57
-19.80
-2.37
11.94
21.92
28.12
31.58
32.64
30.59
24.65
14.36
0.41
-15.22
-29.89
-40.93
-46.24
-44.37
-37.48
-26.80
-14.05
-1.18
9.94
17.86
21.88
22.16
19.69
15.98
13.03
12.24
14.25
18.81
24.82
30.59
34.37
34.74
31.13
24.39
16.14
8.19
1.71
-3.47
-8.75
-15.79
-25.10
-35.23
-42.58
-43.00
-33.60
-14.11
12.85
42.64
70.22
91.63
104.63
108.71
104.31
92.46
74.54
52.49
28.82
6.37
-12.24
-25.20
-31.89
-32.92
-29.64
-23.43
-15.15
-4.87
7.74
22.89
40.09
57.88
74.07
86.35
93.06
93.66
88.80
79.89
68.54
55.97
42.84
29.19
14.75
-0.81
-17.59
-35.30
-53.11
-69.66
-83.17
-91.75
-93.89
-88.95
-77.52
-61.34
-42.92
-24.92
-9.42
2.42
10.48
15.28
17.54
17.81
16.32
13.11
8.31
2.20
-4.72
-11.88
-18.70
-24.71
-29.43
-32.40
-33.19
-31.50
-27.32
-21.02
-13.27
-4.90
3.25
10.59
16.75
21.64
25.33
27.91
29.49
30.12
29.88
29.04
28.09
27.75
28.76
31.65
36.45
42.66
49.26
54.95
58.57
59.26
56.64
50.83
42.35
32.04
20.96
10.19
0.72
-6.69
-11.53
-13.50
-12.52
-8.78
-2.90
4.10
10.83
15.86
18.07
16.98
12.80
6.36
-1.14
-8.48
-14.62
-18.86
-20.95
-20.99
-19.50
-17.20
-14.91
-13.40
-13.31
-15.04
-18.74
-24.13
-30.52
-36.90
-42.09
-45.11
-45.42
-43.02
-38.37
-32.19
-25.20
-17.98
-10.97
-4.50
1.15
5.69
8.95
10.92
11.76
11.84
11.55
11.22
11.06
11.10
11.28
11.43
11.29
10.67
9.43
7.55
5.10
2.30
-0.55
-3.07
-4.93
-5.91
-5.95
-5.16
-3.72
-1.80
0.49
3.00
5.46
7.33
7.91
6.51
2.85
-2.81
-9.54
-16.03
-20.92
-23.11
-21.98
-17.45
-9.93
-0.23
10.51
20.96
29.71
35.59
38.00
37.06
33.58
28.76
23.75
19.32
15.71
12.78
10.30
8.19
6.62
5.83
5.95
6.85
8.15
9.46
10.49
11.19
11.66
12.06
12.39
12.60
12.57
12.34
12.03
11.93
12.31
13.25
14.64
16.13
17.20
17.29
15.91
12.74
7.69
0.95
-7.01
-15.54
-23.84
-31.21
-37.10
-41.11
-43.10
-43.19
-41.70
-39.10
-35.89
-32.54
-29.58
-27.38
-25.97
-25.07
-24.23
-22.98
-20.94
-17.85
-13.66
-8.86
-3.94
0.89
5.65
10.35
14.76
18.45
20.92
21.78
20.21
15.88
9.15
0.97
-7.69
-16.18
-24.18
-31.63
-38.60
-45.93
-54.04
-62.52
-70.24
-76.04
-79.34
-80.28
-79.53
-72.99
-59.05
-39.33
-17.73
2.38
19.29
32.15
40.25
43.17
41.30
35.37
27.12
18.94
13.00
10.31
10.57
12.53
14.63
15.46
13.38
7.54
-1.55
-12.17
-22.16
-29.69
-33.80
-34.58
-32.97
-30.79
-29.75
-30.33
-31.50
-31.11
-26.33
-14.60
5.35
32.64
64.54
96.35
123.37
141.79
149.30
145.11
129.60
104.11
70.85
32.98
-5.83
-41.13
-69.13
-87.67
-96.63
-97.53
-92.71
-84.38
-72.49
-59.31
-45.98
-33.36
-22.37
-13.82
-8.07
-4.82
-3.11
-1.80
-0.19
2.22
5.34
8.50
10.93
12.18
12.12
11.01
9.47
8.10
7.63
8.41
10.22
12.48
14.52
15.85
16.36
16.32
16.01
15.75
15.52
15.00
13.96
12.64
11.69
12.09
14.55
19.19
25.31
31.50
35.91
37.01
34.13
27.65
18.94
9.76
2.01
-3.13
-4.86
-3.46
-0.10
3.63
6.59
7.75
6.26
2.84
-0.72
-2.30
-0.45
5.06
12.94
20.48
24.38
21.42
11.13
-4.19
-20.40
-33.32
-40.54
-42.36
-42.61
-44.48
-51.16
-63.07
-78.21
-92.90
-102.95
-104.87
-97.11
-80.23
-53.61
-23.87
2.58
21.56
31.86
34.71
32.70
28.58
24.58
22.28
21.85
23.65
27.70
33.66
40.95
49.16
56.96
63.05
66.50
66.43
63.42
58.51
52.86
47.16
41.40
34.93
27.22
18.15
7.89
-2.31
-11.25
-18.03
-22.48
-25.16
-27.19
-29.69
-33.52
-39.38
-45.61
-50.95
-54.19
-54.42
-51.20
-44.64
-35.25
-23.86
-11.44
1.18
13.08
23.57
32.16
38.51
42.44
44.00
43.46
41.25
37.89
33.71
28.99
24.02
19.05
14.36
10.28
7.01
4.63
3.04
1.85
0.69
-0.66
-2.21
-3.80
-5.26
-6.57
-7.93
-9.69
-12.26
-15.91
-20.70
-26.61
-33.52
-41.22
-49.25
-56.85
-63.02
-66.78
-67.56
-65.35
-60.75
-54.62
-47.65
-40.13
-31.97
-22.97
-13.24
-3.28
6.09
14.02
20.00
23.94
26.05
26.59
25.68
23.27
19.37
14.32
8.85
3.91
0.28
-1.77
-2.75
-3.73
-6.07
-10.87
-18.63
-29.05
-41.16
-53.57
-64.86
-73.76
-79.44
-81.51
-80.00
-75.30
-67.92
-58.36
-46.97
-33.82
-18.80
-1.79
17.17
37.56
58.33
77.94
94.70
107.22
114.67
116.98
114.69
108.61
99.63
88.51
75.95
62.74
49.77
37.97
28.07
20.33
14.49
9.85
5.58
1.12
-3.59
-8.03
-11.33
-12.64
-11.54
-8.28
-3.71
1.01
4.87
7.36
8.52
8.74
8.31
7.18
4.93
1.04
-4.72
-12.02
-19.94
-27.30
-32.92
-36.02
-36.25
-33.69
-28.72
-21.97
-14.23
-6.37
0.73
6.43
10.49
13.04
14.56
15.61
16.58
17.61
18.66
19.64
20.55
21.48
22.48
23.53
24.40
24.84
24.74
24.24
23.67
23.33
23.29
23.27
22.82
21.54
19.30
16.25
12.74
9.07
5.36
1.62
-2.06
-5.38
-7.77
-8.62
-7.62
-4.97
-1.45
1.85
3.81
3.72
1.45
-2.43
-6.78
-10.01
-10.37
-6.17
3.79
19.88
41.38
66.54
93.02
118.41
140.82
159.11
172.96
182.67
188.86
192.24
193.48
193.13
191.63
189.23
185.94
181.66
176.23
169.60
161.72
152.57
142.11
130.35
117.43
103.71
89.68
75.93
63.02
51.36
41.14
32.30
24.56
17.32
9.71
0.67
-10.86
-25.58
-43.58
-64.25
-86.37
-108.48
-129.24
-147.71
-163.45
-176.53
-187.29
-196.17
-203.64
-210.11
-215.99
-221.57
-226.98
-232.21
-237.13
-241.64
-245.68
-249.26
-252.37
-254.88
-256.37
-256.19
-253.59
-248.10
-239.77
-229.30
-217.85
-206.51
-195.78
-185.28
-173.88
-160.27
-143.52
-123.44
-100.41
-75.16
-48.40
-20.88
6.43
32.09
54.26
71.28
82.41
88.40
91.44
94.45
99.91
108.85
120.61
133.34
144.82
153.56
159.14
161.70
161.36
157.66
149.98
138.27
123.44
107.10
90.58
74.21
57.13
37.94
15.78
-9.05
-35.00
-60.01
-82.28
-100.61
-114.25
-122.57
-124.90
-120.86
-110.73
-95.53
-76.93
-56.72
-36.40
-17.18
-0.03
14.37
25.56
33.25
37.47
38.55
37.19
34.42
31.34
28.95
28.12
29.55
33.84
41.34
51.99
65.04
79.11
92.44
103.44
111.18
115.41
116.36
114.21
108.90
100.09
87.57
71.70
53.69
35.36
18.63
4.99
-4.77
-10.51
-12.52
-11.27
-7.49
-2.11
3.64
8.32
10.62
9.68
5.37
-1.73
-10.59
-20.09
-29.32
-37.80
-45.44
-52.43
-59.12
-65.84
-72.78
-80.02
-87.48
-95.04
-102.47
-109.44
-115.54
-120.33
-123.56
-125.37
-126.41
-127.57
-129.64
-132.77
-136.22
-138.46
-137.58
-131.87
-120.24
-102.61
-80.05
-54.77
-29.51
-7.09
10.37
22.09
28.90
32.69
35.46
38.39
41.62
44.70
46.95
47.91
47.46
45.61
42.24
37.01
29.50
19.69
8.53
-2.71
-12.93
-21.44
-28.01
-32.95
-37.15
-41.90
-48.39
-56.08
-63.93
-70.91
-76.01
-77.96
-75.58
-68.30
-56.58
-41.36
-21.80
1.86
27.16
50.26
68.15
79.56
84.72
84.72
81.56
80.89
86.59
98.54
113.74
129.54
144.74
158.95
171.79
183.32
198.20
219.35
245.59
273.13
299.25
323.27
345.41
365.57
353.52
295.37
204.47
108.91
27.29
-36.11
-83.93
-117.48
-142.02
-159.21
-165.00
-157.54
-139.88
-118.08
-97.36
-80.42
-67.99
-59.30
-52.72
-43.79
-30.30
-13.75
2.19
14.80
23.42
23.25
12.94
-4.20
-20.70
-31.45
-35.96
-36.77
-36.42
-36.23
-36.48
-36.32
-34.78
-30.64
-23.89
-15.85
-8.48
-3.39
-1.34
-2.44
-5.68
-9.77
-13.42
-15.91
-17.05
-16.86
-15.66
-13.69
-11.34
-8.80
-6.60
-5.56
-6.56
-9.96
-15.39
-21.93
-28.35
-33.53
-36.62
-37.48
-36.73
-35.37
-34.20
-33.48
-32.95
-32.14
-30.68
-28.43
-25.67
-22.43
-19.31
-16.92
-15.57
-15.21
-15.45
-15.50
-14.40
-11.25
-5.34
3.45
14.83
28.14
42.51
56.92
70.26
81.38
89.25
93.28
93.38
90.11
84.29
76.62
67.26
55.97
42.42
26.92
10.71
-4.27
-15.94
-22.99
-25.41
-24.52
-22.31
-20.74
-21.06
-23.67
-28.40
-34.86
-42.69
-51.53
-60.75
-69.28
-75.67
-78.45
-76.61
-70.06
-59.62
-46.90
-33.80
-22.06
-12.80
-6.35
-2.23
0.55
3.23
6.90
12.27
19.52
28.30
37.86
47.18
55.22
61.19
64.68
65.69
64.49
61.32
56.21
49.00
39.55
28.10
15.52
3.15
-7.62
-15.90
-21.67
-25.72
-29.21
-33.17
-38.12
-43.96
-50.18
-56.13
-61.30
-65.36
-68.21
-69.76
-69.93
-68.54
-65.36
-60.17
-52.78
-43.18
-31.63
-18.67
-5.04
8.45
21.10
32.44
42.18
50.24
56.60
61.23
64.04
64.87
63.64
60.46
55.55
49.32
42.25
34.84
27.60
20.91
14.92
9.62
4.81
0.07
-4.75
-9.37
-13.05
-14.76
-13.70
-9.69
-3.36
4.02
10.50
14.54
15.75
15.01
14.26
15.50
19.87
27.17
35.78
42.80
45.71
43.50
36.82
27.57
17.47
7.30
-3.12
-14.40
-27.50
-42.29
-57.56
-71.59
-82.50
-89.64
-93.96
-97.35
-96.41
-88.64
-74.26
-57.20
-41.98
-29.63
-18.37
-5.63
10.39
29.50
48.91
64.65
73.96
76.07
74.60
76.17
87.60
112.41
149.06
190.68
227.94
251.19
248.64
215.72
155.07
74.56
-16.20
-108.15
-194.23
-259.56
-289.89
-281.48
-242.88
-188.68
-131.51
-79.32
-35.84
-1.70
23.86
41.36
51.25
55.24
54.61
51.84
48.00
43.42
38.73
33.92
28.39
21.39
13.09
4.05
-5.73
-17.79
-34.84
-54.89
-77.67
-101.66
-122.75
-134.45
-130.50
-108.20
-70.26
-24.22
20.20
52.47
66.21
61.16
42.22
16.06
-12.61
-41.71
-71.47
-93.69
-102.30
-96.16
-78.63
-53.79
-24.98
4.13
30.94
54.36
74.80
91.32
102.05
104.11
94.36
71.11
35.31
-7.83
-50.05
-83.14
-103.19
-110.46
-107.95
-99.35
-82.52
-61.53
-39.20
-17.18
2.95
18.89
29.22
34.23
35.60
35.38
34.41
32.92
30.41
25.98
18.80
9.59
0.01
-8.38
-14.63
-19.08
-21.88
-23.24
-23.53
-23.40
-22.20
-19.19
-14.88
-10.41
-6.83
-3.88
-0.97
1.94
3.94
5.41
6.23
5.55
2.72
-1.60
-5.21
-5.71
-1.59
7.56
23.91
48.44
79.70
114.46
149.32
181.99
211.15
236.34
242.00
220.66
177.91
127.07
78.16
35.06
-1.42
-31.27
-54.72
-72.69
-84.18
-89.65
-90.83
-90.17
-89.39
-89.05
-89.37
-90.80
-94.10
-98.05
-101.24
-103.66
-106.18
-109.28
-112.69
-115.94
-118.71
-120.89
-121.28
-119.09
-114.72
-109.56
-105.16
-102.58
-102.20
-103.67
-105.85
-106.41
-103.16
-94.93
-81.82
-64.95
-46.02
-26.97
-9.64
4.63
15.46
23.24
28.93
33.88
39.63
47.56
58.55
72.58
88.83
105.84
121.96
135.70
146.03
152.39
154.64
153.00
148.00
140.46
131.35
121.61
111.84
102.15
92.18
81.34
69.11
55.29
40.07
23.94
7.64
-7.92
-21.69
-32.51
-39.35
-41.44
-38.52
-30.93
-19.58
-5.84
8.74
22.66
34.71
44.11
50.55
54.05
54.86
53.33
49.86
44.94
39.19
33.21
27.45
22.06
16.80
11.28
5.21
-1.29
-7.69
-13.14
-16.87
-18.51
-18.16
-16.38
-13.93
-11.56
-9.90
-9.45
-10.57
-13.44
-17.92
-23.39
-28.78
-32.68
-33.78
-31.16
-24.62
-14.71
-2.60
10.21
22.26
32.37
39.83
44.44
46.40
46.12
44.01
40.37
35.42
29.40
22.76
16.16
10.38
5.99
3.19
1.71
0.95
0.37
-0.31
-0.98
-1.29
-1.00
-0.13
0.91
1.44
0.77
-1.64
-5.99
-12.15
-19.58
-27.37
-34.25
-38.80
-39.73
-36.30
-28.53
-17.29
-4.08
9.42
21.76
31.97
39.59
44.55
46.88
46.66
44.01
39.13
32.43
24.58
16.51
9.24
3.64
0.18
-1.20
-1.05
-0.31
-0.06
-1.21
-4.15
-8.66
-14.08
-19.67
-25.02
-30.09
-35.47
-42.14
-50.91
-61.80
-73.74
-84.71
-92.33
-94.58
-90.03
-78.77
-62.51
-43.99
-25.84
-9.91
3.05
13.12
20.97
28.38
36.69
46.06
55.61
64.21
70.98
75.32
76.96
76.03
74.49
74.01
74.90
76.37
77.71
78.89
80.23
81.92
83.71
86.89
91.96
98.20
104.35
110.02
115.76
121.74
126.81
116.39
83.44
34.07
-15.82
-52.10
-68.78
-67.60
-55.49
-41.14
-31.67
-28.96
-31.77
-38.16
-47.27
-59.02
-72.72
-86.03
-95.53
-97.09
-87.65
-68.93
-48.23
-35.69
-39.11
-60.00
-93.04
-128.87
-154.65
-162.50
-152.48
-130.92
-105.84
-82.83
-63.61
-47.49
-33.55
-21.84
-13.32
-8.81
-8.06
-9.75
-11.81
-12.32
-10.52
-6.98
-3.07
-0.62
-0.63
-2.90
-6.28
-9.25
-10.64
-10.18
-8.44
-6.46
-5.60
-6.74
-9.92
-14.32
-18.40
-20.40
-18.95
-13.58
-5.07
4.68
13.55
20.13
24.17
26.49
28.28
30.25
32.27
33.61
33.56
32.05
30.12
28.86
29.29
31.60
35.09
38.39
40.02
38.85
34.47
26.84
17.00
6.17
-4.31
-13.05
-18.80
-20.73
-18.63
-13.15
-5.68
2.05
8.48
12.68
14.60
14.94
14.62
14.44
14.81
15.71
16.81
17.78
18.47
18.94
19.37
19.93
20.82
22.23
24.38
27.21
30.14
31.95
30.99
25.86
16.05
2.43
-12.80
-26.74
-36.71
-41.04
-39.58
-33.55
-25.12
-16.64
-10.09
-6.64
-6.54
-9.27
-13.90
-19.37
-24.64
-28.81
-31.04
-30.79
-28.09
-23.85
-19.78
-17.68
-18.55
-21.99
-26.26
-29.06
-28.72
-25.05
-19.23
-13.04
-7.65
-3.05
1.74
7.88
15.67
24.14
31.31
35.06
34.06
28.55
20.35
12.23
6.87
5.91
9.28
15.13
20.47
22.24
18.42
9.14
-3.53
-16.47
-26.79
-32.91
-34.83
-33.82
-31.52
-29.23
-27.47
-26.13
-24.72
-22.60
-19.10
-13.61
-5.80
4.14
15.30
26.21
35.32
41.39
43.81
42.73
38.93
33.37
26.96
20.36
14.00
8.14
3.00
-1.28
-4.49
-6.46
-7.03
-6.22
-4.27
-1.59
1.34
4.04
6.15
7.39
7.59
6.70
4.80
2.15
-0.82
-3.54
-5.50
-6.32
-5.92
-4.57
-2.77
-1.11
-0.13
-0.01
-0.54
-1.32
-1.87
-1.90
-1.37
-0.49
0.44
1.04
1.06
0.41
-0.90
-2.82
-5.24
-8.02
-11.02
-13.21
-13.85
-12.43
-8.78
-3.17
3.79
11.31
18.64
25.17
30.42
33.93
35.28
34.22
30.78
25.34
18.62
11.57
5.20
0.29
-2.85
-4.33
-4.62
-4.34
-4.15
-4.50
-5.60
-7.44
-9.86
-12.75
-16.02
-19.64
-23.56
-27.79
-32.33
-37.17
-42.17
-46.90
-50.60
-52.23
-50.78
-45.57
-36.62
-24.71
-11.20
2.25
14.12
23.27
29.02
31.20
30.01
25.96
19.75
12.27
4.44
-2.87
-8.98
-13.59
-16.77
-18.96
-20.80
-22.95
-25.92
-30.03
-35.28
-41.43
-48.03
-54.58
-60.69
-66.20
-71.14
-75.54
-79.20
-81.50
-81.52
-78.29
-71.21
-60.43
-46.83
-31.88
-17.17
-4.04
6.58
14.25
18.78
20.20
18.70
14.65
8.71
1.65
-5.76
-13.03
-20.04
-26.93
-33.89
-40.98
-48.17
-55.42
-62.86
-70.76
-79.29
-88.28
-97.10
-104.83
-110.68
-114.40
-116.45
-117.72
-119.13
-121.13
-123.51
-125.47
-125.99
-124.21
-119.76
-112.86
-104.26
-95.07
-86.44
-79.23
-73.91
-70.39
-68.11
-66.25
-63.93
-60.49
-55.55
-49.15
-41.70
-33.84
-26.24
-19.27
-12.79
-6.20
1.28
10.19
20.47
31.31
41.37
49.19
53.53
53.69
49.70
42.44
33.81
26.62
24.12
29.09
42.86
64.62
91.51
119.54
144.71
164.13
176.50
181.94
181.45
176.43
168.36
158.78
149.19
140.95
135.00
131.71
130.66
130.78
130.52
128.29
122.96
114.15
102.44
89.12
75.79
63.87
54.48
48.38
46.20
48.40
55.02
65.29
77.48
89.25
98.38
103.58
104.70
102.50
97.97
91.67
83.59
73.52
61.58
48.52
35.60
24.05
14.59
7.25
1.56
-3.03
-6.80
-9.75
-11.72
-12.63
-12.52
-11.50
-9.60
-6.75
-2.78
2.41
8.77
16.02
23.76
31.48
38.67
44.85
49.57
52.50
53.47
52.55
50.13
46.88
43.72
41.71
41.81
44.68
50.44
58.58
68.03
77.43
85.45
91.11
93.92
93.85
91.18
86.34
79.82
72.13
63.91
55.82
48.48
42.23
37.03
32.47
27.94
22.94
17.24
10.94
4.33
-2.23
-8.50
-14.40
-19.99
-25.43
-30.94
-36.76
-43.03
-49.57
-55.71
-60.34
-62.13
-60.00
-53.52
-43.12
-30.02
-15.90
-2.48
8.82
17.03
21.70
22.84
20.81
16.37
10.49
4.26
-1.45
-6.05
-9.47
-11.99
-14.16
-16.50
-19.32
-22.66
-26.28
-29.85
-33.08
-35.84
-38.29
-40.80
-43.89
-48.00
-53.35
-59.73
-66.44
-72.32
-75.98
-76.06
-71.60
-62.33
-48.77
-32.19
-14.33
3.05
18.51
31.06
40.26
46.05
48.62
48.38
45.90
42.00
37.59
33.54
30.43
28.42
27.24
26.37
25.21
23.31
20.42
16.55
11.88
6.69
1.34
-3.93
-9.06
-14.23
-19.75
-25.99
-33.05
-40.60
-47.78
-53.27
-55.61
-53.65
-46.89
-35.75
-21.48
-5.89
9.17
22.20
32.23
38.90
42.26
42.56
40.25
35.96
30.45
24.54
18.98
14.23
10.39
7.23
4.38
1.43
-1.84
-5.50
-9.52
-13.79
-18.24
-22.88
-27.71
-32.75
-37.94
-43.13
-48.14
-52.81
-57.20
-61.57
-66.39
-72.08
-78.67
-85.55
-91.38
-94.39
-92.92
-85.99
-73.80
-57.68
-39.75
-22.30
-7.17
4.61
12.81
17.75
20.02
20.26
19.10
17.20
15.21
13.62
12.62
12.02
11.37
10.19
8.23
5.45
1.98
-2.10
-6.73
-11.76
-16.80
-21.13
-24.00
-24.95
-24.12
-22.36
-20.85
-20.83
-23.09
-27.79
-34.42
-41.84
-48.39
-52.21
-51.63
-45.65
-34.42
-19.24
-2.30
13.91
27.34
36.85
42.27
44.30
43.96
42.27
39.97
37.46
34.94
32.61
30.70
29.42
28.89
28.91
29.01
28.50
26.76
23.43
18.63
12.82
6.66
0.69
-4.86
-10.05
-15.08
-20.20
-25.52
-31.11
-37.07
-43.36
-49.66
-55.17
-58.57
-58.37
-53.44
-43.64
-29.96
-14.29
1.23
14.84
25.52
33.01
37.53
39.49
39.39
37.73
35.08
31.98
28.89
26.09
23.65
21.54
19.64
17.87
16.15
14.36
12.33
9.88
6.83
3.09
-1.28
-6.17
-11.38
-16.70
-22.07
-27.45
-32.95
-38.68
-44.69
-50.77
-56.38
-60.67
-62.57
-61.10
-55.63
-46.14
-33.31
-18.39
-2.95
11.46
23.61
32.65
38.20
40.29
39.30
35.90
31.01
25.65
20.72
16.85
14.29
12.91
12.27
11.89
11.38
10.58
9.50
8.25
6.85
5.21
3.11
0.37
-3.05
-7.03
-11.23
-15.29
-18.97
-22.32
-25.64
-29.43
-34.14
-39.84
-46.08
-51.76
-55.34
-55.26
-50.43
-40.66
-26.80
-10.51
6.10
21.00
32.68
40.35
43.89
43.78
40.82
35.96
30.17
24.24
18.80
14.29
10.94
8.84
7.88
7.76
8.02
8.18
7.84
6.82
5.21
3.23
1.06
-1.30
-4.03
-7.34
-11.31
-15.83
-20.71
-25.78
-30.98
-36.24
-41.24
-45.23
-47.13
-45.79
-40.45
-31.14
-18.73
-4.74
9.14
21.41
31.07
37.59
40.93
41.30
39.14
35.05
29.75
24.01
18.63
14.28
11.41
10.08
10.01
10.58
11.05
10.73
9.21
6.48
2.83
-1.21
-5.17
-8.79
-12.10
-15.39
-19.10
-23.63
-29.20
-35.74
-42.73
-49.16
-53.72
-55.05
-52.19
-44.90
-33.80
-20.17
-5.73
7.88
19.38
27.96
33.26
35.27
34.23
30.61
25.14
18.66
12.13
6.32
1.79
-1.25
-2.97
-3.81
-4.42
-5.40
-7.21
-9.99
-13.60
-17.68
-21.77
-25.50
-28.75
-31.68
-34.64
-38.12
-42.46
-47.76
-53.68
-59.43
-63.79
-65.41
-63.11
-56.25
-45.05
-30.50
-14.24
1.88
16.29
27.94
36.42
41.74
44.14
43.95
41.55
37.44
32.32
27.10
22.63
19.51
17.89
17.45
17.60
17.72
17.33
16.19
14.31
11.84
8.97
5.89
2.72
-0.51
-3.86
-7.48
-11.62
-16.50
-22.24
-28.69
-35.29
-41.07
-44.73
-44.98
-40.94
-32.51
-20.51
-6.54
7.49
19.83
29.28
35.38
38.24
38.36
36.34
32.77
28.21
23.21
18.37
14.29
11.44
10.09
10.17
11.24
12.67
13.75
13.88
12.78
10.49
7.32
3.75
0.18
-3.19
-6.33
-9.45
-12.77
-16.55
-20.89
-25.77
-30.85
-35.46
-38.58
-39.03
-35.79
-28.45
-17.50
-4.27
9.39
21.73
31.51
38.22
41.97
43.09
41.95
38.82
34.08
28.33
22.43
17.33
13.75
11.95
11.62
12.08
12.55
12.38
11.23
9.02
5.95
2.26
-1.78
-6.00
-10.32
-14.80
-19.57
-24.85
-30.83
-37.63
-45.08
-52.62
-59.24
-63.59
-64.32
-60.57
-52.31
-40.49
-26.77
-13.04
-0.86
8.81
15.67
19.84
21.56
21.08
18.66
14.75
10.02
5.40
1.81
-0.09
-0.05
1.68
4.44
7.47
10.04
11.64
12.09
11.42
9.81
7.50
4.68
1.48
-2.05
-5.95
-10.38
-15.49
-21.36
-27.83
-34.32
-39.78
-42.85
-42.15
-36.78
-26.68
-12.81
3.05
18.73
32.31
42.58
49.24
52.71
53.78
53.22
51.55
49.04
45.83
42.16
38.42
35.04
32.41
30.67
29.65
28.95
28.11
26.68
24.47
21.45
17.76
13.53
8.87
3.83
-1.55
-7.13
-12.70
-18.08
-23.27
-28.49
-34.03
-39.98
-45.84
-50.44
-52.14
-49.43
-41.54
-28.92
-13.12
3.61
19.00
31.36
39.88
44.57
45.95
44.79
41.83
37.78
33.29
28.95
25.27
22.62
21.09
20.51
20.53
20.69
20.58
19.92
18.55
16.45
13.66
10.28
6.39
2.17
-2.29
-6.90
-11.59
-16.39
-21.37
-26.63
-32.25
-38.06
-43.54
-47.75
-49.44
-47.40
-40.90
-30.05
-15.93
-0.33
14.70
27.45
36.88
42.71
45.19
44.87
42.25
37.88
32.34
26.40
20.96
16.89
14.76
14.57
15.80
17.54
18.87
19.17
18.24
16.29
13.67
10.75
7.73
4.71
1.73
-1.19
-4.08
-7.11
-10.57
-14.71
-19.51
-24.36
-28.12
-29.21
-26.17
-18.19
-5.54
10.48
27.87
44.57
58.93
70.01
77.54
81.68
82.81
81.40
77.99
73.27
67.99
62.89
58.51
55.08
52.51
50.46
48.42
45.82
42.17
37.21
30.90
23.50
15.44
7.13
-1.11
-9.18
-17.17
-25.32
-33.92
-43.18
-53.14
-63.56
-73.79
-82.77
-89.17
-91.64
-89.26
-81.80
-69.93
-55.10
-39.18
-24.06
-11.30
-1.83
4.05
6.60
6.48
4.54
1.74
-1.09
-3.24
-4.29
-4.05
-2.59
-0.22
2.62
5.39
7.60
8.85
8.96
7.86
5.66
2.51
-1.47
-6.13
-11.32
-16.78
-22.23
-27.39
-32.11
-36.50
-40.89
-45.67
-50.93
-56.21
-60.36
-61.81
-59.12
-51.51
-39.26
-23.68
-6.65
9.83
24.17
35.35
42.90
46.71
46.94
44.01
38.67
31.98
25.08
18.95
14.17
10.87
8.82
7.62
6.90
6.37
5.85
5.19
4.19
2.63
0.29
-2.95
-7.11
-12.06
-17.57
-23.31
-28.93
-34.16
-38.86
-43.26
-47.81
-53.02
-59.16
-65.82
-71.85
-75.52
-75.08
-69.38
-58.34
-43.05
-25.39
-7.48
8.86
22.37
32.35
38.54
41.00
40.13
36.57
31.26
25.23
19.48
14.75
11.44
9.63
9.04
9.21
9.56
9.59
8.92
7.36
4.91
1.68
-2.16
-6.44
-11.01
-15.71
-20.42
-25.09
-29.78
-34.70
-40.12
-46.23
-52.90
-59.43
-64.59
-66.78
-64.48
-56.89
-44.19
-27.73
-9.61
7.89
22.88
34.15
41.29
44.43
44.06
40.83
35.52
28.97
22.13
15.90
10.99
7.81
6.44
6.59
7.71
9.06
9.89
9.63
7.94
4.86
0.66
-4.29
-9.67
-15.24
-20.86
-26.33
-31.52
-36.38
-41.08
-45.99
-51.45
-57.45
-63.34
-67.77
-69.03
-65.58
-56.70
-42.73
-25.06
-5.74
13.08
29.59
42.57
51.47
56.24
57.18
54.89
50.19
44.17
38.02
32.89
29.57
28.27
28.64
29.94
31.35
32.27
32.47
31.95
30.75
28.74
25.71
21.38
15.75
9.17
2.20
-4.52
-10.61
-16.02
-21.08
-26.30
-32.24
-39.19
-46.99
-54.85
-61.40
-64.92
-63.80
-57.09
-44.88
-28.38
-9.66
8.97
25.47
38.41
47.05
51.23
51.20
47.59
41.34
33.68
25.88
19.02
13.71
10.01
7.57
5.87
4.53
3.38
2.33
1.16
-0.59
-3.58
-8.36
-14.68
-21.93
-29.60
-37.34
-44.89
-52.12
-59.24
-66.67
-74.96
-84.09
-94.02
-104.82
-116.40
-128.11
-138.67
-146.69
-151.14
-151.70
-147.71
-139.68
-129.72
-120.68
-114.88
-113.67
-117.72
-127.22
-142.08
-158.61
-173.97
-187.78
-200.67
-211.23
-215.97
-211.02
-194.26
-166.44
-124.34
-69.17
-9.06
44.92
85.40
110.32
120.95
119.85
110.08
105.76
117.11
143.48
176.86
211.05
244.27
277.33
311.77
349.48
406.40
492.65
603.31
723.13
838.89
943.37
1033.44
1107.93
1078.90
910.28
650.13
386.56
174.17
23.01
-78.70
-147.49
-198.68
-244.87
-280.66
-301.36
-311.27
-319.60
-330.20
-341.72
-351.79
-360.45
-369.98
-371.89
-360.10
-336.92
-311.79
-288.48
-267.71
-248.91
-232.51
-219.98
-206.18
-187.57
-165.97
-146.58
-132.34
-123.69
-118.70
-115.35
-112.23
-105.25
-92.02
-74.19
-56.21
-42.30
-35.27
-34.07
-36.78
-41.08
-44.10
-44.16
-41.89
-39.94
-41.11
-47.23
-55.47
-61.87
-63.52
-60.10
-52.56
-41.66
-27.23
-7.85
17.96
54.15
101.83
157.56
214.94
268.83
317.87
363.55
408.18
429.11
410.60
354.11
277.58
200.77
135.41
84.85
46.48
15.75
-11.60
-34.35
-49.81
-57.03
-57.94
-55.81
-54.29
-57.61
-69.85
-93.31
-124.72
-158.08
-187.08
-206.92
-214.80
-206.15
-183.90
-154.33
-123.80
-94.77
-67.44
-41.90
-19.41
-1.94
8.85
11.94
8.47
1.24
-5.78
-9.20
-7.79
-2.43
4.81
11.59
15.78
16.76
15.97
15.20
16.30
20.03
25.71
31.65
35.85
36.41
32.65
25.52
16.91
8.90
2.98
-0.11
-0.32
1.90
5.70
10.23
15.04
20.20
26.01
32.92
41.78
53.78
69.78
89.89
108.67
121.46
124.97
117.22
97.90
68.70
32.95
-5.44
-42.84
-76.50
-106.67
-132.17
-151.40
-163.09
-166.60
-162.23
-151.35
-136.11
-113.43
-87.37
-61.39
-37.47
-16.47
1.13
14.83
24.12
28.97
30.03
28.05
25.25
23.42
23.34
24.81
27.19
29.80
32.27
34.16
34.49
33.33
30.85
27.16
22.46
17.12
11.72
6.86
3.08
0.27
-1.31
-1.72
-1.38
-0.91
-0.80
-1.32
-2.38
-3.63
-4.94
-6.12
-6.37
-5.47
-3.50
-0.69
2.71
6.55
10.81
15.28
19.77
24.09
28.02
31.54
34.86
38.31
42.30
47.10
52.59
58.33
63.88
68.78
72.66
75.21
76.12
75.58
74.02
71.55
67.84
62.62
55.62
46.47
34.46
18.45
-2.00
-26.90
-56.62
-91.79
-132.35
-177.08
-223.66
-268.89
-308.78
-337.28
-348.45
-339.72
-313.35
-275.17
-232.45
-191.68
-156.54
-126.97
-97.68
-61.91
-16.32
37.72
96.38
156.11
214.93
272.61
316.08
332.02
319.02
287.45
248.66
209.74
174.89
146.56
125.06
107.51
90.54
71.06
46.06
14.60
-20.63
-54.40
-82.29
-102.73
-116.80
-126.41
-129.40
-124.26
-111.24
-92.30
-70.62
-49.49
-30.64
-13.27
6.27
31.73
61.70
90.26
109.97
115.32
104.94
81.84
51.48
19.67
-9.36
-34.34
-55.80
-74.26
-88.93
-98.21
-100.62
-95.71
-84.36
-68.34
-50.32
-32.74
-17.19
-4.66
4.22
9.13
9.96
6.97
0.99
-6.94
-16.52
-26.72
-36.77
-46.39
-55.57
-64.27
-72.03
-77.85
-80.40
-78.23
-69.98
-54.91
-33.12
-5.67
25.51
57.80
88.36
114.58
134.51
147.21
152.49
150.78
142.95
130.25
114.21
96.56
78.89
62.42
47.89
35.39
24.53
14.75
5.48
-3.73
-13.19
-23.07
-33.36
-43.85
-54.14
-63.73
-72.11
-78.90
-83.98
-87.42
-89.36
-89.91
-88.92
-85.99
-80.48
-71.71
-59.16
-42.80
-23.15
-1.27
21.45
43.48
63.38
80.01
92.57
100.62
104.02
102.83
97.31
87.83
74.85
59.03
41.30
22.82
4.98
-10.90
-23.72
-32.79
-37.90
-39.23
-37.27
-32.67
-26.30
-19.15
-12.40
-7.13
-4.17
-3.90
-6.12
-10.26
-15.49
-20.97
-25.86
-29.49
-31.36
-31.18
-28.90
-24.72
-19.01
-12.27
-5.04
2.13
8.67
14.02
17.72
19.55
19.67
18.61
17.23
16.44
16.98
19.22
23.08
28.16
33.93
39.90
45.60
50.61
54.44
56.55
56.43
53.80
48.77
41.83
33.75
25.36
17.31
9.97
3.45
-2.27
-7.21
-11.31
-14.37
-15.99
-15.64
-12.93
-7.86
-0.81
7.58
16.48
24.98
32.29
37.91
41.77
43.98
44.71
44.21
42.98
41.58
40.41
39.69
39.65
40.64
42.76
45.70
48.87
51.76
53.93
54.83
53.79
50.28
44.06
34.73
21.71
4.57
-16.56
-41.12
-68.66
-99.06
-132.24
-164.43
-188.90
-199.47
-194.50
-176.96
-151.73
-123.40
-95.25
-68.99
-44.87
-22.90
-3.74
11.36
21.88
28.63
33.45
38.04
42.25
43.62
38.06
22.45
-2.72
-32.40
-58.88
-75.53
-79.56
-72.64
-59.06
-43.19
-27.61
-12.72
2.29
17.82
32.90
46.03
56.46
63.91
69.10
72.95
76.02
77.86
77.37
73.18
64.84
53.42
41.65
32.92
29.48
31.40
35.75
39.34
39.53
35.73
29.25
21.97
14.96
7.76
-0.87
-11.68
-23.68
-34.51
-41.67
-43.90
-41.81
-37.28
-32.49
-28.82
-26.70
-25.67
-25.21
-24.96
-24.83
-24.86
-24.97
-24.95
-24.57
-23.81
-22.83
-22.12
-22.08
-22.97
-24.75
-27.09
-29.49
-31.49
-32.70
-32.69
-31.37
-28.34
-23.67
-17.89
-11.73
-5.91
-0.91
3.13
6.52
9.72
13.25
17.46
22.38
27.69
32.72
36.42
37.58
35.26
29.28
20.63
11.27
3.45
-1.17
-2.02
-0.01
3.14
5.69
6.70
6.33
5.72
6.24
8.66
12.77
17.14
19.90
19.47
15.46
8.94
2.14
-2.74
-4.52
-3.57
-1.37
0.37
0.34
-2.22
-8.33
-18.46
-31.66
-45.08
-54.36
-55.25
-45.97
-28.80
-9.79
3.75
6.84
-0.97
-15.77
-31.44
-42.74
-47.54
-46.82
-43.10
-38.29
-32.42
-23.81
-10.72
6.90
27.18
46.64
61.97
71.58
75.84
76.50
75.67
75.22
74.62
72.70
68.11
60.25
49.76
38.22
27.49
19.01
13.34
9.89
7.48
4.68
0.49
-5.36
-12.27
-19.27
-25.23
-29.19
-30.90
-30.80
-30.12
-30.15
-31.44
-33.49
-35.36
-35.63
-32.77
-25.75
-14.21
1.26
19.23
37.83
54.97
67.89
74.65
74.90
69.77
61.21
51.04
40.47
29.91
19.07
6.17
-10.57
-30.88
-53.39
-76.29
-98.14
-118.11
-135.83
-144.25
-139.53
-122.88
-99.35
-74.14
-50.36
-29.32
-11.48
3.18
14.95
23.21
27.59
28.57
27.16
24.65
22.29
21.31
22.64
26.60
31.89
36.82
40.22
41.82
42.03
41.56
41.16
41.63
43.38
46.03
48.88
51.26
52.59
52.45
50.65
47.45
43.61
39.86
36.55
33.69
31.07
28.41
25.41
21.71
16.82
11.40
5.52
-0.81
-7.41
-13.91
-19.90
-24.98
-28.81
-31.17
-31.83
-31.02
-28.98
-25.75
-21.31
-15.73
-9.33
-2.64
3.75
9.46
13.90
17.09
19.70
22.62
26.34
30.65
34.88
38.33
40.61
40.50
37.41
31.84
24.69
16.34
6.58
-4.69
-16.85
-28.47
-40.11
-52.02
-62.99
-71.24
-75.89
-77.11
-75.43
-70.94
-63.34
-55.91
-50.59
-45.64
-37.07
-22.39
-2.52
18.43
34.90
41.34
29.05
-6.08
-60.40
-124.90
-191.01
-253.46
-310.18
-360.40
-374.53
-336.78
-258.38
-166.32
-80.02
-6.63
52.45
96.90
127.42
149.36
162.22
165.77
162.79
157.73
153.29
149.83
143.61
133.43
120.46
103.05
80.25
53.58
26.29
0.84
-22.03
-42.52
-60.36
-73.77
-82.65
-86.55
-83.15
-68.77
-40.59
1.60
55.16
107.00
142.68
155.82
149.75
132.29
111.18
91.68
75.88
63.43
53.15
45.05
39.62
36.69
35.58
35.53
35.79
35.63
34.62
32.96
32.15
33.64
36.76
38.57
35.12
23.23
2.14
-25.54
-54.58
-78.54
-92.64
-96.37
-92.99
-87.11
-81.99
-78.16
-73.90
-67.12
-57.40
-45.15
-32.23
-19.88
-7.28
7.78
27.35
50.80
74.34
92.17
99.23
93.29
76.33
53.54
30.65
11.58
-2.82
-13.99
-24.22
-34.63
-45.43
-55.93
-65.43
-73.45
-79.27
-81.28
-76.76
-62.77
-37.93
-4.73
30.45
59.19
74.23
72.47
56.20
31.69
5.96
-14.49
-27.79
-35.87
-41.56
-46.28
-49.16
-48.27
-42.52
-32.83
-21.52
-10.95
-1.23
9.57
24.23
44.49
69.66
96.62
120.79
136.54
141.71
136.25
121.97
101.43
77.23
51.74
26.94
4.56
-14.01
-28.04
-37.86
-44.21
-48.45
-52.26
-57.17
-64.14
-73.18
-83.15
-90.92
-94.98
-94.25
-88.76
-79.72
-68.87
-57.95
-48.17
-40.10
-33.89
-29.81
-27.74
-27.35
-28.06
-28.99
-29.35
-28.45
-25.89
-21.63
-16.17
-10.21
-4.39
0.87
6.00
11.92
19.96
31.24
45.92
62.52
78.21
89.48
93.33
88.42
75.49
57.29
37.84
21.18
10.16
5.95
7.87
13.90
21.60
29.03
35.01
39.14
41.27
41.18
38.75
34.40
29.34
25.26
23.29
22.67
20.76
13.83
-0.90
-23.27
-49.55
-73.90
-90.85
-97.44
-94.10
-83.08
-66.73
-46.19
-21.48
7.25
38.31
68.48
94.84
112.20
117.34
109.60
90.78
63.83
31.41
-4.61
-42.79
-80.15
-113.38
-139.55
-157.27
-166.46
-168.21
-164.36
-156.91
-147.34
-134.51
-117.24
-95.79
-72.17
-48.51
-26.16
-5.62
13.16
30.58
49.63
72.88
100.79
131.92
164.88
198.97
233.49
267.12
281.88
266.07
223.25
167.91
112.74
63.92
23.20
-9.80
-36.32
-58.28
-75.54
-86.77
-92.06
-92.89
-90.68
-86.34
-80.77
-75.21
-68.73
-60.05
-48.48
-35.19
-22.52
-12.51
-6.23
-3.90
-4.98
-8.24
-10.70
-9.43
-3.62
5.65
16.71
28.19
39.19
49.08
57.24
63.41
68.83
73.18
76.18
77.89
78.44
77.64
74.99
70.34
64.48
59.22
56.22
57.02
61.99
69.91
78.56
85.98
91.55
96.03
100.66
105.53
108.79
107.56
99.18
82.25
57.39
26.92
-6.26
-39.57
-71.59
-102.18
-130.63
-155.75
-177.33
-197.15
-218.43
-244.11
-273.84
-303.21
-325.61
-333.28
-321.89
-294.53
-261.09
-233.09
-218.18
-215.95
-219.69
-221.84
-215.55
-197.45
-168.82
-133.40
-93.83
-50.71
-2.57
58.24
122.51
173.63
201.51
206.58
194.39
174.59
149.78
121.48
90.80
57.55
23.76
-5.78
-25.64
-33.09
-28.10
-13.05
9.37
35.65
60.86
82.43
101.00
117.78
132.57
144.14
150.66
151.25
145.18
131.27
111.09
89.93
73.74
66.24
68.66
80.36
100.39
126.97
157.31
179.05
182.73
167.44
139.70
106.52
71.03
34.28
-0.67
-37.34
-76.50
-115.05
-148.95
-176.77
-200.16
-218.58
-225.26
-215.48
-190.24
-155.11
-115.38
-73.94
-33.67
6.53
45.77
82.35
114.57
142.15
161.97
167.43
157.17
134.58
105.83
75.83
47.16
20.58
-3.71
-25.06
-41.97
-52.87
-58.05
-59.29
-58.95
-58.43
-58.20
-58.15
-57.93
-56.65
-52.81
-45.70
-35.45
-23.18
-10.34
1.47
11.01
17.71
22.19
25.97
30.00
33.99
36.45
35.66
30.80
22.62
13.44
6.39
4.16
7.46
14.67
22.61
27.95
28.57
24.16
15.93
5.84
-4.39
-13.95
-22.86
-31.04
-37.89
-42.19
-42.57
-38.45
-30.63
-21.22
-12.88
-7.83
-6.94
-9.57
-14.02
-18.08
-19.95
-18.83
-15.07
-9.55
-4.23
-0.76
0.05
-1.73
-5.21
-9.36
-13.54
-17.72
-22.03
-26.73
-31.73
-36.74
-41.22
-44.27
-44.71
-40.22
-28.69
-9.15
16.89
45.72
72.23
91.88
102.04
102.60
95.53
82.65
66.94
49.80
32.18
14.07
-3.52
-18.94
-30.44
-36.66
-36.94
-31.63
-22.23
-10.37
2.47
15.53
28.20
39.88
49.65
56.39
58.93
56.63
50.25
41.66
33.31
26.62
21.77
17.91
14.23
9.97
4.97
-0.29
-5.23
-9.13
-12.00
-13.85
-14.37
-12.63
-8.79
-4.04
1.66
7.13
11.39
13.38
12.95
10.78
8.79
7.84
8.27
10.03
12.98
21.57
37.87
60.68
81.78
99.84
115.30
130.82
147.62
166.10
186.02
205.76
223.38
237.26
247.01
251.57
249.86
240.97
224.86
202.61
175.55
145.98
116.77
91.14
70.44
54.53
42.30
32.60
24.58
17.19
9.89
2.70
-3.76
-9.48
-14.83
-20.43
-26.74
-33.98
-42.96
-53.97
-66.65
-80.23
-94.47
-109.58
-126.05
-144.35
-164.91
-189.72
-219.36
-252.19
-284.73
-313.26
-334.76
-347.54
-351.51
-348.27
-343.82
-342.25
-343.78
-345.94
-346.37
-344.32
-340.41
-335.90
-332.00
-334.63
-345.67
-361.42
-375.54
-383.61
-384.73
-380.28
-372.25
-362.29
-358.34
-363.54
-374.12
-382.70
-383.86
-375.63
-358.42
-333.31
-257.78
-123.44
41.55
194.77
310.52
384.96
425.83
442.67
443.53
434.19
411.45
374.70
328.99
282.61
241.99
210.39
188.42
174.35
165.93
155.47
138.75
117.30
96.18
79.55
69.58
66.24
68.32
74.23
78.73
78.80
75.00
70.52
64.11
56.11
47.70
41.31
40.04
44.57
54.97
70.72
90.36
111.18
130.79
147.20
159.34
166.91
169.27
166.29
158.50
146.98
132.97
118.17
103.87
90.81
79.29
69.28
60.75
53.92
49.34
47.55
48.99
53.17
58.80
64.25
68.04
69.42
68.43
65.88
62.56
58.86
54.33
48.03
39.08
27.05
12.29
-4.07
-19.72
-31.99
-38.34
-37.09
-27.74
-11.11
10.72
34.89
58.33
79.17
96.18
108.71
116.08
117.73
113.36
103.11
88.15
70.31
52.95
38.95
30.10
26.11
25.10
24.55
22.17
17.30
3.89
-18.96
-46.70
-70.90
-85.06
-87.43
-79.31
-66.12
-52.20
-40.50
-31.60
-28.67
-31.77
-37.48
-40.12
-35.49
-24.16
-11.38
-4.87
-9.97
-27.42
-52.45
-77.80
-97.04
-107.20
-109.18
-106.01
-100.78
-94.47
-86.58
-75.92
-62.59
-48.40
-36.36
-28.85
-26.33
-27.48
-29.52
-29.92
-27.22
-21.62
-14.64
-8.48
-4.66
-3.37
-3.44
-2.85
0.31
7.37
18.51
32.71
48.54
64.33
78.69
90.68
99.46
103.95
103.38
97.04
84.39
65.63
41.86
14.77
-13.28
-39.80
-63.00
-81.10
-92.91
-97.87
-96.21
-88.54
-75.99
-59.74
-41.18
-22.46
-4.82
11.00
24.56
35.48
43.19
47.24
47.56
44.17
36.10
23.85
8.54
-8.28
-24.93
-40.47
-53.84
-63.97
-62.10
-49.06
