1699281284.00
64.000000
-0.00
-0.00
-0.00
-0.00
-0.00
-0.00
-0.00
-0.00
-0.00
-0.00
0.00
0.01
0.01
-0.00
-0.03
-0.05
-0.05
0.00
0.13
0.36
0.66
1.01
1.37
1.72
2.06
2.40
2.79
3.24
3.80
4.42
5.06
5.66
6.20
6.68
7.15
7.68
8.31
9.14
10.09
11.04
11.88
12.56
13.14
13.76
14.65
15.96
17.91
20.32
22.90
25.38
27.58
29.57
31.68
34.32
37.81
42.54
48.15
54.10
59.83
64.97
69.59
74.15
79.34
85.70
93.75
102.99
112.63
121.77
129.82
136.80
143.30
150.64
157.52
166.24
177.42
191.19
206.35
219.96
227.66
224.75
207.84
176.06
131.81
78.99
21.97
-36.01
-93.46
-150.17
-206.33
-261.71
-315.42
-365.90
-412.13
-453.30
-488.82
-517.92
-539.38
-551.64
-553.00
-542.32
-519.14
-484.37
-439.92
-388.41
-332.69
-275.42
-218.70
-163.95
-112.07
-63.49
-18.63
22.04
57.90
88.29
112.68
130.94
143.47
151.18
155.37
157.20
157.54
156.74
154.68
151.02
145.45
137.75
127.79
115.70
102.11
88.65
77.89
72.76
75.30
85.47
100.74
116.85
129.44
135.70
135.25
129.66
121.22
111.68
101.70
91.27
80.47
70.12
61.29
54.93
51.18
49.24
47.73
45.25
41.16
35.70
29.83
24.60
20.71
18.24
16.70
15.47
14.02
12.07
9.50
6.28
2.43
-1.77
-5.62
-8.18
-8.53
-6.34
-2.12
2.80
6.84
8.72
8.06
5.44
1.94
-1.38
-3.96
-5.89
-7.62
-9.63
-11.97
-14.27
-15.86
-16.17
-15.05
-12.85
-10.22
-7.74
-5.67
-3.86
-2.00
0.10
2.26
4.01
4.90
4.72
3.69
2.37
1.33
0.84
0.79
0.73
0.20
-0.98
-2.58
-4.05
-4.75
-4.15
-2.12
1.13
5.04
8.89
12.02
13.96
14.54
13.81
11.96
9.20
5.68
1.62
-2.69
-6.80
-10.14
-12.18
-12.60
-11.44
-9.10
-6.19
-3.33
-0.92
0.94
2.38
3.70
5.14
6.75
8.31
9.42
9.68
8.89
7.15
4.78
2.03
-0.95
-4.14
-7.45
-10.59
-12.91
-13.66
-12.30
-8.86
-4.04
1.01
5.07
7.27
7.28
5.32
1.90
-2.35
-6.80
-10.91
-14.14
-16.13
-16.73
-16.07
-14.55
-12.67
-10.82
-9.16
-7.62
-6.07
-4.43
-2.84
-1.60
-0.99
-1.15
-1.87
-2.72
-3.13
-2.74
-1.50
0.18
1.64
2.22
1.51
-0.44
-3.16
-5.89
-7.86
-8.47
-7.41
-4.73
-0.76
3.85
8.36
11.96
14.07
14.40
13.01
10.26
6.60
2.44
-1.97
-6.53
-11.23
-15.98
-20.60
-24.88
-28.61
-31.71
-34.19
-36.11
-37.50
-38.30
-38.26
-37.01
-34.15
-29.45
-23.02
-15.31
-7.03
1.13
8.72
15.69
22.24
28.60
34.90
41.12
47.25
53.46
60.03
67.24
75.09
83.13
90.56
96.51
100.31
101.62
100.38
96.63
90.43
81.89
71.32
59.27
46.53
33.97
22.30
12.06
3.60
-2.94
-7.58
-10.61
-12.54
-13.98
-15.49
-17.31
-19.38
-21.36
-22.96
-24.00
-24.60
-24.96
-25.36
-25.93
-26.73
-27.72
-28.71
-29.31
-28.94
-26.90
-22.71
-16.37
-8.51
-0.35
6.60
10.94
11.71
8.48
1.43
-8.77
-21.05
-34.14
-46.80
-58.03
-67.27
-74.43
-79.63
-83.06
-84.76
-84.69
-83.09
-80.71
-78.83
-78.85
-81.66
-87.16
-94.09
-100.51
-104.45
-104.59
-100.50
-92.62
-82.09
-70.31
-58.48
-47.07
-35.24
-20.65
0.31
31.37
74.82
129.91
192.21
254.26
307.39
344.21
360.55
356.35
335.05
302.12
263.23
222.99
184.56
149.90
120.47
97.41
81.45
72.38
68.71
67.87
66.97
63.72
57.15
47.82
37.24
27.06
18.32
11.17
4.98
-1.06
-7.48
-14.32
-21.26
-28.09
-35.03
-42.86
-52.49
-64.49
-78.48
-93.04
-106.08
-115.58
-120.31
-120.37
-117.09
-112.57
-108.97
-107.89
-110.00
-114.99
-121.84
-129.24
-135.92
-141.03
-144.14
-145.20
-144.30
-141.52
-136.82
-130.22
-121.90
-112.34
-102.23
-92.30
-83.08
-74.88
-67.74
-61.64
-56.50
-52.25
-48.75
-45.81
-43.23
-40.96
-39.15
-38.09
-38.07
-39.20
-41.17
-43.29
-44.47
-43.46
-39.06
-30.53
-17.87
-2.03
15.20
31.65
45.35
55.04
60.41
61.98
60.63
57.31
52.71
47.30
41.40
35.31
29.35
23.89
19.32
15.94
13.98
13.46
14.20
15.81
17.69
19.21
19.78
18.95
16.59
12.90
8.43
3.94
0.14
-2.68
-4.90
-7.56
-11.94
-18.94
-28.41
-38.95
-48.14
-53.36
-52.71
-45.68
-33.29
-17.66
-1.35
13.43
25.22
33.45
38.17
39.76
38.68
35.42
30.53
24.74
18.96
14.13
11.01
9.83
10.12
10.87
10.82
8.96
4.94
-0.85
-7.43
-13.68
-18.73
-22.25
-24.46
-25.91
-27.29
-29.18
-32.08
-36.35
-42.16
-49.22
-56.62
-62.82
-66.04
-64.95
-59.34
-50.38
-40.29
-31.45
-25.55
-23.06
-23.48
-25.95
-29.84
-34.91
-40.88
-46.94
-51.48
-52.51
-48.39
-38.66
-24.30
-7.44
9.50
24.53
36.64
45.74
52.33
57.06
60.41
62.56
63.43
62.88
60.84
57.50
53.34
48.96
44.81
41.02
37.44
33.88
30.58
28.30
28.18
31.22
37.60
46.40
55.73
63.41
67.69
67.88
64.37
58.26
50.80
42.91
35.08
27.44
20.11
13.31
7.40
2.75
-0.48
-2.39
-3.35
-3.80
-4.16
-4.70
-5.53
-6.63
-7.96
-9.46
-11.05
-12.58
-13.90
-14.88
-15.55
-16.13
-17.01
-18.62
-21.23
-24.80
-28.89
-32.75
-35.48
-36.26
-34.62
-30.48
-24.19
-16.41
-7.87
0.70
8.63
15.23
19.77
21.60
20.37
16.40
10.87
5.63
2.61
3.12
7.18
13.54
20.23
25.53
28.73
30.46
32.52
37.28
47.09
63.60
87.20
116.49
147.91
176.10
194.97
199.68
188.45
163.47
130.25
95.54
64.82
40.67
22.82
9.44
-1.05
-8.94
-13.42
-13.64
-9.86
-3.86
1.69
4.33
2.90
-2.20
-9.49
-17.30
-24.59
-31.26
-37.97
-45.55
-54.45
-64.47
-74.83
-84.47
-92.51
-98.57
-102.75
-105.47
-106.98
-107.18
-105.63
-101.86
-95.84
-88.20
-80.10
-72.75
-66.85
-62.29
-58.36
-54.24
-49.58
-44.71
-40.41
-37.34
-35.50
-34.12
-31.98
-27.93
-21.40
-12.64
-2.51
7.83
17.39
25.58
32.21
37.40
41.34
44.11
45.69
46.03
45.24
43.72
42.18
41.43
42.03
43.99
46.69
49.11
50.23
49.46
46.74
42.43
36.92
30.48
23.16
15.03
6.38
-2.28
-10.48
-18.03
-25.25
-32.76
-41.03
-50.02
-58.99
-66.73
-72.06
-74.35
-73.66
-70.69
-66.42
-61.80
-57.53
-54.08
-51.73
-50.60
-50.61
-51.42
-52.49
-53.22
-53.12
-52.05
-50.21
-48.04
-45.96
-44.13
-42.38
-40.34
-37.64
-34.11
-29.88
-25.22
-20.41
-15.57
-10.74
-5.94
-1.42
2.40
5.08
6.51
7.04
7.60
9.29
13.04
19.20
27.46
36.94
46.57
55.32
62.50
67.82
71.40
73.61
74.97
75.92
76.63
76.89
76.15
73.80
69.46
63.17
55.39
46.71
37.50
27.75
17.15
5.45
-7.31
-20.72
-34.11
-46.89
-58.73
-69.51
-78.95
-86.25
-90.08
-88.78
-80.99
-66.13
-44.71
-18.17
11.50
42.12
71.58
97.84
118.88
132.74
137.91
133.74
120.88
101.29
77.75
53.19
29.93
9.38
-7.91
-21.81
-32.21
-38.86
-41.45
-39.91
-34.56
-26.11
-15.47
-3.70
8.18
19.23
28.53
35.37
39.32
40.31
38.59
34.65
29.03
22.11
13.93
4.16
-7.63
-21.63
-37.26
-53.13
-67.31
-78.05
-84.52
-87.10
-87.15
-86.19
-85.16
-84.01
-81.93
-77.82
-70.88
-60.98
-48.66
-34.99
-21.25
-8.76
1.47
9.03
14.31
18.43
22.94
29.29
38.32
50.04
63.64
77.89
91.52
103.42
112.76
118.95
121.61
120.63
116.30
109.32
100.77
91.75
83.12
75.38
68.71
63.28
59.41
57.66
58.62
62.59
69.28
77.63
86.04
92.66
95.79
94.32
87.84
76.59
61.36
43.43
24.43
6.12
-10.01
-23.19
-33.60
-42.31
-50.75
-60.14
-71.07
-83.48
-97.09
-111.60
-126.79
-142.18
-156.70
-168.65
-176.30
-178.58
-175.76
-169.29
-161.23
-153.29
-146.07
-139.07
-131.01
-120.54
-106.76
-89.29
-68.08
-43.24
-15.06
15.74
47.80
79.10
107.33
130.49
147.35
157.66
161.97
161.28
156.70
149.26
139.80
128.79
116.25
101.77
84.77
65.08
43.40
21.41
1.29
-14.98
-26.42
-33.32
-36.94
-38.91
-40.50
-42.29
-44.12
-45.44
-45.61
-44.16
-40.89
-35.85
-29.24
-21.34
-12.48
-3.05
6.47
15.43
23.16
29.05
32.83
34.58
34.75
34.01
32.97
32.07
31.46
31.01
30.42
29.29
27.23
23.99
19.50
13.98
7.83
1.54
-4.60
-10.65
-16.98
-24.13
-32.60
-42.58
-53.83
-65.79
-77.77
-89.19
-99.62
-108.54
-115.38
-119.62
-120.99
-119.69
-116.25
-111.27
-105.06
-97.40
-87.43
-74.25
-57.41
-37.30
-14.92
8.42
31.34
52.49
70.61
85.14
95.81
102.58
105.63
105.64
103.80
101.47
99.70
98.81
99.61
102.30
106.12
109.53
110.98
109.91
106.77
102.56
98.23
96.06
97.47
102.06
107.58
111.36
111.70
108.17
101.15
91.45
82.85
79.47
84.39
98.55
121.09
150.27
183.66
218.41
236.58
225.95
186.16
130.18
74.02
26.50
-11.99
-45.23
-76.62
-106.87
-131.72
-146.70
-149.94
-143.87
-134.16
-125.51
-120.38
-119.07
-120.55
-121.52
-119.68
-114.47
-107.40
-100.69
-95.62
-92.44
-90.90
-91.14
-89.94
-86.40
-81.03
-75.58
-71.94
-71.07
-72.85
-76.35
-80.33
-82.99
-83.51
-81.92
-79.34
-77.41
-77.53
-80.45
-86.15
-93.85
-102.01
-109.17
-113.99
-115.82
-114.88
-112.26
-109.58
-108.44
-109.73
-113.26
-117.92
-121.71
-122.35
-117.78
-106.64
-88.76
-65.38
-39.20
-13.87
6.80
20.01
24.88
22.67
16.33
9.38
4.61
3.30
5.20
9.22
14.43
20.70
28.60
38.76
51.08
64.41
76.92
86.87
93.42
96.77
97.79
97.29
95.58
92.50
87.92
82.21
76.35
71.66
69.13
69.00
70.48
72.04
72.16
70.11
66.33
62.43
60.52
62.30
68.27
77.48
87.89
97.40
104.54
108.76
110.43
110.46
109.82
109.13
108.37
106.75
103.14
96.32
85.24
69.51
49.79
27.68
5.42
-14.82
-31.73
-44.72
-54.11
-61.07
-66.94
-72.61
-78.22
-83.12
-86.30
-86.88
-83.51
-74.34
-58.70
-38.07
-15.57
5.29
21.60
33.51
40.23
41.59
38.26
31.24
21.56
10.22
-2.48
-14.66
-23.69
-27.21
-23.51
-12.58
3.58
21.85
39.34
54.48
67.23
78.13
87.09
93.39
95.75
93.01
84.97
72.62
57.69
41.81
25.61
8.69
-9.46
-28.65
-47.67
-64.37
-76.52
-82.71
-82.96
-78.87
-72.96
-67.39
-63.32
-60.68
-58.57
-55.96
-52.18
-47.12
-41.12
-34.62
-27.86
-20.92
-13.77
-6.43
0.99
8.42
15.87
23.39
31.01
38.55
45.66
51.89
56.90
60.58
63.05
64.57
65.31
65.32
64.48
62.66
59.84
56.09
51.60
46.65
41.61
36.99
33.28
30.78
29.29
27.97
25.55
20.73
12.75
1.89
-10.46
-22.03
-30.32
-33.35
-30.24
-21.48
-8.75
5.52
18.88
29.54
36.67
40.32
40.98
38.86
33.61
24.43
10.60
-7.68
-29.08
-51.23
-71.57
-88.17
-100.42
-108.93
-114.97
-119.75
-123.87
-127.33
-129.84
-131.25
-131.76
-131.72
-131.34
-130.41
-128.35
-124.51
-118.54
-110.53
-100.93
-90.07
-77.86
-63.67
-46.69
-26.59
-4.01
19.28
40.84
58.53
71.26
79.36
84.16
86.98
88.28
87.40
83.11
74.75
62.79
48.68
33.88
18.89
2.88
-15.55
-37.15
-61.09
-84.95
-105.87
-122.00
-133.49
-142.40
-151.47
-162.71
-176.41
-191.19
-204.79
-215.16
-221.12
-222.46
-219.64
-213.30
-204.17
-193.07
-181.15
-169.68
-159.55
-150.65
-141.58
-130.10
-114.20
-93.32
-68.92
-43.72
-20.17
0.87
20.38
39.91
59.85
78.27
91.48
95.94
90.31
76.31
57.88
39.25
23.38
11.36
2.94
-2.39
-4.78
-3.99
0.18
7.47
17.07
28.04
39.67
51.77
64.66
78.95
94.97
112.40
130.07
146.11
158.61
166.33
169.13
167.84
163.71
157.76
150.64
142.90
135.10
127.72
120.70
113.03
103.05
89.40
72.11
53.04
35.30
21.95
14.71
13.31
15.75
19.25
21.47
21.38
19.53
17.62
17.55
20.64
27.14
36.36
47.18
58.55
69.72
79.93
87.89
91.70
89.67
81.43
68.51
54.03
41.20
31.72
25.13
19.25
11.69
1.61
-9.97
-21.11
-30.37
-37.63
-43.57
-48.44
-51.63
-52.12
-49.14
-43.47
-37.58
-34.52
-36.47
-44.26
-55.58
-66.17
-72.34
-72.32
-66.13
-54.95
-39.74
-22.18
-4.86
9.49
19.05
21.77
18.70
13.36
9.99
11.40
17.55
26.03
33.66
38.07
38.61
36.53
33.75
31.55
30.06
28.49
26.02
22.54
18.61
14.95
12.23
10.60
9.62
8.70
7.34
5.52
3.58
2.06
1.27
1.52
2.90
5.35
8.70
12.63
16.72
20.49
23.40
24.97
24.82
22.67
18.38
12.06
4.23
-4.13
-11.69
-17.04
-19.13
-17.52
-12.48
-4.91
3.94
12.78
20.56
26.56
30.53
32.59
33.11
32.51
31.12
29.12
26.54
23.42
19.85
16.05
12.25
8.64
5.34
2.34
-0.30
-2.51
-4.17
-5.20
-5.65
-5.72
-5.72
-5.92
-6.42
-7.16
-7.91
-8.40
-8.45
-8.11
-7.62
-7.34
-7.59
-8.48
-9.84
-11.29
-12.36
-12.77
-12.54
-12.04
-11.81
-12.21
-13.24
-14.48
-15.27
-14.95
-13.17
-9.91
-5.37
0.12
6.08
11.67
15.73
17.07
15.02
10.00
3.56
-2.24
-5.79
-6.66
-5.76
-4.56
-4.23
-4.88
-5.67
-5.51
-3.83
-0.96
2.13
4.52
5.96
6.92
8.17
10.20
12.85
15.38
16.88
16.75
14.98
12.09
8.80
5.68
3.01
0.70
-1.56
-4.16
-7.39
-11.39
-15.92
-20.47
-24.32
-26.75
-27.32
-26.07
-23.43
-20.02
-16.37
-12.75
-9.19
-5.76
-2.68
-0.41
0.58
-0.06
-2.34
-5.99
-10.56
-15.62
-20.72
-25.46
-29.40
-32.11
-33.30
-32.95
-31.41
-29.30
-27.26
-25.68
-24.57
-23.60
-22.30
-20.33
-17.60
-14.36
-10.97
-7.81
-5.12
-2.96
-1.27
0.02
0.99
1.73
2.39
3.22
4.50
6.39
8.82
11.41
13.62
14.95
15.17
14.42
13.13
11.90
11.25
11.44
12.45
13.97
15.56
16.79
17.40
17.34
16.78
15.92
14.90
13.76
12.40
10.80
9.01
7.27
5.92
5.30
5.58
6.76
8.66
11.03
13.61
16.32
19.16
22.22
25.50
28.77
31.61
33.57
34.37
34.12
33.23
32.29
31.72
31.64
31.76
31.68
31.03
29.61
27.40
24.40
20.57
15.95
10.74
5.41
0.57
-3.25
-5.98
-8.07
-10.33
-13.56
-18.12
-23.72
-29.53
-34.53
-37.90
-39.29
-38.83
-36.94
-34.08
-30.55
-26.50
-22.05
-17.43
-13.10
-9.66
-7.53
-6.85
-7.31
-8.30
-9.14
-9.29
-8.47
-6.58
-3.62
0.32
5.01
9.99
14.62
18.28
20.60
21.58
21.54
20.89
19.89
18.56
16.83
14.71
12.44
10.45
9.11
8.55
8.67
9.19
9.86
10.55
11.13
11.36
10.85
9.21
6.34
2.64
-1.05
-3.78
-4.94
-4.52
-3.08
-1.42
-0.18
0.38
0.32
-0.19
-1.04
-2.33
-4.22
-6.90
-10.47
-14.96
-20.31
-26.43
-33.11
-40.00
-46.65
-52.57
-57.37
-60.81
-62.89
-63.73
-63.52
-62.42
-60.57
-58.07
-55.08
-51.82
-48.52
-45.35
-42.38
-39.54
-36.71
-33.78
-30.67
-27.31
-23.63
-19.49
-14.81
-9.58
-4.01
1.56
6.74
11.21
14.79
17.52
19.57
21.21
22.73
24.35
26.18
28.14
30.01
31.47
32.20
32.03
31.01
29.38
27.53
25.85
24.65
24.04
23.87
23.86
23.65
22.99
21.78
20.07
18.01
15.75
13.45
11.31
9.58
8.49
8.18
8.54
9.22
9.71
9.49
8.20
5.76
2.29
-2.05
-7.14
-12.97
-19.54
-26.69
-34.06
-41.07
-47.14
-51.83
-55.01
-56.81
-57.51
-57.35
-56.46
-54.83
-52.38
-49.18
-45.47
-41.67
-38.20
-35.29
-32.82
-30.25
-26.93
-22.35
-16.54
-10.08
-3.92
1.04
4.30
5.95
6.54
6.70
6.88
7.20
7.59
7.94
8.29
8.81
9.64
10.79
12.09
13.27
14.12
14.63
14.96
15.39
16.12
17.24
18.64
20.11
21.47
22.66
23.76
24.95
26.42
28.28
30.48
32.79
34.94
36.68
37.88
38.48
38.48
37.91
36.74
34.98
32.73
30.12
27.25
24.07
20.32
15.55
9.39
1.65
-7.48
-17.50
-27.74
-37.52
-46.26
-53.55
-59.04
-62.47
-63.70
-62.71
-59.70
-54.95
-48.86
-41.76
-34.00
-25.86
-17.63
-9.65
-2.27
4.17
9.38
13.23
15.73
17.08
17.63
17.73
17.71
17.69
17.62
17.33
16.72
15.91
15.19
14.98
15.57
17.01
19.09
21.44
23.70
25.69
27.47
29.27
31.42
34.22
37.94
42.66
48.25
54.22
59.74
63.73
65.19
63.55
58.86
51.89
43.79
35.66
28.24
21.65
15.58
9.53
3.17
-3.58
-10.45
-17.11
-23.33
-29.09
-34.60
-40.16
-45.90
-51.73
-57.35
-62.29
-66.22
-69.05
-70.90
-71.98
-72.41
-72.10
-70.90
-68.74
-65.80
-62.43
-59.02
-55.68
-52.20
-48.11
-42.93
-36.50
-29.02
-21.03
-13.16
-5.93
0.42
5.88
10.58
14.70
18.35
21.61
24.50
27.02
29.13
30.81
31.95
32.50
32.42
31.77
30.75
29.56
28.42
27.43
26.65
26.09
25.78
25.73
25.92
26.20
26.39
26.30
25.84
25.07
24.15
23.25
22.42
21.57
20.54
19.21
17.63
15.96
14.43
13.16
12.12
11.16
10.04
8.61
6.83
4.76
2.52
0.13
-2.53
-5.72
-9.73
-14.76
-20.73
-27.23
-33.66
-39.37
-43.92
-47.12
-49.02
-49.80
-49.61
-48.55
-46.68
-44.14
-41.07
-37.61
-33.76
-29.42
-24.46
-18.81
-12.65
-6.30
-0.23
5.15
9.63
13.22
16.16
18.81
21.46
24.20
26.86
29.14
30.83
31.95
32.81
33.83
35.30
37.22
39.28
41.09
42.34
42.91
42.76
41.78
39.80
36.64
32.34
27.28
22.15
17.68
14.35
12.24
11.08
10.45
10.01
9.59
9.18
8.79
8.36
7.79
6.93
5.67
4.04
2.09
-0.03
-2.17
-4.29
-6.46
-8.91
-11.97
-16.02
-21.29
-27.80
-35.23
-42.92
-49.95
-55.34
-58.37
-58.82
-57.16
-54.39
-51.74
-50.15
-49.86
-50.38
-50.71
-49.83
-47.13
-42.59
-36.70
-30.09
-23.35
-16.84
-10.81
-5.42
-0.81
2.99
6.15
9.08
12.27
16.16
20.87
26.14
31.32
35.60
38.25
38.86
37.47
34.54
30.75
26.70
22.71
18.88
15.15
11.55
8.24
5.48
3.39
1.90
0.72
-0.42
-1.60
-2.71
-3.47
-3.76
-3.60
-3.18
-2.69
-2.18
-1.52
-0.53
0.94
2.95
5.43
8.30
11.46
14.78
18.11
21.21
23.81
25.64
26.47
26.12
24.52
21.68
17.70
12.72
6.88
0.30
-6.93
-14.74
-22.96
-31.28
-39.23
-46.21
-51.63
-55.10
-56.55
-56.30
-55.01
-53.45
-52.22
-51.46
-50.71
-49.05
-45.45
-39.15
-30.01
-18.56
-5.82
7.06
19.06
29.46
37.83
43.97
47.86
49.67
49.85
48.97
47.66
46.33
45.08
43.68
41.77
39.07
35.55
31.44
27.12
22.94
19.06
15.46
11.98
8.53
5.08
1.71
-1.45
-4.25
-6.56
-8.22
-9.07
-9.00
-8.00
-6.29
-4.29
-2.53
-1.41
-1.10
-1.47
-2.21
-3.03
-3.73
-4.27
-4.64
-4.76
-4.48
-3.62
-2.17
-0.32
1.51
2.84
3.27
2.57
0.68
-2.37
-6.62
-12.16
-19.03
-27.11
-35.99
-44.96
-53.10
-59.47
-63.27
-64.07
-61.85
-57.06
-50.44
-42.92
-35.36
-28.39
-22.34
-17.25
-12.97
-9.31
-6.08
-3.11
-0.18
2.95
6.54
10.76
15.60
20.78
25.90
30.49
34.19
36.87
38.69
40.03
41.38
43.18
45.72
48.94
52.58
56.11
59.04
60.94
61.61
61.04
59.34
56.67
53.20
49.08
44.48
39.67
34.96
30.72
27.24
24.66
22.83
21.41
19.94
18.02
15.50
12.44
9.10
5.71
2.39
-0.94
-4.39
-7.96
-11.52
-14.74
-17.33
-19.15
-20.25
-20.87
-21.26
-21.65
-22.11
-22.71
-23.51
-24.66
-26.32
-28.59
-31.42
-34.63
-37.91
-40.98
-43.63
-45.74
-47.28
-48.26
-48.57
-48.00
-46.29
-43.22
-38.83
-33.47
-27.76
-22.40
-17.87
-14.36
-11.63
-9.31
-6.99
-4.51
-1.91
0.66
3.08
5.41
7.75
10.21
12.76
15.26
17.57
19.66
21.66
23.81
26.33
29.26
32.46
35.62
38.38
40.44
41.63
41.89
41.21
39.62
37.16
33.91
29.97
25.50
20.73
15.95
11.49
7.70
4.87
3.21
2.75
3.37
4.80
6.66
8.51
9.89
10.47
10.10
8.90
7.28
5.75
4.76
4.47
4.65
4.77
4.23
2.61
-0.18
-3.89
-8.10
-12.37
-16.45
-20.24
-23.73
-26.96
-29.92
-32.63
-35.20
-37.76
-40.42
-43.06
-45.29
-46.45
-45.84
-43.05
-38.17
-31.89
-25.30
-19.54
-15.44
-13.22
-12.55
-12.72
-13.01
-12.89
-12.13
-10.71
-8.77
-6.44
-3.79
-0.93
2.04
5.02
7.89
10.59
13.03
15.17
16.91
18.23
19.20
20.02
20.94
22.13
23.54
24.91
25.84
26.03
25.40
24.11
22.46
20.76
19.16
17.69
16.26
14.77
13.21
11.66
10.29
9.27
8.65
8.37
8.24
8.01
7.56
6.88
6.11
5.46
5.05
4.82
4.56
3.94
2.80
1.16
-0.66
-2.22
-3.13
-3.28
-2.87
-2.30
-2.04
-2.43
-3.61
-5.60
-8.33
-11.73
-15.65
-19.78
-23.56
-26.38
-27.79
-27.70
-26.48
-24.78
-23.24
-22.22
-21.64
-21.15
-20.33
-18.98
-17.18
-15.26
-13.53
-12.14
-10.87
-9.33
-7.07
-3.87
0.16
4.72
9.37
13.82
17.98
21.89
25.63
29.09
32.04
34.12
35.09
34.97
34.06
32.84
31.78
31.08
30.67
30.21
29.35
27.86
25.79
23.39
20.97
18.76
16.79
15.00
13.31
11.70
10.23
8.99
8.02
7.30
6.70
6.06
5.25
4.14
2.68
0.85
-1.35
-3.85
-6.53
-9.31
-12.12
-14.96
-17.87
-20.87
-23.91
-26.83
-29.50
-31.79
-33.71
-35.32
-36.70
-37.84
-38.66
-39.01
-38.88
-38.36
-37.66
-36.91
-36.01
-34.60
-32.27
-28.66
-23.71
-17.69
-11.12
-4.62
1.22
5.96
9.34
11.28
11.94
11.73
11.18
10.87
11.18
12.24
13.90
15.85
17.75
19.43
20.89
22.26
23.69
25.23
26.83
28.36
29.67
30.64
31.14
31.01
30.04
28.15
25.44
22.28
19.29
17.10
16.06
16.11
16.70
17.06
16.51
14.74
11.91
8.58
5.41
2.89
1.19
0.16
-0.51
-1.12
-1.81
-2.61
-3.43
-4.26
-5.10
-5.99
-6.96
-7.97
-8.95
-9.84
-10.67
-11.57
-12.76
-14.46
-16.75
-19.52
-22.50
-25.26
-27.39
-28.58
-28.80
-28.26
-27.35
-26.53
-26.10
-26.15
-26.51
-26.90
-26.99
-26.54
-25.50
-23.99
-22.22
-20.44
-18.83
-17.41
-16.04
-14.53
-12.68
-10.42
-7.88
-5.28
-2.94
-1.07
0.29
1.20
1.84
2.50
3.46
5.08
7.64
11.23
15.74
20.75
25.68
29.98
33.32
35.65
37.13
37.93
38.11
37.54
36.07
33.67
30.55
27.06
23.67
20.67
18.19
16.19
14.54
13.18
12.12
11.33
10.69
9.98
8.95
7.51
5.79
4.14
2.87
2.08
1.61
1.07
0.13
-1.32
-3.07
-4.69
-5.82
-6.33
-6.44
-6.63
-7.45
-9.31
-12.38
-16.52
-21.40
-26.59
-31.63
-36.11
-39.71
-42.20
-43.49
-43.64
-42.88
-41.53
-39.94
-38.29
-36.53
-34.51
-31.99
-28.91
-25.35
-21.51
-17.50
-13.27
-8.62
-3.38
2.39
8.37
14.04
18.86
22.52
25.03
26.64
27.69
28.45
29.04
29.41
29.49
29.18
28.47
27.38
26.02
24.47
22.88
21.43
20.30
19.63
19.41
19.51
19.66
19.59
19.13
18.26
17.04
15.55
13.80
11.81
9.76
8.01
7.06
7.31
8.81
11.16
13.62
15.42
16.10
15.63
14.40
12.88
11.44
10.26
9.30
8.47
7.66
6.75
5.62
4.04
1.76
-1.37
-5.36
-10.01
-14.90
-19.60
-23.80
-27.47
-30.92
-34.67
-39.26
-44.87
-51.09
-56.88
-60.84
-61.67
-58.65
-51.97
-42.65
-32.20
-22.12
-13.49
-6.87
-2.30
0.45
1.82
2.24
2.22
2.17
2.47
3.35
4.87
6.93
9.34
11.94
14.62
17.32
20.03
22.75
25.41
27.89
30.02
31.55
32.35
32.44
31.97
31.26
30.64
30.26
30.12
29.99
29.55
28.53
26.83
24.56
21.99
19.42
17.03
14.83
12.69
10.50
8.25
6.16
4.50
3.54
3.31
3.63
4.16
4.61
4.87
4.99
5.02
4.93
4.54
3.56
1.80
-0.70
-3.69
-6.83
-9.80
-12.47
-14.89
-17.25
-19.81
-22.72
-26.11
-29.93
-34.03
-38.09
-41.71
-44.42
-45.81
-45.67
-43.97
-40.97
-37.04
-32.61
-28.08
-23.75
-19.89
-16.72
-14.45
-13.13
-12.62
-12.55
-12.44
-11.88
-10.74
-9.16
-7.38
-5.58
-3.68
-1.29
2.08
6.74
12.61
19.20
25.72
31.39
35.71
38.49
39.83
39.98
39.15
37.59
35.56
33.40
31.48
29.93
28.67
27.30
25.37
22.58
18.92
14.71
10.46
6.61
3.47
1.20
-0.22
-0.90
-1.08
-1.07
-1.19
-1.61
-2.23
-2.67
-2.45
-1.20
1.06
3.93
6.72
8.70
9.34
8.47
6.21
2.89
-1.14
-5.58
-10.22
-14.93
-19.63
-24.32
-28.99
-33.64
-38.13
-42.17
-45.33
-47.13
-47.24
-45.67
-42.84
-39.39
-36.02
-33.10
-30.62
-28.24
-25.53
-22.22
-18.38
-14.35
-10.60
-7.56
-5.43
-4.21
-3.75
-3.77
-4.00
-4.17
-4.11
-3.74
-3.11
-2.35
-1.66
-1.25
-1.36
-2.19
-3.88
-6.49
-10.00
-14.39
-19.65
-25.83
-32.99
-41.07
-49.78
-58.60
-66.88
-74.07
-80.07
-85.25
-90.34
-96.06
-102.60
-109.44
-115.37
-119.10
-119.70
-116.91
-111.01
-102.50
-92.06
-80.53
-69.07
-58.89
-50.76
-44.36
-38.13
-29.76
-17.31
-0.40
19.45
39.30
56.10
67.89
74.23
75.98
74.46
70.89
66.16
61.02
56.22
52.36
49.73
47.95
46.02
42.70
37.08
28.99
19.13
8.72
-0.95
-9.02
-15.16
-19.61
-22.87
-25.50
-27.94
-30.58
-33.74
-37.61
-42.07
-46.35
-48.99
-48.11
-41.94
-29.36
-10.25
14.91
45.61
81.70
123.07
168.59
215.09
257.22
288.62
304.13
301.83
283.83
255.19
221.67
187.43
154.17
121.54
88.88
56.50
26.18
0.31
-19.43
-33.08
-42.53
-50.81
-60.96
-75.09
-93.87
-116.50
-141.16
-165.63
-187.95
-206.89
-222.10
-234.10
-243.83
-252.29
-260.18
-267.85
-275.17
-281.50
-285.60
-285.62
-279.36
-264.88
-241.28
-209.35
-171.27
-130.38
-90.35
-54.09
-23.10
2.63
24.11
42.65
59.43
75.54
91.58
107.65
123.44
138.48
152.26
164.29
174.08
181.33
186.62
190.41
192.67
192.95
190.70
185.64
177.74
167.09
154.16
141.57
131.34
124.00
118.71
114.42
110.62
107.46
105.13
104.26
109.19
122.20
141.75
163.25
182.03
195.53
203.67
207.56
209.81
219.24
241.26
275.19
315.28
355.28
391.53
423.14
449.90
473.13
501.74
540.40
586.41
631.36
667.09
689.50
698.87
697.05
635.44
495.27
295.89
83.91
-100.55
-241.88
-343.40
-409.45
-456.03
-491.05
-508.98
-505.49
-482.93
-450.29
-415.80
-385.50
-362.38
-348.22
-341.46
-333.47
-318.04
-294.49
-267.21
-241.49
-220.49
-204.43
-192.40
-181.62
-166.28
-143.76
-116.13
-88.69
-66.34
-51.49
-44.03
-43.34
-48.38
-57.14
-68.78
-83.28
-100.60
-119.68
-138.65
-155.74
-170.28
-181.78
-188.89
-189.58
-181.46
-162.83
-133.70
-96.59
-56.31
-18.78
11.12
30.85
40.57
42.38
39.01
32.67
24.72
16.01
7.45
0.12
-4.95
-7.40
-7.74
-7.16
-6.88
-7.53
-8.81
-9.77
-9.22
-6.37
-1.01
6.41
15.01
23.65
31.21
36.81
40.08
41.33
41.48
41.68
42.81
45.10
47.97
50.40
51.37
50.22
46.83
41.49
34.74
27.15
19.36
11.91
5.16
-0.81
-6.24
-11.55
-17.13
-23.19
-29.73
-36.64
-43.92
-51.65
-59.98
-69.00
-78.76
-89.37
-101.00
-113.87
-128.01
-143.00
-157.81
-170.94
-180.78
-185.99
-185.85
-180.29
-169.87
-155.62
-138.83
-121.01
-103.69
-88.40
-76.46
-68.78
-65.68
-66.78
-70.97
-76.51
-81.37
-83.57
-81.62
-74.96
-64.38
-52.06
-41.24
-35.17
-35.71
-42.29
-51.84
-59.97
-62.83
-58.82
-49.19
-37.31
-27.03
-21.18
-20.78
-25.36
-33.71
-44.46
-56.28
-67.67
-76.92
-82.44
-83.40
-80.14
-74.14
-67.47
-62.00
-58.73
-57.54
-57.37
-56.62
-53.79
-47.98
-39.07
-27.80
-15.47
-3.52
6.94
15.30
21.56
26.08
29.36
31.85
33.71
34.91
35.27
34.67
33.14
30.85
28.09
25.10
22.01
18.94
16.13
14.19
14.09
16.91
23.45
33.77
46.99
61.52
75.52
87.45
96.46
102.37
105.52
106.51
106.04
104.93
103.99
103.81
104.47
105.40
105.53
103.74
99.47
93.05
85.61
78.59
73.14
69.67
67.82
66.74
65.49
63.51
60.70
57.50
54.69
53.18
53.76
56.87
62.40
69.64
77.35
84.04
88.38
89.62
87.82
83.85
79.02
74.58
71.31
69.31
68.25
67.74
67.62
67.94
68.80
70.09
71.43
72.33
72.39
71.26
68.49
63.34
54.82
42.11
25.18
5.14
-15.87
-35.25
-50.72
-60.85
-65.22
-64.17
-58.59
-49.59
-38.50
-26.77
-15.68
-6.12
1.57
7.63
12.55
16.81
20.62
23.91
26.43
27.97
28.44
27.97
26.85
25.46
24.21
23.31
22.76
22.32
21.55
20.00
17.33
13.48
8.73
3.85
0.08
-1.02
2.04
10.10
22.77
38.38
54.37
68.12
77.89
83.27
85.07
84.67
83.27
81.48
79.38
76.89
74.14
71.58
69.76
69.03
69.33
70.21
71.07
71.42
71.00
69.80
67.97
65.64
62.74
58.86
53.16
44.54
32.03
15.38
-4.47
-25.30
-44.20
-58.47
-66.60
-68.78
-66.61
-62.29
-57.62
-53.41
-49.54
-45.44
-40.79
-35.77
-31.00
-27.14
-24.55
-23.19
-22.77
-23.07
-24.11
-26.18
-29.64
-34.72
-41.42
-49.43
-58.28
-67.46
-76.48
-84.94
-92.44
-98.51
-102.58
-104.04
-102.34
-97.18
-88.64
-77.28
-64.05
-50.06
-36.28
-23.33
-11.44
-0.61
9.09
17.36
23.70
27.60
28.87
27.74
24.84
20.92
16.59
12.24
7.99
3.92
0.14
-3.17
-5.96
-8.34
-10.71
-13.57
-17.37
-22.15
-27.45
-32.28
-35.35
-35.43
-31.73
-24.19
-13.60
-1.39
10.74
21.32
29.40
34.70
37.49
38.23
37.30
34.88
31.05
25.96
19.99
13.71
7.76
2.61
-1.55
-4.81
-7.30
-9.12
-10.25
-10.64
-10.32
-9.54
-8.70
-8.33
-8.80
-10.23
-12.24
-14.11
-14.89
-13.80
-10.51
-5.11
1.69
8.68
14.53
18.33
19.76
19.09
16.88
13.72
10.39
7.46
5.18
3.51
2.19
0.86
-0.82
-3.13
-6.18
-9.18
-11.31
-12.10
-11.66
-10.45
-8.95
-7.51
-6.40
-5.72
-3.67
1.21
9.23
19.41
30.41
41.42
52.16
62.53
72.28
84.50
101.27
122.11
143.92
163.19
177.81
187.31
192.12
192.98
196.30
206.96
225.62
248.42
270.36
288.20
301.05
309.44
314.44
324.53
346.11
379.90
420.63
461.78
499.69
534.19
567.07
553.68
468.78
318.15
137.45
-34.51
-175.98
-282.48
-358.31
-410.21
-444.49
-458.77
-451.39
-424.55
-387.15
-349.03
-317.29
-295.57
-284.67
-283.43
-283.83
-279.04
-266.82
-250.44
-235.22
-224.28
-218.55
-217.46
-219.79
-220.69
-216.41
-206.03
-191.64
-176.00
-160.71
-146.21
-132.38
-119.22
-105.37
-90.19
-74.26
-59.32
-46.96
-37.84
-31.87
-28.49
-27.11
-26.59
-26.13
-25.49
-25.09
-25.44
-26.85
-29.29
-32.38
-35.49
-37.89
-38.98
-38.43
-36.30
-32.96
-28.94
-24.82
-21.00
-17.61
-14.51
-11.33
-7.59
-2.86
3.13
10.35
18.36
26.40
33.54
38.98
42.29
43.52
43.10
41.60
39.53
37.18
34.74
32.37
30.30
28.73
27.66
26.82
25.66
23.63
20.48
16.43
12.07
8.10
5.07
3.20
2.48
2.79
4.11
6.56
10.36
15.73
22.75
31.38
41.37
52.36
63.81
75.10
85.55
94.48
101.40
106.06
108.49
108.95
107.86
105.62
102.58
98.94
94.80
90.25
85.34
80.16
74.80
69.29
63.62
57.72
51.50
44.91
37.93
30.60
23.03
15.42
8.06
1.26
-4.78
-10.09
-14.97
-19.94
-25.59
-32.28
-40.05
-48.60
-57.42
-65.98
-73.83
-80.75
-86.74
-92.19
-97.84
-104.72
-113.74
-125.25
-138.68
-152.60
-165.09
-174.28
-178.91
-178.47
-173.25
-164.06
-152.08
-138.70
-125.38
-113.39
-103.46
-95.64
-89.15
-82.68
-74.79
-64.38
-51.12
-35.50
-18.68
-2.13
12.83
25.35
35.26
42.87
48.76
53.47
57.36
60.62
63.42
65.96
68.53
71.34
74.40
77.40
79.73
80.65
79.48
75.81
69.65
61.42
51.79
41.55
31.50
22.34
14.65
8.84
5.08
3.25
2.89
3.27
3.52
2.88
0.89
-2.44
-6.62
-10.81
-14.03
-15.38
-14.35
-10.92
-5.61
0.61
6.55
11.09
13.40
13.15
10.55
6.29
1.27
-3.71
-8.19
-12.09
-15.60
-18.83
-21.64
-23.57
-24.11
-23.00
-20.43
-17.12
-14.01
-11.98
-11.55
-12.86
-15.69
-19.54
-23.67
-27.12
-28.86
-28.08
-24.55
-18.89
-12.42
-6.74
-3.08
-1.88
-2.80
-5.24
-8.81
-13.72
-20.49
-29.42
-40.04
-50.98
-60.35
-66.36
-67.98
-65.13
-58.57
-49.54
-39.52
-29.95
-22.06
-16.64
-13.71
-12.38
-11.06
-7.94
-1.74
7.70
19.31
31.01
40.38
45.40
44.88
38.71
27.70
13.36
-2.46
-17.95
-31.59
-42.35
-49.78
-53.81
-54.60
-52.27
-46.83
-38.33
-27.07
-13.74
0.68
15.12
28.70
40.90
51.50
60.38
67.35
72.19
74.75
75.20
74.04
72.08
70.22
69.19
69.28
70.31
71.64
72.38
71.65
68.85
63.76
56.53
47.49
37.00
25.28
12.51
-1.13
-15.27
-29.28
-42.33
-53.56
-62.29
-68.24
-71.57
-72.85
-72.78
-71.98
-70.84
-69.43
-67.73
-65.76
-63.69
-61.90
-60.75
-60.47
-61.13
-62.60
-64.63
-66.97
-69.35
-71.53
-73.36
-74.81
-76.05
-77.45
-79.53
-82.87
-87.90
-94.69
-102.78
-111.13
-118.28
-122.68
-123.02
-118.73
-110.10
-98.08
-83.81
-68.34
-52.41
-36.57
-21.45
-7.73
3.86
12.64
18.31
21.17
21.98
21.96
22.31
23.98
27.66
33.39
40.65
48.58
56.36
63.30
68.99
73.10
75.30
75.91
75.30
73.89
72.35
71.87
73.74
79.22
88.66
101.39
116.99
134.17
150.93
165.23
175.90
182.60
186.04
186.87
185.50
183.86
183.10
182.93
182.19
180.01
175.91
170.63
164.77
158.64
154.58
153.79
155.35
156.88
156.19
151.56
143.23
131.96
104.77
58.94
3.21
-48.39
-86.70
-107.08
-116.55
-120.58
-122.43
-123.64
-123.48
-121.04
-116.98
-113.13
-110.87
-110.93
-112.25
-113.79
-114.97
-113.87
-109.59
-102.92
-95.67
-89.32
-84.82
-81.70
-79.50
-78.03
-76.21
-73.54
-70.47
-67.89
-66.10
-64.69
-62.14
-57.04
-48.66
-36.69
-21.91
-6.14
8.51
20.43
28.86
34.06
36.60
37.03
35.90
33.55
30.07
25.53
20.16
14.31
8.45
2.92
-2.19
-6.98
-11.64
-16.40
-21.39
-26.69
-32.29
-38.11
-43.82
-48.83
-52.16
-52.61
-49.06
-40.87
-28.17
-11.89
6.39
24.84
41.79
56.01
66.83
74.03
77.77
78.43
76.49
72.49
66.95
60.25
52.66
44.38
35.57
26.49
17.52
9.11
1.65
-4.68
-10.00
-14.74
-19.51
-24.91
-31.27
-38.53
-46.09
-52.96
-57.96
-60.10
-58.86
-54.41
-47.58
-39.62
-31.83
-25.25
-20.48
-17.60
-16.38
-16.44
-17.39
-18.93
-20.85
-22.93
-24.99
-26.85
-28.38
-29.55
-30.35
-30.67
-30.32
-28.97
-26.29
-22.13
-16.64
-10.24
-3.54
2.99
9.14
15.16
21.65
29.34
38.78
50.07
62.73
75.80
88.05
98.25
105.45
109.08
108.98
105.34
98.60
89.41
78.56
66.87
55.11
43.85
33.42
23.95
15.40
7.77
1.11
-4.44
-8.71
-11.63
-13.33
-14.15
-14.56
-15.04
-16.00
-17.65
-19.98
-22.70
-25.20
-26.69
-26.32
-23.48
-18.12
-10.86
-2.94
4.18
9.11
10.98
9.51
4.98
-1.99
-10.65
-20.24
-30.04
-39.34
-47.49
-53.95
-58.34
-60.50
-60.43
-58.31
-54.42
-49.14
-42.91
-36.29
-29.89
-24.37
-20.32
-18.16
-17.93
-19.25
-21.22
-22.57
-21.97
-18.39
-11.44
-1.49
10.43
22.91
34.54
44.23
51.34
55.68
57.41
56.90
54.64
51.16
46.91
42.25
37.41
32.49
27.57
22.66
17.83
13.11
8.57
4.24
0.15
-3.74
-7.55
-11.46
-15.62
-20.01
-24.26
-27.55
-28.79
-26.95
-21.39
-12.23
-0.38
12.72
25.47
36.48
44.88
50.32
52.83
52.63
50.07
45.55
39.54
32.61
25.33
18.17
11.46
5.29
-0.29
-5.28
-9.54
-12.88
-15.12
-16.22
-16.31
-15.76
-15.08
-14.82
-15.46
-17.25
-20.03
-23.20
-25.72
-26.47
-24.56
-19.70
-12.31
-3.38
5.86
14.28
21.08
25.86
28.50
29.11
27.98
25.53
22.35
19.04
16.15
14.02
12.73
12.11
11.83
11.45
10.62
9.10
6.88
4.10
0.93
-2.56
-6.51
-11.20
-16.85
-23.50
-30.72
-37.72
-43.41
-46.73
-46.93
-43.77
-37.67
-29.59
-20.78
-12.53
-5.89
-1.52
0.39
-0.01
-2.31
-5.93
-10.22
-14.57
-18.52
-21.85
-24.57
-26.86
-28.95
-30.91
-32.66
-34.00
-34.77
-34.97
-34.85
-34.77
-35.16
-36.34
-38.46
-41.43
-44.78
-47.71
-49.14
-47.99
-43.49
-35.55
-24.87
-12.82
-1.01
9.04
16.38
20.64
21.98
20.90
18.07
14.15
9.78
5.54
1.86
-0.97
-2.85
-3.85
-4.16
-3.98
-3.44
-2.59
-1.39
0.18
2.04
3.97
5.54
6.31
5.95
4.48
2.41
0.70
0.60
3.22
9.15
18.12
29.06
40.41
50.61
58.55
63.78
66.41
66.84
65.46
62.59
58.48
53.40
47.80
42.20
37.09
32.77
29.27
26.45
23.99
21.64
19.22
16.71
14.20
11.78
9.39
6.82
3.68
-0.41
-5.61
-11.64
-17.69
-22.55
-24.95
-23.95
-19.31
-11.62
-2.11
7.72
16.51
23.30
27.64
29.46
28.87
26.09
21.43
15.37
8.56
1.75
-4.31
-9.08
-12.29
-14.02
-14.55
-14.29
-13.57
-12.60
-11.44
-10.11
-8.67
-7.38
-6.62
-6.84
-8.37
-11.26
-15.16
-19.31
-22.68
-24.13
-22.70
-17.89
-9.84
0.65
12.26
23.48
32.92
39.58
42.94
42.96
39.94
34.47
27.31
19.31
11.34
4.11
-1.91
-6.56
-9.88
-12.12
-13.58
-14.58
-15.41
-16.31
-17.50
-19.13
-21.33
-24.21
-27.84
-32.25
-37.27
-42.43
-46.89
-49.57
-49.37
-45.55
-38.00
-27.34
-14.75
-1.65
10.64
21.11
29.16
34.56
37.38
38.01
37.04
35.31
33.69
32.87
33.23
34.65
36.56
38.10
38.34
36.57
32.52
26.34
18.52
9.70
0.42
-9.00
-18.47
-28.03
-37.71
-47.35
-56.46
-64.23
-69.56
-71.35
-68.82
-61.83
-51.07
-37.97
-24.36
-11.99
-2.14
4.60
8.22
9.07
7.66
4.54
0.31
-4.29
-8.54
-11.76
-13.56
-13.89
-13.04
-11.41
-9.45
-7.51
-5.77
-4.38
-3.44
-3.10
-3.57
-5.10
-7.98
-12.41
-18.28
-25.05
-31.65
-36.66
-38.66
-36.76
-30.83
-21.58
-10.32
1.48
12.55
21.96
29.10
33.58
35.11
33.62
29.31
22.81
15.13
7.48
0.96
-3.67
-6.16
-6.77
-5.98
-4.31
-2.07
0.75
4.26
8.58
13.58
18.78
23.39
26.47
27.12
24.73
19.19
11.00
1.32
-8.20
-15.78
-20.01
-20.28
-16.92
-11.05
-4.08
2.72
8.59
13.25
16.80
19.44
21.47
23.31
25.50
28.69
33.35
39.56
46.73
53.82
59.55
62.84
63.10
60.29
54.73
46.88
37.13
25.64
12.48
-2.36
-18.73
-36.28
-54.32
-71.72
-86.98
-98.46
-104.74
-105.03
-99.47
-89.11
-75.67
-61.12
-47.16
-35.03
-25.41
-18.49
-14.06
-11.62
-10.44
-9.64
-8.39
-6.05
-2.37
2.51
8.11
13.80
18.96
23.13
26.03
27.64
28.04
27.44
26.05
24.00
21.28
17.82
13.54
8.59
3.45
-1.03
-3.79
-3.89
-0.85
5.10
13.07
21.78
29.90
36.44
40.90
43.18
43.46
41.96
38.89
34.53
29.31
23.81
18.69
14.50
11.47
9.45
7.99
6.52
4.58
2.00
-1.10
-4.37
-7.45
-10.15
-12.61
-15.23
-18.57
-23.04
-28.73
-35.22
-41.58
-46.55
-48.81
-47.36
-41.82
-32.56
-20.69
-7.76
4.61
15.09
22.83
27.48
29.13
28.17
25.19
20.97
16.32
12.03
8.68
6.57
5.68
5.77
6.55
7.74
9.14
10.57
11.84
12.68
12.78
11.83
9.61
6.01
1.08
-4.89
-11.37
-17.50
-22.08
-23.76
-21.35
-14.15
-2.33
12.99
29.95
46.46
60.60
71.03
77.07
78.62
75.96
69.70
60.68
49.97
38.72
27.95
18.35
10.18
3.25
-2.81
-8.43
-13.90
-19.34
-24.72
-29.96
-34.93
-39.57
-43.87
-47.99
-52.22
-56.95
-62.42
-68.47
-74.34
-78.69
-79.93
-76.71
-68.45
-55.54
-39.20
-21.13
-2.97
14.05
29.18
42.03
52.36
59.89
64.36
65.54
63.47
58.54
51.43
43.02
34.18
25.55
17.43
9.87
2.74
-4.01
-10.25
-15.70
-20.05
-23.22
-25.40
-27.13
-29.07
-31.83
-35.73
-40.66
-46.00
-50.64
-53.18
-52.24
-46.89
-36.91
-23.01
-6.70
10.04
25.21
37.27
45.34
49.28
49.56
46.98
42.44
36.77
30.58
24.35
18.39
12.97
8.32
4.64
1.99
0.28
-0.76
-1.52
-2.40
-3.71
-5.56
-7.91
-10.54
-13.24
-15.84
-18.33
-20.81
-23.45
-26.48
-30.03
-34.17
-38.69
-43.00
-46.07
-46.54
-43.10
-34.96
-22.32
-6.48
10.50
26.35
39.33
48.58
54.17
56.75
57.03
55.49
52.34
47.72
41.99
35.85
30.25
26.05
23.65
22.81
22.70
22.19
20.27
16.49
11.05
4.69
-1.69
-7.41
-12.25
-16.51
-20.70
-25.37
-30.87
-37.28
-44.38
-51.58
-57.84
-61.75
-61.82
-56.99
-47.14
-33.33
-17.59
-2.30
10.54
19.77
25.20
27.33
26.93
24.76
21.48
17.68
13.94
10.82
8.74
7.86
8.10
9.09
10.41
11.63
12.44
12.70
12.39
11.52
10.12
8.19
5.73
2.74
-0.73
-4.59
-8.83
-13.50
-18.76
-24.76
-31.40
-38.10
-43.73
-46.79
-45.84
-40.04
-29.61
-15.84
-0.74
13.53
25.34
33.83
38.94
41.12
40.93
38.82
35.06
29.85
23.44
16.19
8.60
1.15
-5.77
-11.98
-17.48
-22.42
-26.94
-31.16
-35.09
-38.62
-41.56
-43.66
-44.67
-44.38
-42.68
-39.61
-35.41
-30.41
-25.04
-19.60
-14.13
-8.32
-1.50
7.11
18.02
31.16
45.68
60.11
72.75
82.09
87.23
87.91
84.46
77.54
67.97
56.65
44.54
32.58
21.58
12.07
4.23
-2.06
-7.14
-11.46
-15.42
-19.25
-23.00
-26.58
-29.93
-33.12
-36.26
-39.53
-43.08
-47.01
-51.38
-56.18
-61.31
-66.50
-71.03
-73.62
-72.72
-67.06
-56.23
-40.96
-22.98
-4.51
12.07
25.17
34.37
40.12
43.11
43.79
42.30
38.72
33.27
25.91
17.09
7.99
-0.03
-6.05
-10.03
-12.45
-13.89
-14.72
-16.05
-18.38
-21.18
-23.36
-24.22
-23.92
-23.22
-22.97
-23.94
-28.03
-36.37
-48.58
-62.90
-77.24
-89.84
-99.36
-104.88
-97.59
-74.46
-40.78
-6.98
18.90
34.67
42.18
44.66
44.99
44.77
43.16
39.28
33.44
27.21
22.26
19.53
18.58
19.42
21.67
23.77
24.57
23.94
22.61
21.32
20.21
19.04
17.59
15.59
12.19
6.88
-0.20
-8.47
-17.03
-25.38
-33.18
-39.86
-44.62
-46.74
-45.39
-39.93
-30.25
-17.13
-2.14
12.91
26.61
38.14
47.20
53.87
58.43
61.06
61.85
60.83
58.20
54.48
50.33
46.38
42.94
39.83
36.57
32.56
27.46
21.41
14.97
8.85
3.57
-0.80
-4.68
-8.68
-13.41
-19.22
-26.16
-33.94
-42.01
-49.48
-55.19
-57.90
-56.62
-51.03
-41.70
-30.06
-17.99
-7.31
0.70
5.45
6.98
5.65
2.02
-3.34
-9.74
-16.34
-22.22
-26.57
-28.83
-28.91
-27.18
-24.31
-21.03
-17.85
-14.89
-11.97
-8.79
-5.11
-1.05
3.01
6.46
8.67
9.19
7.85
4.84
0.84
-3.05
-5.41
-4.76
-0.08
8.85
21.20
35.33
49.26
61.32
70.50
76.50
79.52
79.88
77.80
73.46
67.09
59.24
50.72
42.45
35.16
29.22
24.60
20.93
17.78
14.84
11.92
8.99
6.04
3.04
-0.09
-3.38
-6.77
-10.08
-13.11
-15.77
-18.18
-20.64
-23.45
-26.57
-29.43
-30.98
-29.94
-25.36
-17.10
-6.00
6.33
18.06
27.66
34.28
37.82
38.67
37.34
34.30
29.93
24.66
19.10
14.00
10.13
8.04
7.82
9.09
11.15
13.23
14.71
15.36
15.33
14.98
14.70
14.76
15.12
15.53
15.56
14.72
12.61
8.99
3.93
-2.10
-8.17
-13.09
-15.64
-14.95
-10.86
-3.96
4.53
13.10
20.39
25.41
27.67
27.12
23.98
18.69
11.77
3.89
-4.22
-11.77
-18.11
-22.75
-25.56
-26.74
-26.79
-26.34
-26.02
-26.23
-27.13
-28.60
-30.44
-32.47
-34.68
-37.29
-40.64
-45.11
-50.85
-57.71
-65.07
-71.89
-76.86
-78.70
-76.49
-70.06
-60.03
-47.74
-34.85
-22.92
-13.10
-5.99
-1.79
-0.46
-1.85
-5.63
-11.29
-18.00
-24.78
-30.72
-35.22
-38.15
-39.78
-40.58
-41.00
-41.30
-41.45
-41.26
-40.50
-39.03
-36.86
-34.17
-31.28
-28.55
-26.31
-24.79
-23.94
-23.38
-22.28
-19.55
-14.13
-5.43
6.31
20.02
34.04
46.64
56.55
63.20
66.71
67.59
66.44
63.69
59.65
54.59
48.86
42.94
37.36
32.57
28.80
26.01
23.96
22.28
20.71
19.15
17.69
16.58
15.97
15.88
16.07
16.07
15.36
13.48
10.20
5.49
-0.36
-6.76
-12.84
-17.51
-19.62
-18.31
-13.25
-4.87
5.77
17.20
27.98
37.02
43.76
48.11
50.32
50.78
50.04
48.69
47.47
47.09
48.16
50.91
55.10
60.05
64.78
68.29
69.88
69.24
66.53
62.21
56.87
51.02
44.93
38.65
31.98
24.61
16.29
6.96
-3.07
-13.07
-21.92
-28.36
-31.30
-30.17
-25.15
-17.12
-7.41
2.61
11.80
19.42
25.03
28.40
29.35
27.86
24.10
18.61
12.23
5.84
0.18
-4.41
-8.07
-11.22
-14.41
-18.05
-22.38
-27.45
-33.16
-39.39
-46.02
-52.94
-60.11
-67.58
-75.43
-83.68
-91.98
-99.44
-104.65
-105.89
-101.74
-91.55
-75.83
-56.15
-34.77
-14.11
3.76
17.34
25.81
29.05
27.53
22.21
14.39
5.49
-3.26
-10.95
-17.08
-21.51
-24.39
-26.03
-26.83
-27.14
-27.22
-27.16
-26.96
-26.64
-26.35
-26.47
-27.50
-29.83
-33.49
-37.85
-41.72
-43.50
-41.72
-35.46
-24.73
-10.51
5.57
21.64
36.13
48.05
57.08
63.32
67.10
68.71
68.37
66.29
62.78
58.34
53.54
48.93
44.90
41.55
38.81
36.44
34.24
32.10
29.99
27.91
25.85
23.65
21.13
18.03
14.12
9.28
3.47
-3.16
-10.28
-17.32
-23.45
-27.62
-28.77
-26.11
-19.45
-9.33
3.01
15.99
28.05
38.10
45.68
50.85
53.83
54.81
53.84
51.05
46.74
41.42
35.86
30.84
26.86
23.94
21.62
19.37
16.85
14.08
11.15
8.32
5.77
3.50
1.25
-1.47
-5.06
-9.65
-15.16
-21.50
-28.36
-35.08
-40.82
-44.78
-46.53
-45.92
-43.18
-37.95
-31.00
-24.14
-19.19
-16.85
-16.70
-17.96
-20.26
-23.19
-26.37
-29.59
-32.53
-34.84
-36.41
-36.60
-35.75
-34.61
-33.92
-34.21
-35.73
-38.26
-41.14
-43.59
-45.07
-45.58
-45.50
-45.38
-45.84
-47.40
-50.12
-53.44
-56.21
-57.05
-54.89
-49.14
-39.97
-28.24
-15.35
-2.79
8.20
16.84
22.78
26.01
26.85
25.89
23.88
21.55
19.58
18.43
18.32
19.24
20.98
23.27
25.78
28.25
30.41
32.07
33.16
33.71
33.77
33.39
32.49
30.90
28.39
24.74
19.84
13.76
6.83
-0.33
-6.80
-11.38
-12.85
-10.31
-3.53
6.91
19.71
33.24
46.00
56.98
65.69
72.01
76.03
77.86
77.66
75.75
72.69
69.14
65.73
62.89
60.82
59.51
58.75
58.17
57.16
54.92
50.57
43.48
33.44
20.93
6.94
-7.22
-20.37
-31.69
-40.95
-48.43
-54.76
-60.64
-66.63
-72.88
-79.02
-84.22
-87.34
-87.39
-83.79
-76.62
-66.65
-55.13
-43.43
-32.78
-24.03
-17.64
-13.73
-12.19
-12.78
-15.09
-18.51
-22.31
-25.70
-28.02
-28.94
-28.55
-27.33
-25.88
-24.73
-24.09
-23.82
-23.60
-23.10
-22.15
-20.83
-19.35
-17.90
-16.69
-15.85
-15.53
-15.82
-16.62
-17.52
-17.74
-16.31
-12.42
-5.71
3.50
14.29
25.39
35.57
43.88
49.76
52.98
53.60
51.84
48.11
42.96
37.07
31.10
25.60
20.89
17.03
13.87
11.13
8.51
5.81
3.04
0.34
-2.03
-3.90
-5.31
-6.48
-7.81
-9.70
-12.44
-16.04
-20.30
-24.87
-29.32
-33.08
-35.49
-35.87
-33.71
-28.95
-22.00
-13.72
-5.32
2.00
7.31
10.18
10.61
8.88
5.42
0.90
-3.91
-8.26
-11.57
-13.46
-13.76
-12.59
-10.34
-7.43
-3.97
0.13
5.03
10.77
17.24
24.18
31.30
38.29
43.59
45.84
44.70
41.26
37.11
33.49
30.95
29.75
29.86
31.16
33.45
36.22
38.65
39.81
39.12
36.30
32.10
26.31
19.01
10.61
1.76
-7.06
-15.35
-22.52
-28.22
-32.14
-34.35
-35.06
-34.60
-33.38
-32.21
-31.86
-31.41
-30.52
-28.99
-26.97
-24.72
-22.53
-20.67
-19.82
-20.53
-22.97
-27.07
-32.30
-37.90
-42.94
-46.72
-46.34
-40.87
-31.81
-21.91
-13.44
-7.29
-3.65
-2.66
-4.50
-8.79
-15.15
-22.20
-28.00
-30.93
-30.22
-26.29
-20.34
-13.91
-7.94
-2.95
1.21
4.69
7.42
9.15
9.72
10.55
12.05
14.43
17.62
20.40
22.09
22.50
22.12
22.06
23.68
27.80
34.52
42.77
50.75
56.74
59.60
59.10
55.67
50.03
42.66
33.94
24.19
13.86
3.74
-5.29
-12.49
-17.51
-20.50
-22.10
-22.99
-23.71
-24.53
-25.41
-26.14
-26.51
-26.46
-26.16
-26.03
-26.65
-28.51
-31.89
-36.63
-42.00
-46.85
-49.81
-49.74
-46.11
-39.18
-29.92
-19.75
-10.18
-2.40
2.81
5.15
4.67
1.68
-3.26
-9.32
-15.50
-20.79
-24.39
-25.86
-25.16
-22.62
-18.71
-13.86
-8.22
-1.85
5.07
12.15
18.79
24.32
28.17
30.02
29.88
28.34
26.07
23.80
22.30
22.48
25.23
31.07
39.88
50.84
63.17
75.58
86.63
95.08
100.28
102.24
101.32
98.05
93.08
87.96
83.78
80.82
78.72
77.01
75.34
73.43
71.09
68.25
66.00
64.75
63.85
62.05
58.36
52.46
44.56
35.18
18.46
-5.87
-32.65
-54.74
-68.04
-72.52
-70.76
-66.10
-61.61
-59.30
-58.78
-59.15
-59.82
-60.69
-61.71
-62.78
-63.74
-64.33
-64.31
-62.67
-59.16
-54.54
-50.13
-46.92
-45.26
-44.87
-45.13
-45.35
-44.56
-42.39
-39.12
-35.65
-32.18
-28.67
-24.94
-20.85
-16.50
-11.92
-7.34
-3.10
0.64
4.13
7.83
12.12
16.98
21.88
26.02
28.54
28.82
26.74
22.74
17.57
12.02
6.71
1.91
-2.29
-5.93
-9.00
-11.40
-12.98
-13.64
-13.42
-12.36
-10.78
-9.13
-7.91
-7.42
-7.70
-8.55
-9.65
-10.79
-11.93
-13.35
-15.45
-18.58
-22.78
-27.66
-32.32
-35.55
-36.09
-33.01
-26.03
-15.65
-3.10
9.96
21.86
31.28
37.55
40.60
40.85
38.99
35.79
32.03
28.36
25.31
23.17
21.94
21.29
20.64
19.32
16.81
12.92
7.84
2.08
-3.70
-8.89
-13.14
-16.39
-18.86
-21.03
-23.40
-26.35
-29.94
-33.78
-37.07
-38.74
-37.80
-33.65
-26.38
-16.78
-6.14
4.12
12.80
19.16
22.92
24.19
23.32
20.79
17.22
13.38
10.06
7.91
7.18
7.64
8.63
9.34
9.18
7.97
5.97
3.69
1.58
-0.12
-1.44
-2.60
-3.87
-5.42
-7.28
-9.29
-11.08
-12.14
-11.87
-9.69
-5.33
1.02
8.68
16.67
23.96
29.77
33.60
35.30
35.07
33.22
30.06
25.93
21.24
16.50
12.16
8.57
5.83
4.09
3.27
3.20
3.64
4.36
5.18
5.90
6.29
6.17
5.77
5.43
5.45
5.91
6.70
7.58
8.43
9.42
9.52
8.74
7.94
8.20
9.92
12.66
15.62
18.04
19.37
19.14
17.16
13.21
7.32
-0.06
-7.99
-15.17
-20.40
-22.88
-22.50
-19.76
-15.92
-12.74
-11.80
-13.77
-18.01
-22.99
-27.01
-28.87
-28.22
-25.69
-22.41
-19.43
-17.25
-15.70
-14.30
-12.46
-9.67
-5.42
0.63
8.51
17.85
27.78
37.30
45.34
51.17
54.64
56.08
56.12
55.30
54.02
51.59
47.87
42.86
36.79
30.16
23.49
17.13
10.96
4.40
-3.43
-13.11
-24.75
-37.58
-49.99
-59.94
-65.68
-66.45
-62.90
-56.84
-50.47
-45.54
-42.57
-40.71
-38.20
-33.31
-25.17
-14.16
-1.66
10.74
21.72
30.56
37.06
41.42
44.28
47.00
51.60
60.03
72.95
88.55
102.59
109.89
106.73
92.88
71.96
49.73
31.40
19.28
12.39
7.75
2.60
-3.94
-10.82
-16.20
-19.07
-19.93
-20.48
-22.46
-26.60
-32.23
-37.69
-41.20
-41.71
-39.27
-34.78
-29.52
-24.52
-20.24
-16.49
-12.79
-8.72
-4.28
0.10
3.70
5.89
6.43
5.65
4.38
3.49
3.60
4.82
6.77
8.92
10.89
12.58
14.13
15.75
17.52
19.43
21.39
23.40
25.45
27.47
29.19
30.27
30.49
30.00
29.37
29.29
30.30
32.41
35.14
37.73
39.57
40.41
40.28
39.70
39.52
40.55
43.29
47.74
53.56
60.09
66.48
71.46
73.84
72.80
68.02
59.64
48.26
34.84
20.55
6.45
-7.31
-20.67
-33.43
-45.27
-56.16
-66.40
-76.35
-86.16
-95.58
-105.49
-115.55
-123.90
-128.28
-127.50
-122.02
-113.32
-103.08
-92.68
-86.38
-86.26
-91.05
-97.65
-103.74
-108.63
-112.74
-116.88
-122.01
-134.56
-158.10
-190.87
-227.73
-264.18
-298.06
-328.91
-356.96
-382.64
-413.08
-451.00
-491.57
-525.42
-544.63
-545.72
-529.21
-498.24
-413.53
-267.78
-88.64
81.46
215.59
308.87
367.65
400.25
413.62
413.33
398.66
370.12
333.32
296.45
265.22
241.43
224.80
214.71
210.65
206.78
200.10
192.17
186.74
185.91
189.20
194.78
200.71
205.46
200.63
182.20
153.04
120.64
91.56
68.85
52.96
43.22
38.74
36.77
35.55
34.33
33.16
31.90
30.32
28.48
26.48
24.14
20.17
14.05
5.18
-5.65
-16.91
-26.62
-32.91
-34.59
-31.48
-24.85
-16.83
-11.20
-11.77
-21.61
-41.71
-69.80
-100.05
-125.42
-138.05
-132.40
-107.54
-67.33
-19.62
26.76
65.23
93.38
112.98
127.15
137.95
145.27
147.61
142.94
130.47
111.86
87.51
61.35
37.21
17.33
2.34
-7.83
-14.18
-18.40
-22.61
-29.16
-40.34
-58.78
-86.32
-122.47
-158.51
-182.20
-184.32
-164.30
-129.24
-88.52
-50.50
-20.75
-1.51
8.00
9.79
6.41
0.90
-3.52
-4.12
-0.16
6.81
13.79
17.79
16.88
10.19
-1.19
-14.71
-27.19
-36.18
-40.47
-39.87
-34.85
-26.75
-17.60
-9.24
-3.12
0.18
0.85
-0.11
-1.14
-0.46
3.26
9.08
15.94
22.45
27.34
29.91
30.26
29.40
28.83
29.95
33.48
39.56
47.68
56.92
66.32
75.04
82.50
88.35
92.36
94.29
94.05
91.57
86.91
80.37
72.60
64.48
56.94
50.62
45.62
41.49
37.24
31.65
23.86
13.67
1.71
-10.76
-22.22
-31.33
-37.25
-39.90
-40.01
-38.87
-37.98
-38.43
-40.40
-42.98
-44.43
-42.96
-37.48
-28.14
-16.32
-3.97
7.09
15.78
21.77
25.27
26.63
26.21
24.42
21.90
19.61
18.60
19.70
23.08
28.07
33.35
37.38
39.00
37.92
34.78
30.76
27.08
24.43
22.80
21.69
20.50
18.90
16.94
14.88
12.97
11.32
9.93
8.77
7.85
7.17
6.65
6.03
4.98
3.23
0.75
-2.28
-5.55
-8.83
-11.99
-15.05
-18.00
-20.83
-23.52
-26.14
-28.88
-32.01
-35.73
-40.00
-44.57
-49.07
-53.21
-56.90
-60.22
-63.29
-66.10
-68.56
-70.50
-71.77
-72.23
-71.64
-69.62
-65.68
-59.41
-50.74
-40.05
-28.10
-15.85
-4.19
6.20
14.93
21.77
26.68
29.75
31.25
31.59
31.29
30.81
30.53
30.58
30.97
31.55
32.11
32.43
32.30
31.60
30.32
28.54
26.48
24.35
22.32
20.44
18.70
17.05
15.48
14.04
12.81
11.80
10.88
9.84
8.47
6.71
4.66
2.52
0.47
-1.45
-3.38
-5.51
-7.97
-10.76
-13.76
-16.81
-19.77
-22.56
-25.06
-27.11
-28.52
-29.22
-29.32
-29.09
-28.86
-28.82
-28.91
-28.87
-28.46
-27.61
-26.51
-25.57
-25.23
-25.81
-27.36
-29.72
-32.56
-35.49
-38.16
-40.31
-41.85
-42.76
-43.12
-43.02
-42.48
-41.47
-39.84
-37.41
-33.99
-29.47
-23.90
-17.56
-10.85
-4.22
1.98
7.62
12.70
17.35
21.57
25.18
27.76
28.78
27.79
24.65
19.74
14.00
8.82
5.69
5.73
9.35
15.98
24.28
32.51
39.04
42.82
43.51
41.45
37.29
31.81
25.67
19.40
13.41
8.07
3.67
0.42
-1.59
-2.39
-2.12
-1.00
0.69
2.63
4.52
6.11
7.27
7.93
8.11
7.79
6.95
5.46
3.28
0.42
-2.92
-6.35
-9.39
-11.60
-12.69
-12.64
-11.67
-10.21
-8.72
-7.59
-7.01
-6.98
-7.38
-8.06
-8.94
-10.01
-11.28
-12.76
-14.35
-15.86
-17.07
-17.83
-18.13
-18.08
-17.90
-17.74
-17.67
-17.68
-17.82
-18.27
-19.12
-20.14
-20.48
-18.67
-13.05
-2.40
13.42
33.35
55.30
76.94
96.25
111.91
123.23
129.89
131.66
128.47
120.58
108.84
94.73
80.09
66.67
55.68
47.44
41.45
36.74
32.29
27.51
22.38
17.32
12.91
9.52
7.18
5.59
4.31
2.92
1.12
-1.30
-4.49
-8.53
-13.34
-18.64
-23.96
-28.84
-32.96
-36.26
-38.86
-40.92
-42.41
-43.17
-42.99
-41.87
-40.12
-38.30
-37.05
-36.78
-37.60
-39.30
-41.52
-43.87
-46.13
-48.24
-50.31
-52.53
-55.09
-58.05
-61.22
-64.22
-66.46
-67.52
-67.21
-65.78
-63.75
-61.65
-59.65
-57.50
-54.44
-49.40
-41.16
-28.62
-11.17
10.90
35.98
61.18
82.90
97.85
104.18
102.13
93.82
82.32
70.49
60.11
51.69
44.90
39.18
34.16
29.75
25.89
22.43
19.07
15.53
11.72
7.80
4.10
0.92
-1.58
-3.45
-4.81
-5.71
-6.12
-5.98
-5.33
-4.38
-3.58
-3.40
-4.16
-5.94
-8.54
-11.63
-14.89
-18.04
-20.85
-23.13
-24.69
-25.39
-25.31
-24.72
-24.09
-23.91
-24.49
-25.84
-27.60
-29.19
-30.03
-29.77
-28.47
-26.53
-24.54
-23.01
-22.14
-21.72
-21.22
-20.00
-17.63
-14.13
-10.03
-6.17
-3.39
-2.12
-2.13
-2.70
-2.89
-2.05
-0.11
2.41
4.67
5.85
5.49
3.64
0.94
-1.36
-1.46
2.55
11.98
26.71
44.72
62.36
75.40
80.48
76.24
63.55
44.94
23.38
1.28
-19.99
-39.81
-57.81
-73.28
-84.98
-91.36
-91.03
-83.34
-68.81
-49.23
-27.32
-6.08
12.05
25.68
34.60
39.39
40.85
39.56
35.77
29.69
21.91
13.59
6.36
1.68
0.30
1.87
5.03
8.02
9.46
8.93
7.05
5.04
4.04
4.54
6.26
8.40
10.07
10.80
10.61
9.93
9.31
9.13
9.47
10.11
10.63
10.59
9.73
8.07
5.81
3.30
0.75
-1.88
-4.90
-8.73
-13.65
-19.54
-25.80
-31.54
-35.90
-38.43
-39.32
-39.33
-39.55
-40.94
-44.08
-49.04
-55.41
-62.43
-69.15
-74.57
-77.84
-78.49
-76.71
-73.39
-69.89
-67.45
-66.50
-66.22
-64.67
-59.49
-48.93
-32.61
-11.75
11.23
33.60
53.02
67.84
77.12
80.30
77.24
68.43
55.19
39.75
24.76
12.64
4.90
1.86
2.79
6.33
10.99
15.42
18.57
19.69
18.39
14.67
8.90
1.83
-5.62
-12.38
-17.38
-19.63
-18.37
-13.44
-5.41
4.32
13.83
21.25
25.41
26.12
24.22
21.16
18.37
16.83
16.86
18.13
19.99
21.78
22.98
23.34
22.89
21.90
20.78
19.93
19.59
19.72
20.00
20.05
19.48
18.20
16.32
14.14
11.94
9.84
7.67
5.05
1.49
-3.45
-9.95
-17.77
-26.10
-33.69
-39.09
-41.19
-39.68
-35.36
-29.90
-25.26
-22.87
-23.17
-25.53
-28.70
-31.57
-33.74
-35.64
-38.16
-42.05
-47.42
-53.51
-58.86
-61.75
-60.67
-54.83
-44.41
-30.69
-15.87
-2.76
5.81
7.84
3.05
-6.49
-16.49
-21.45
-16.60
0.18
27.16
59.11
89.03
110.71
120.80
119.61
110.25
96.85
82.74
69.67
58.11
48.21
40.59
36.22
35.73
38.60
42.80
45.45
44.09
37.80
27.72
16.39
6.50
-0.29
-3.97
-5.81
-7.50
-10.21
-14.16
-18.71
-22.88
-25.78
-26.99
-26.56
-24.89
-22.56
-20.17
-18.22
-17.12
-17.11
-18.27
-20.48
-23.40
-26.63
-29.77
-32.72
-35.67
-39.13
-43.75
-49.98
-57.81
-66.57
-75.08
-82.00
-86.23
-87.33
-85.72
-82.59
-79.61
-78.35
-79.86
-84.09
-89.81
-94.70
-95.91
-90.86
-78.01
-57.39
-30.57
-0.27
30.50
59.16
84.01
104.23
119.55
129.82
134.80
134.24
128.26
117.64
103.90
88.90
74.45
61.75
51.18
42.40
34.75
27.76
21.31
15.61
10.76
6.47
2.13
-2.62
-7.40
-10.83
-11.09
-6.81
1.94
13.46
25.08
34.28
39.73
41.58
41.04
39.53
38.02
36.87
36.08
35.58
35.37
35.43
35.58
35.53
34.92
33.54
31.29
28.09
23.94
18.83
12.83
6.16
-0.93
-8.24
-15.68
-23.27
-30.97
-38.58
-45.81
-52.34
-57.97
-62.53
-65.87
-67.72
-67.69
-65.35
-60.41
-52.78
-42.76
-31.07
-18.85
-7.62
1.10
6.09
6.95
4.25
-0.70
-6.28
-11.12
-14.49
-16.20
-16.35
-15.04
-12.26
-8.01
-2.48
3.79
9.95
15.04
18.22
19.05
17.63
14.64
11.26
8.79
8.32
10.35
14.68
20.58
27.08
33.36
38.86
43.27
46.31
47.64
46.87
43.75
38.38
31.39
23.88
17.19
12.57
10.74
11.64
14.41
17.60
19.78
19.99
18.13
14.78
10.87
7.04
3.45
-0.23
-4.43
-9.25
-14.34
-19.08
-22.94
-25.80
-27.93
-29.83
-31.94
-34.49
-37.58
-41.28
-45.64
-50.58
-55.74
-60.40
-63.73
-65.14
-64.58
-62.46
-59.40
-55.82
-51.65
-46.52
-40.06
-32.31
-23.82
-15.52
-8.30
-2.67
1.41
4.41
6.89
9.31
11.80
14.26
16.46
18.26
19.73
21.14
22.88
25.18
27.96
30.75
32.84
33.57
32.65
30.26
27.04
23.78
21.10
19.21
17.96
17.01
16.13
15.32
14.84
14.90
15.46
16.08
15.95
14.19
10.10
3.51
-5.16
-15.03
-25.07
-34.42
-42.67
-49.90
-56.47
-62.82
-69.08
-74.88
-79.22
-80.75
-78.05
-70.21
-57.07
-39.30
-18.22
4.51
27.04
47.54
64.24
75.62
80.72
79.43
72.75
62.60
51.33
41.12
33.41
28.75
26.87
27.02
28.21
29.54
30.32
30.24
29.22
27.40
24.85
21.53
17.28
11.99
5.86
-0.45
-5.92
-9.36
-9.90
-7.33
-2.21
4.27
10.74
16.09
19.76
21.82
22.73
23.03
23.05
22.78
21.95
20.17
17.09
12.55
6.56
-0.65
-8.79
-17.51
-26.55
-35.67
-44.64
-53.09
-60.56
-66.50
-70.53
-72.66
-73.32
-73.22
-73.13
-73.43
-73.90
-73.69
-71.56
-66.26
-57.13
-44.35
-29.06
-13.05
1.84
14.27
23.80
30.78
36.04
40.31
43.95
46.82
48.49
48.53
46.73
43.18
38.28
32.68
27.16
22.52
19.36
17.89
17.91
18.78
19.80
20.39
20.29
19.56
18.40
16.94
15.20
13.23
11.30
10.03
10.18
12.30
16.35
21.60
26.89
31.09
33.57
34.36
34.01
33.18
32.33
31.53
30.63
29.50
28.19
27.00
26.23
25.98
26.13
26.30
26.01
24.89
22.72
19.48
15.29
10.35
4.88
-0.90
-6.82
-12.75
-18.46
-23.64
-27.86
-30.65
-31.72
-31.10
-29.26
-26.88
-24.66
-22.96
-21.75
-20.76
-19.74
-18.73
-18.08
-18.24
-19.46
-21.57
-23.98
-25.94
-26.82
-26.31
-24.43
-21.34
-17.11
-11.75
-5.32
1.81
8.87
14.87
19.00
21.01
21.32
20.87
20.66
21.26
22.68
24.47
26.09
27.21
27.88
28.40
29.11
30.18
31.54
32.92
34.08
34.85
35.23
35.30
35.22
35.05
34.78
34.34
33.58
32.39
30.69
28.39
25.38
21.55
16.80
11.15
4.74
-2.16
-9.18
-16.03
-22.53
-28.67
-34.44
-39.75
-44.23
-47.23
-48.05
-46.27
-41.95
-35.82
-28.98
-22.65
-17.75
-14.79
-13.82
-14.71
-17.18
-21.01
-25.85
-31.20
-36.33
-40.50
-43.05
-43.62
-42.26
-39.36
-35.48
-31.06
-26.36
-21.42
-16.24
-10.95
-5.89
-1.53
1.78
4.00
5.45
6.68
8.23
10.45
13.38
16.86
20.63
24.40
27.91
30.92
33.16
34.41
34.62
33.94
32.70
31.33
30.19
29.47
29.17
29.17
29.28
29.32
29.17
28.69
27.75
26.17
23.77
20.43
16.16
11.08
5.41
-0.73
-7.33
-14.49
-22.29
-30.47
-38.43
-45.21
-49.89
-52.00
-51.69
-49.68
-46.89
-44.09
-41.63
-39.56
-37.79
-36.40
-35.57
-35.50
-36.12
-37.03
-37.62
-37.25
-35.53
-32.38
-28.02
-22.79
-17.08
-11.19
-5.44
-0.17
4.23
7.35
8.89
8.72
7.04
4.36
1.49
-0.62
-1.08
0.69
4.76
10.64
17.36
23.80
28.90
32.00
32.89
31.84
29.43
26.40
23.45
21.11
19.66
19.04
18.94
18.91
18.58
17.71
16.31
14.54
12.65
10.90
9.51
8.53
7.80
6.87
5.09
1.76
-3.54
-10.75
-19.21
-27.77
-35.07
-39.88
-41.45
-39.72
-35.30
-29.31
-23.08
-17.76
-14.03
-11.97
-11.21
-11.20
-11.49
-11.84
-12.20
-12.54
-12.73
-12.57
-11.80
-10.17
-7.55
-3.86
0.91
6.64
12.97
19.30
24.85
28.86
30.84
30.65
28.56
25.11
21.02
17.12
14.20
12.98
13.85
16.68
20.80
25.13
28.51
30.03
29.31
26.46
21.96
16.39
10.32
4.21
-1.54
-6.60
-10.76
-13.97
-16.46
-18.64
-20.98
-23.91
-27.68
-32.22
-37.23
-42.24
-46.82
-50.77
-54.26
-57.71
-61.55
-65.84
-70.05
-73.04
-73.38
-69.79
-61.49
-48.42
-31.21
-11.09
10.29
30.97
48.90
62.20
69.60
70.81
66.72
59.23
50.74
43.50
38.94
37.48
38.60
41.28
44.49
47.57
50.37
53.04
55.78
58.56
61.10
62.91
63.49
62.47
59.79
55.70
50.75
45.66
41.23
38.08
36.56
36.71
38.26
40.74
43.53
45.97
47.41
47.28
45.26
41.41
36.22
30.53
25.33
21.55
19.79
20.18
22.28
25.10
27.31
27.58
25.09
19.82
12.59
4.86
-1.89
-6.63
-9.06
-9.58
-8.94
-7.90
-6.93
-6.26
-5.91
-5.92
-6.30
-6.99
-7.69
-7.95
-7.33
-5.73
-3.71
-2.54
-3.86
-9.01
-18.46
-31.50
-46.49
-61.55
-75.29
-87.14
-97.21
-105.82
-112.95
-118.22
-121.05
-121.16
-118.77
-114.53
-109.17
-103.13
-96.45
-88.91
-80.23
-70.23
-58.84
-46.16
-32.49
-18.39
-4.74
7.44
17.30
24.31
28.39
29.73
28.65
25.49
20.66
14.73
8.53
2.97
-1.15
-3.37
-3.66
-2.31
0.22
3.41
6.74
9.77
12.17
13.80
14.71
15.08
15.11
14.81
14.04
12.72
10.89
8.97
7.67
7.75
9.63
13.24
17.89
22.59
26.40
28.76
29.59
29.15
27.82
25.81
23.11
19.62
15.28
10.24
4.89
-0.31
-4.92
-8.72
-11.73
-14.15
-16.38
-18.85
-22.03
-26.26
-31.76
-38.51
-46.33
-54.86
-63.62
-71.98
-79.05
-83.70
-84.70
-81.03
-72.28
-58.86
-42.00
-23.35
-4.59
12.99
28.49
41.34
51.06
57.12
59.16
57.14
51.52
43.20
33.36
23.34
14.42
7.82
4.49
5.04
9.56
17.64
28.46
41.01
54.28
67.38
79.68
90.76
100.57
109.56
118.81
129.90
144.58
164.22
189.14
218.42
250.05
281.51
310.51
335.65
356.61
373.88
388.28
400.46
410.70
418.98
425.02
428.28
427.86
422.36
410.11
389.65
360.34
322.85
279.16
231.91
184.05
138.10
95.52
56.37
19.56
-16.59
-53.58
-92.14
-132.17
-172.60
-211.81
-248.58
-282.59
-314.65
-346.30
-379.49
-416.40
-459.47
-509.68
-564.96
-619.56
-664.88
-691.86
-694.30
-671.72
-629.79
-579.62
-531.32
-489.98
-455.31
-424.08
-393.10
-361.20
-329.43
-299.79
-276.66
-260.91
-249.55
-238.50
-225.75
-211.50
-196.91
-182.73
-168.75
-159.21
-155.65
-156.26
-158.59
-162.60
-169.92
-181.70
-197.12
-212.91
-230.93
-249.10
-261.16
-261.00
-247.42
-223.83
-195.65
-167.87
-104.10
0.23
118.75
217.73
281.92
313.70
322.25
316.40
302.50
285.28
260.99
228.65
192.30
159.03
132.13
112.02
97.60
87.25
80.55
71.97
59.33
44.97
33.21
26.95
27.87
38.23
52.63
69.50
84.76
96.62
106.01
114.86
123.90
132.83
141.14
148.38
155.67
162.30
168.46
175.09
183.01
192.03
201.50
210.87
219.76
229.26
239.97
254.05
273.45
298.42
326.47
352.94
372.01
378.03
368.45
343.79
310.17
274.73
242.80
216.43
195.48
178.79
164.61
152.55
142.37
137.49
139.57
147.02
155.71
162.25
165.50
165.45
163.91
161.70
163.27
170.60
182.24
194.77
206.69
219.26
233.85
252.06
242.77
190.98
105.39
10.88
-72.46
-137.26
-180.21
-212.71
-242.10
-272.54
-301.37
-326.97
-347.88
-365.64
-381.38
-394.11
-402.31
-403.23
-396.28
-379.80
-355.27
-327.27
-301.67
-281.92
-268.01
-258.63
-251.24
-244.66
-236.64
-226.15
-213.56
-200.03
-185.70
-169.47
-150.44
-127.92
-103.00
-77.10
-52.61
-31.96
-16.94
-7.66
-2.75
-0.69
-0.31
-1.59
-4.70
-9.73
-16.09
-22.07
-24.71
-20.39
-6.14
19.21
54.07
93.86
131.81
160.31
172.52
164.07
134.43
87.39
30.55
-26.20
-73.40
-104.78
-118.89
-118.87
-110.46
-99.06
-87.72
-76.63
-64.27
-49.54
-33.07
-17.31
-5.48
-0.22
-2.63
-12.24
-27.72
-47.60
-70.78
-96.54
-124.18
-152.54
-179.62
-202.46
-217.54
-221.71
-213.24
-192.51
-161.70
-123.94
-82.32
-39.19
3.64
44.33
80.61
110.05
130.88
143.01
148.30
149.87
150.90
153.38
157.55
162.25
165.76
166.69
164.46
159.33
152.11
143.89
135.72
128.50
122.76
118.56
115.41
112.37
108.32
102.42
94.49
85.22
75.96
68.28
63.42
61.91
63.42
66.94
71.17
74.87
77.20
77.77
76.60
73.97
70.31
66.01
61.35
56.40
51.08
45.21
38.70
31.65
24.35
17.21
10.55
4.42
-1.45
-7.53
-14.27
-21.78
-29.66
-37.06
-42.87
-46.02
-45.85
-42.29
-35.83
-27.43
-18.25
-9.39
-1.67
4.39
8.60
11.03
11.96
11.80
11.07
10.26
9.79
9.89
10.61
11.82
13.25
14.66
15.82
16.60
16.88
16.55
15.39
13.24
10.06
6.23
2.52
0.05
-0.02
3.11
9.57
18.80
29.69
40.90
51.20
59.61
65.50
68.61
69.02
67.12
63.56
59.11
54.43
49.98
45.91
42.21
38.91
36.14
34.23
33.52
34.10
35.66
37.46
38.51
37.90
35.10
30.17
23.77
16.98
10.97
6.75
4.94
5.74
8.99
14.27
20.95
28.31
35.54
41.88
46.68
49.54
50.38
49.41
47.01
43.56
39.32
34.37
28.66
22.12
14.79
6.92
-1.15
-8.75
-15.46
-21.16
-26.14
-30.78
-35.39
-40.06
-44.51
-48.13
-49.95
-49.09
-45.11
-38.22
-29.15
-18.96
-8.79
0.45
8.14
14.48
19.72
23.80
26.38
27.22
26.47
24.53
22.03
19.47
18.49
19.96
23.47
27.58
31.00
33.14
33.74
33.21
31.76
32.47
37.33
46.06
56.43
66.27
74.71
81.34
87.05
92.26
101.71
118.21
140.79
165.34
187.90
206.78
221.27
232.92
242.66
256.95
279.50
308.80
338.83
363.52
379.80
386.60
386.71
344.19
244.33
101.75
-47.72
-173.99
-266.65
-322.55
-357.62
-381.36
-398.36
-404.23
-395.74
-374.45
-345.92
-316.31
-289.44
-267.94
-251.14
-238.37
-224.38
-205.59
-182.30
-158.18
-137.27
-121.66
-112.41
-108.05
-107.22
-105.90
-101.45
-93.95
-85.82
-79.66
-76.46
-76.13
-76.70
-76.51
-73.40
-66.91
-58.64
-51.31
-47.01
-46.01
-47.18
-48.24
-47.44
-43.68
-37.10
-28.72
-19.83
-11.29
-3.36
3.93
10.57
16.16
19.97
21.37
20.18
16.84
12.20
7.27
2.79
-0.88
-3.91
-6.85
-10.25
-14.41
-19.38
-25.00
-30.89
-36.16
-39.23
-37.96
-30.56
-16.00
5.40
31.79
60.03
86.57
108.39
123.69
131.77
132.16
125.22
112.51
96.53
79.94
64.82
52.19
41.91
32.88
22.68
9.66
-5.97
-22.48
-37.86
-50.79
-60.93
-68.71
-75.20
-82.99
-93.93
-108.03
-123.59
-138.38
-150.39
-157.96
-159.74
-146.77
-116.26
-74.61
-33.75
-2.94
14.67
20.64
18.73
13.12
7.03
0.97
-5.26
-11.33
-16.17
-18.83
-19.03
-17.50
-14.73
-11.51
-9.66
-10.29
-13.03
-16.41
-18.97
-19.81
-18.73
-15.86
-11.58
-6.90
-2.37
2.37
8.40
15.86
24.50
33.67
42.63
50.71
57.12
61.47
63.89
64.83
64.69
63.78
62.20
60.04
57.26
53.79
49.69
45.26
40.94
37.12
34.00
31.44
28.98
26.01
22.00
16.86
10.96
5.09
0.21
-2.88
-3.79
-2.62
0.12
3.74
7.55
10.95
13.54
14.97
14.99
13.39
10.08
5.08
-1.32
-8.63
-16.25
-23.60
-30.23
-35.92
-40.64
-44.46
-47.45
-49.55
-50.61
-50.43
-48.85
-45.84
-41.46
-35.89
-29.28
-21.75
-13.43
-4.47
4.84
14.11
22.90
30.78
37.46
42.73
46.49
48.62
49.03
47.70
44.70
40.28
34.87
29.10
23.69
19.40
16.76
16.02
17.05
19.46
22.86
26.89
31.27
35.61
39.25
41.31
40.94
37.67
31.66
23.72
14.96
6.38
-1.42
-8.37
-14.73
-20.88
-27.07
-33.27
-39.15
-44.20
-47.85
-49.70
-49.59
-47.71
-44.45
-40.31
-35.70
-31.02
-26.66
-23.00
-20.44
-19.17
-19.18
-20.20
-21.86
-23.89
-26.16
-28.71
-31.59
-34.69
-37.68
-40.07
-41.26
-40.70
-37.97
-32.92
-25.70
-16.82
-7.11
2.43
10.86
17.52
22.11
24.69
25.53
24.94
23.22
20.60
17.37
13.89
10.63
8.06
6.52
6.06
6.35
6.77
6.56
5.04
1.86
-2.95
-9.05
-15.89
-22.82
-29.13
-34.01
-36.62
-36.22
-32.40
-25.27
-15.51
-4.28
7.08
17.36
25.69
31.65
35.18
36.48
35.84
33.63
30.24
26.14
21.79
17.64
14.03
11.10
8.84
7.10
5.66
4.30
2.84
1.17
-0.83
-3.23
-6.10
-9.42
-13.07
-16.75
-19.99
-22.14
-22.51
-20.54
-16.02
-9.25
-1.00
7.67
15.74
22.47
27.57
31.09
33.24
34.26
34.32
33.62
32.40
30.98
29.64
28.51
27.42
26.02
23.90
20.83
16.89
12.44
7.96
3.82
0.15
-3.25
-6.76
-10.80
-15.55
-20.82
-26.00
-30.26
-32.75
-32.98
-30.96
-27.25
-22.76
-18.46
-15.08
-12.97
-12.12
-12.33
-13.42
-15.31
-18.06
-21.68
-26.04
-30.78
-35.47
-39.64
-43.01
-45.45
-46.96
-47.57
-47.35
-46.33
-44.47
-41.58
-37.17
-30.47
-20.46
-6.29
12.29
34.56
58.80
82.73
104.07
121.13
133.02
139.61
141.16
138.09
130.78
119.72
105.51
89.00
71.15
52.89
35.06
18.43
3.82
-7.94
-16.14
-20.43
-20.99
-18.49
-13.91
-8.24
-2.24
3.54
8.67
12.64
14.91
15.01
12.83
8.72
3.40
-2.31
-7.83
-12.98
-17.93
-22.97
-28.20
-33.45
-38.29
-42.24
-44.90
-46.11
-45.94
-44.63
-42.52
-39.98
-37.26
-34.46
-31.49
-28.20
-24.57
-20.75
-17.14
-14.22
-12.42
-11.87
-12.46
-13.87
-15.69
-17.38
-18.20
-17.30
-13.97
-7.94
0.44
10.12
19.71
27.74
33.23
35.86
35.89
33.74
29.88
24.76
18.78
12.41
5.91
-0.56
-6.87
-12.95
-18.80
-24.39
-29.49
-33.77
-36.87
-38.84
-39.88
-40.13
-39.62
-38.33
-36.22
-33.09
-28.70
-21.97
-13.04
-3.42
4.94
11.36
16.26
20.03
23.02
24.65
24.80
23.40
20.74
17.37
13.92
10.79
8.12
5.92
4.17
2.89
1.86
0.91
0.05
-0.58
-0.88
-0.86
-0.62
-0.33
-0.21
-0.60
-1.74
-3.53
-5.54
-7.14
-7.53
-6.01
-2.13
4.14
12.20
21.02
29.43
36.42
41.30
43.78
43.91
41.97
38.40
33.66
28.23
22.56
17.04
11.84
6.96
2.27
-2.42
-7.13
-11.82
-16.30
-20.38
-23.96
-27.11
-30.07
-33.18
-36.75
-40.90
-45.41
-49.64
-52.63
-53.40
-51.24
-45.98
-38.09
-28.57
-18.63
-9.45
-1.87
3.64
6.99
8.40
8.23
6.92
4.91
2.59
0.26
-1.85
-3.58
-4.85
-5.60
-5.84
-5.60
-4.96
-3.96
-2.68
-1.24
0.10
0.95
0.97
0.02
-1.60
-3.09
-3.41
-1.58
2.89
9.81
18.28
27.08
34.99
41.07
44.80
46.04
44.88
41.64
36.72
30.68
24.09
17.45
11.13
5.33
0.09
-4.60
-8.81
-12.57
-15.92
-18.92
-21.64
-24.19
-26.70
-29.31
-32.12
-35.06
-37.79
-39.70
-39.96
-37.73
-32.53
-24.36
-13.87
-2.15
9.46
19.73
27.71
32.88
35.25
35.25
33.67
31.53
29.80
29.24
30.22
32.64
35.99
39.54
42.49
44.18
44.18
42.31
38.61
33.30
26.72
19.23
11.17
2.79
-5.64
-13.77
-21.04
-26.63
-29.68
-29.52
-26.01
-19.70
-11.80
-3.76
3.09
7.94
10.58
11.30
10.63
9.12
7.11
4.79
2.26
-0.38
-2.97
-5.33
-7.34
-9.01
-10.47
-11.95
-13.67
-15.72
-18.05
-20.57
-23.30
-26.41
-30.08
-34.28
-38.56
-42.14
-43.97
-43.10
-39.14
-32.55
-24.57
-16.74
-10.34
-5.97
-3.67
-2.82
-2.46
-1.93
-1.16
-0.57
-0.78
-2.18
-4.89
-9.22
-15.13
-22.25
-29.85
-37.13
-43.18
-47.27
-48.80
-47.74
-45.01
-41.50
-37.54
-32.87
-26.95
-19.20
-9.28
3.04
19.63
38.95
56.85
69.30
74.89
74.72
71.92
67.95
63.50
58.88
53.85
48.45
42.88
37.70
33.17
29.21
25.36
21.46
17.56
13.57
9.75
6.64
4.71
3.89
3.56
2.73
0.68
-2.83
-7.58
-12.54
-16.06
-16.42
-12.61
-4.66
6.22
18.13
28.98
36.82
40.50
39.87
35.56
28.71
20.57
12.29
4.87
-1.03
-5.11
-7.45
-8.42
-8.60
-8.61
-8.96
-9.86
-11.24
-12.85
-14.49
-16.12
-17.96
-20.32
-23.39
-27.01
-30.61
-33.29
-34.15
-32.56
-28.39
-22.11
-14.65
-7.16
-0.76
3.67
5.68
5.24
2.77
-1.12
-5.70
-10.38
-14.74
-18.55
-21.74
-24.32
-26.32
-27.82
-28.90
-29.64
-30.09
-30.31
-30.30
-30.20
-30.18
-30.48
-31.18
-32.06
-32.52
-31.65
-28.54
-22.62
-13.87
-2.99
8.77
19.93
29.17
35.59
38.85
39.12
36.94
33.03
28.10
22.77
17.49
12.55
8.08
4.10
0.60
-2.42
-4.92
-6.83
-8.13
-8.94
-9.55
-10.40
-11.99
-14.65
-18.38
-22.70
-26.67
-29.11
-28.90
-25.45
-18.87
-10.00
-0.19
9.12
16.74
21.92
24.37
24.26
22.00
18.20
13.51
8.56
3.85
-0.38
-4.14
-7.62
-11.07
-14.61
-18.18
-21.52
-24.32
-26.35
-27.62
-28.35
-28.97
-29.89
-31.36
-33.27
-35.12
-36.03
-34.99
-31.08
-23.81
-13.30
-0.34
13.73
27.36
39.11
47.95
53.43
55.63
55.08
52.46
48.51
43.88
39.01
34.16
29.49
25.08
20.98
17.26
13.95
11.04
8.47
6.15
3.96
1.76
-0.61
-3.33
-6.48
-9.89
-12.97
-14.82
-14.46
-11.18
-4.95
3.59
13.18
22.39
30.03
35.36
38.19
38.73
37.42
34.74
31.15
27.04
22.73
18.45
14.37
10.59
7.13
3.96
0.95
-2.01
-5.03
-8.18
-11.50
-15.07
-19.04
-23.61
-28.90
-34.76
-40.54
-45.15
-47.21
-45.56
-39.68
-30.02
-17.89
-5.07
6.64
16.00
22.42
25.99
27.18
26.60
24.85
22.40
19.67
16.97
14.56
12.55
10.92
9.57
8.33
7.09
5.77
4.37
2.80
0.94
-1.46
-4.62
-8.55
-12.84
-16.70
-19.05
-18.87
-15.58
-9.28
-0.76
8.67
17.57
24.72
29.33
31.15
30.37
27.52
23.26
18.29
13.19
8.34
3.91
-0.09
-3.67
-6.82
-9.46
-11.45
-12.72
-13.30
-13.37
-13.26
-13.32
-13.97
-15.57
-18.34
-22.18
-26.55
-30.33
-32.13
-30.59
-25.00
-15.58
-3.58
9.09
20.49
29.12
34.31
36.15
35.19
32.10
27.50
21.86
15.62
9.26
3.28
-1.91
-6.09
-9.29
-11.72
-13.61
-15.14
-16.36
-17.23
-17.76
-18.13
-18.72
-20.04
-22.45
-25.90
-29.79
-32.96
-34.01
-31.77
-25.73
-16.30
-4.70
7.32
18.04
26.12
30.88
32.29
30.86
27.41
22.88
18.12
13.78
10.22
7.47
5.34
3.48
1.58
-0.52
-2.78
-5.01
-6.93
-8.30
-9.05
-9.35
-9.56
-10.09
-11.18
-12.64
-13.75
-13.36
-10.22
-3.47
6.93
20.06
34.17
47.22
57.41
63.56
65.30
62.94
57.23
49.16
39.72
29.87
20.45
12.06
5.10
-0.37
-4.52
-7.70
-10.28
-12.56
-14.72
-16.81
-18.81
-20.77
-22.82
-25.18
-28.00
-31.05
-33.60
-34.45
-32.27
-26.14
-15.96
-2.68
11.93
25.79
37.10
44.73
48.37
48.37
45.49
40.64
34.67
28.32
22.13
16.44
11.42
7.10
3.45
0.42
-2.02
-3.95
-5.46
-6.74
-8.04
-9.73
-12.21
-15.86
-20.76
-26.55
-32.21
-36.25
-37.03
-33.34
-24.92
-12.67
1.52
15.31
26.63
34.17
37.69
37.81
35.60
32.16
28.30
24.43
20.70
17.10
13.65
10.43
7.56
5.12
3.15
1.57
0.26
-0.87
-1.90
-2.87
-3.93
-5.37
-7.55
-10.82
-15.16
-19.94
-23.93
-25.49
-23.24
-16.63
-6.29
6.03
18.01
27.51
33.21
34.77
32.68
27.88
21.37
13.99
6.39
-0.92
-7.52
-13.15
-17.70
-21.31
-24.22
-26.74
-29.11
-31.36
-33.37
-34.93
-35.85
-36.18
-36.32
-36.94
-38.79
-42.20
-46.74
-51.04
-53.17
-51.29
-44.43
-32.95
-18.46
-3.31
10.24
20.63
27.25
30.30
30.44
28.41
24.86
20.40
15.61
11.09
7.29
4.43
2.41
0.86
-0.63
-2.34
-4.27
-6.21
-7.93
-9.40
-10.88
-12.93
-16.14
-20.80
-26.66
-32.74
-37.56
-39.59
-37.79
-32.04
-23.28
-13.26
-3.93
3.08
6.87
7.33
4.92
0.33
-5.70
-12.50
-19.50
-26.20
-32.22
-37.31
-41.43
-44.63
-47.02
-48.72
-49.82
-50.50
-51.08
-52.07
-54.08
-57.64
-62.89
-69.37
-75.88
-80.68
-81.90
-78.12
-68.79
-54.43
-36.45
-16.63
3.27
21.89
38.33
52.00
62.56
69.77
73.69
74.70
73.54
71.13
68.24
65.29
62.20
58.51
53.72
47.55
40.21
32.30
24.55
17.44
10.96
4.62
-2.28
-10.23
-19.04
-27.67
-34.40
-37.24
-34.57
-25.75
-11.37
6.86
26.54
45.18
60.79
72.14
78.86
81.39
80.78
78.48
76.05
74.71
74.83
75.69
75.65
72.80
65.83
54.56
40.00
23.89
7.89
-6.93
-20.19
-32.01
-42.65
-52.30
-61.06
-68.78
-74.98
-78.72
-78.70
-73.71
-63.22
-47.91
-29.70
-11.18
5.13
17.51
25.35
28.94
29.08
26.74
22.81
18.08
13.22
8.71
4.78
1.43
-1.50
-4.14
-6.48
-8.40
-9.75
-10.41
-10.45
-10.15
-9.99
-10.50
-12.10
-14.76
-17.80
-19.84
-19.15
-14.18
-4.31
9.79
26.22
42.44
56.07
65.45
69.96
69.86
65.99
59.35
50.95
41.69
32.36
23.58
15.58
8.26
1.34
-5.37
-11.89
-18.06
-23.59
-28.20
-31.73
-34.50
-37.13
-40.25
-44.18
-48.61
-52.62
-54.75
-53.46
-47.70
-37.78
-25.36
-12.92
-2.95
2.65
2.99
-1.84
-10.87
-21.82
-31.98
-39.49
-43.82
-45.25
-44.27
-41.50
-37.69
-34.36
-31.54
-29.34
-27.78
-26.72
-25.88
-25.07
-24.33
-23.83
-23.77
-24.28
-25.36
-26.54
-26.74
-24.53
-18.64
-8.48
5.79
23.07
41.70
59.66
75.20
87.19
95.27
99.74
101.43
101.74
101.85
102.55
103.85
105.20
105.72
104.53
100.97
94.81
86.50
76.54
65.37
53.34
40.97
28.95
17.92
8.08
-3.18
-16.78
-32.16
-47.38
-60.21
-68.77
-72.14
-70.76
-66.40
-61.49
-57.74
-56.00
-55.97
-56.64
-56.81
-55.74
-53.44
-50.52
-47.69
-44.99
-42.44
-39.28
-35.01
-29.57
-23.34
-17.06
-11.46
-6.91
-3.00
0.87
5.13
9.47
12.95
14.44
13.22
9.62
4.99
1.29
0.10
2.06
6.39
11.87
17.25
21.69
24.94
27.11
28.48
29.28
29.73
30.00
30.32
30.64
30.49
29.17
26.14
21.34
15.28
8.62
1.84
-4.79
-11.22
-17.32
-22.66
-26.67
-28.91
-29.00
-27.30
-24.99
-23.43
-23.37
-24.64
-26.53
-28.30
-29.53
-30.05
-30.02
-29.77
-29.14
-27.88
-25.73
-22.70
-19.15
-15.68
-13.01
-11.79
-12.31
-14.24
-17.13
-20.02
-21.91
-22.17
-20.72
-18.04
-15.00
-12.56
-11.41
-11.89
-13.90
-16.92
-20.03
-21.96
-21.36
-17.18
-9.12
2.17
15.12
27.82
38.46
45.81
49.44
49.53
46.71
41.78
35.59
28.89
22.37
16.52
11.56
7.46
4.06
1.17
-1.28
-3.27
-4.71
-5.54
-5.72
-5.31
-4.44
-3.33
-2.26
-1.53
-1.32
-1.51
-1.65
-1.01
1.17
5.41
11.78
20.07
29.72
39.89
49.61
57.93
64.10
67.59
68.21
65.98
61.50
55.42
48.19
39.98
30.88
21.24
11.59
2.91
-3.95
-7.89
-8.41
-5.95
-1.83
2.26
5.06
5.88
5.22
4.12
4.66
8.66
16.91
28.85
42.98
57.66
71.28
83.12
87.68
81.20
63.67
39.33
13.95
-8.28
-23.91
-34.33
-40.85
-44.53
-45.51
-43.87
-40.11
-35.15
-30.08
-25.69
-22.57
-20.57
-19.52
-18.73
-17.66
-16.15
-14.52
-13.17
-12.21
-11.51
-10.42
-8.34
-4.58
1.08
8.22
15.78
22.44
27.13
29.13
28.55
25.83
21.71
16.82
11.47
5.65
-0.72
-7.52
-14.48
-21.20
-27.45
-33.26
-38.87
-44.52
-50.24
-55.80
-60.88
-65.28
-69.08
-72.61
-76.15
-79.56
-82.18
-82.97
-80.96
-75.69
-67.51
-57.42
-46.74
-36.70
-28.06
-21.07
-15.62
-11.47
-8.41
-6.36
-5.25
-4.96
-5.23
-5.80
-6.39
-6.82
-6.92
-6.55
-5.53
-3.67
-0.89
2.74
6.91
11.12
14.74
17.21
18.25
18.04
17.24
16.94
18.33
22.27
29.01
38.05
48.28
58.39
67.24
74.12
78.70
80.98
81.10
79.25
75.65
70.57
64.33
57.26
49.66
41.74
33.64
25.47
17.31
9.24
1.36
-6.24
-13.46
-20.23
-26.56
-32.54
-38.29
-43.80
-48.84
-52.83
-55.02
-54.75
-51.81
-46.57
-40.03
-33.48
-28.14
-24.85
-23.90
-25.12
-27.98
-31.74
-35.67
-39.05
-41.36
-42.24
-41.56
-39.35
-35.80
-31.25
-26.18
-21.11
-16.45
-12.38
-8.77
-5.35
-1.87
1.69
5.21
8.71
12.60
17.69
24.90
34.79
47.15
60.94
74.63
86.75
96.32
102.92
106.62
107.62
106.16
102.49
97.00
90.37
83.33
76.50
70.23
64.52
59.13
53.73
48.03
41.91
35.50
28.99
22.57
16.47
10.89
5.94
1.64
-2.15
-5.57
-8.48
-10.75
-12.18
-12.55
-11.76
-9.94
-7.44
-5.07
-3.54
-3.03
-3.89
-6.56
-11.28
-18.04
-26.55
-36.24
-46.98
-58.39
-69.34
-79.46
-89.01
-98.13
-106.72
-114.46
-120.94
-126.70
-132.02
-135.90
-138.28
-139.88
-141.15
-142.19
-142.67
-141.82
-139.68
-135.61
-127.26
-113.93
-96.65
-76.98
-56.76
-37.71
-14.17
14.38
36.88
51.01
59.70
64.24
65.77
65.19
63.32
60.78
57.02
52.04
47.82
45.29
44.31
44.73
46.06
47.67
49.04
49.02
47.30
45.40
44.36
44.70
47.06
51.63
58.21
66.26
74.55
81.92
88.14
92.61
94.64
93.96
90.02
82.52
71.73
58.30
43.33
28.29
14.16
1.41
-9.67
-19.78
-29.78
-40.32
-51.58
-63.46
-75.69
-88.00
-100.12
-107.04
-105.16
-94.55
-79.03
-62.79
-47.97
-34.78
-22.70
-11.34
-0.76
7.65
13.12
15.36
14.99
13.18
11.16
10.01
10.60
13.47
18.22
23.94
29.81
35.41
40.62
45.46
50.11
54.75
59.45
63.60
66.26
66.59
64.36
59.89
53.90
47.30
40.89
35.25
30.38
25.93
21.37
16.27
10.24
3.06
-5.25
-14.41
-23.89
-33.21
-42.19
-50.77
-58.90
-66.37
-72.86
-77.94
-81.31
-82.80
-82.53
-80.99
-78.31
-74.07
-67.60
-58.45
-46.82
-33.75
-20.66
-9.14
-1.12
2.51
2.24
-0.61
-4.17
-6.54
-6.18
-1.85
6.67
17.33
27.45
34.55
36.58
32.72
23.78
12.15
1.69
-4.04
-4.07
1.16
10.44
21.66
32.64
41.85
44.88
39.20
31.93
26.81
22.94
20.16
18.00
15.66
12.21
6.78
-0.48
-8.79
-17.95
-26.71
-32.78
-34.31
-30.45
-21.74
-9.97
2.88
14.79
23.43
27.77
28.41
26.48
23.26
19.75
16.56
14.29
13.30
13.19
13.64
14.66
16.14
17.95
19.89
21.74
23.38
24.62
24.81
23.37
19.98
14.65
7.81
0.37
-6.49
-11.58
-14.04
-13.65
-10.66
-5.64
0.71
7.61
14.25
19.83
23.59
24.95
23.71
20.17
15.09
9.45
4.17
-0.15
-3.33
-5.56
-7.19
-8.56
-9.87
-11.21
-12.61
-14.11
-15.81
-17.89
-20.54
-23.93
-28.13
-32.94
-37.86
-42.00
-44.25
-43.57
-39.34
-31.63
-21.18
-9.26
2.68
13.39
21.94
27.83
30.94
31.42
29.69
26.36
22.13
17.67
13.50
9.89
6.89
4.39
2.25
0.30
-1.54
-3.32
-5.07
-6.80
-8.54
-10.36
-12.42
-14.97
-18.20
-22.07
-26.14
-29.48
-30.89
-29.23
-23.90
-15.14
-4.02
7.88
18.93
27.83
33.87
36.91
37.20
35.21
31.58
26.97
21.98
17.12
12.63
8.54
4.77
1.21
-2.10
-5.00
-7.34
-9.01
-10.12
-10.96
-11.92
-13.39
-15.65
-18.72
-22.31
-25.73
-27.95
-27.84
-24.45
-17.46
-7.32
4.75
17.14
28.23
36.86
42.46
45.01
44.87
42.57
38.67
33.77
28.42
23.10
18.17
13.75
9.80
6.17
2.70
-0.68
-3.96
-7.05
-9.87
-12.39
-14.64
-16.80
-19.10
-21.82
-25.01
-28.36
-31.12
-32.18
-30.49
-25.45
-17.26
-6.91
4.05
14.04
21.88
26.96
29.26
29.08
26.88
23.12
18.32
13.05
7.92
3.41
-0.25
-3.14
-5.53
-7.61
-9.33
-10.29
-10.01
-8.09
-4.58
-0.00
4.76
8.65
10.74
10.42
7.60
2.82
-2.75
-7.48
-9.63
-7.95
-2.07
7.31
18.59
29.77
39.08
45.34
48.07
47.37
43.65
37.44
29.42
20.39
11.30
3.08
-3.58
-8.47
-11.88
-14.41
-16.64
-18.84
-20.89
-22.42
-23.11
-22.93
-22.24
-21.67
-21.88
-23.30
-25.93
-29.28
-32.40
-34.05
-32.99
-28.34
-19.93
-8.41
4.83
18.08
29.73
38.63
44.25
46.55
45.75
42.21
36.29
28.53
19.63
10.52
2.17
-4.57
-9.17
-11.48
-11.68
-10.15
-7.27
-3.41
1.15
6.08
10.89
14.91
17.40
17.77
15.94
12.59
9.14
7.47
9.33
15.69
26.38
40.05
54.63
67.90
78.10
84.26
86.13
84.06
78.67
70.73
61.09
50.65
40.25
30.48
21.56
13.33
5.39
-2.60
-10.74
-18.73
-26.03
-32.14
-36.83
-40.35
-43.33
-46.58
-50.75
-56.08
-62.17
-68.05
-72.35
-73.57
-70.53
-62.70
-50.47
-35.06
-18.38
-2.56
10.51
19.53
23.95
23.89
19.92
12.80
3.34
-7.67
-19.38
-30.97
-41.69
-51.09
-59.07
-65.91
-72.03
-77.81
-83.49
-89.14
-94.79
-100.53
-106.54
-113.01
-120.05
-127.64
-135.43
-142.63
-147.81
-148.98
-144.09
-131.73
-111.92
-86.39
-58.22
-30.93
-7.40
10.80
23.45
31.22
35.00
35.55
33.52
29.60
24.75
20.08
16.56
14.73
14.51
15.37
16.55
17.41
17.60
17.15
16.26
15.17
13.86
12.01
9.05
4.41
-2.18
-10.33
-18.86
-25.98
-29.73
-28.54
-21.70
-9.66
6.12
23.56
40.52
55.27
66.70
74.40
78.45
79.31
77.59
74.05
69.47
64.57
59.93
55.83
52.24
48.87
45.27
41.01
35.82
29.64
22.63
15.08
7.26
-0.63
-8.53
-16.43
-24.20
-31.39
-37.21
-40.66
-40.77
-37.01
-29.45
-18.81
-6.33
6.50
18.21
27.55
33.61
35.92
34.52
29.93
23.08
15.10
7.09
-0.05
-5.73
-9.68
-11.97
-12.96
-13.16
-13.11
-13.20
-13.49
-13.75
-13.52
-12.48
-10.68
-8.62
-6.87
-5.64
-4.40
-2.01
2.84
11.05
22.47
35.81
48.87
59.61
66.75
70.01
69.82
66.88
62.12
56.33
50.12
43.67
37.42
31.84
27.51
24.64
23.15
23.20
24.83
27.89
31.49
34.94
37.59
39.13
39.08
36.90
32.58
26.30
18.55
9.66
1.11
-5.09
-6.53
-1.89
5.46
11.53
12.89
12.65
11.47
9.86
6.49
2.04
-2.61
-6.64
-8.97
-8.73
-5.36
0.87
9.49
17.64
22.50
21.84
15.43
5.31
-4.84
-13.88
-21.71
-28.48
-34.79
-40.14
-44.02
-45.86
-45.19
-42.14
-37.21
-31.00
-24.02
-16.71
-8.70
0.47
11.11
23.47
35.59
44.53
48.46
47.11
41.14
32.19
21.31
9.52
-2.48
-14.67
-27.59
-40.01
-51.46
-62.37
-72.90
-82.69
-90.97
-97.23
-101.32
-103.10
-102.22
-98.77
-93.90
-88.69
-83.67
-78.85
-74.03
-68.68
-61.66
-51.45
-33.04
-6.88
21.33
44.37
58.00
61.92
58.37
50.53
41.28
32.43
24.23
16.30
9.31
4.41
2.42
3.35
6.45
10.58
14.48
16.83
16.98
15.50
13.51
11.86
10.78
9.91
8.57
6.08
1.87
-3.66
-8.94
-11.79
-10.38
-3.95
6.98
20.79
35.31
48.40
58.73
66.04
70.67
73.00
73.22
71.53
68.39
64.72
61.61
59.95
59.96
61.02
61.80
60.91
57.57
51.97
45.19
38.69
33.71
30.82
29.83
29.87
29.78
28.43
25.05
19.45
12.16
4.36
-2.35
-6.38
-6.64
-2.94
3.86
12.10
19.71
24.85
26.24
23.35
16.20
5.16
-9.32
-26.73
-46.48
-67.72
-89.33
-110.07
-128.76
-144.57
-157.07
-166.20
-172.14
-175.08
-175.26
-173.01
-168.74
-162.92
-155.91
-147.85
-138.69
-128.22
-116.30
-102.88
-88.00
-71.72
-54.06
-35.20
-15.61
3.78
21.74
36.99
48.60
56.19
59.93
60.38
58.20
54.06
48.58
42.33
35.88
29.75
24.37
19.98
16.68
14.40
13.00
12.32
12.18
12.48
13.12
13.96
14.71
14.96
14.23
12.21
9.02
5.35
2.40
1.53
3.77
9.43
18.03
28.49
39.63
50.48
60.44
69.17
76.41
81.83
85.10
86.08
84.99
82.44
79.27
76.19
73.62
71.56
69.68
67.58
64.94
61.65
57.76
53.35
48.48
43.07
37.07
30.55
23.88
17.77
13.24
11.40
13.32
19.74
30.82
45.92
63.48
81.18
96.37
106.68
110.50
107.28
97.42
82.00
62.57
40.94
19.14
-0.79
-17.29
-29.66
-38.40
-44.90
-50.71
-56.70
-62.70
-67.63
-70.33
-70.36
-68.44
-66.32
-66.25
-70.02
-78.33
-90.46
-104.44
-117.47
-126.68
-129.84
-125.93
-115.25
-98.91
-78.29
-54.72
-29.51
-4.07
19.95
40.85
57.18
68.13
74.16
76.88
78.20
79.38
80.61
81.12
79.63
74.89
65.92
52.84
36.84
19.49
2.11
-14.41
-29.57
-43.18
-55.40
-66.83
-77.46
-86.32
-91.88
-92.73
-87.82
-76.49
-58.42
-31.73
1.07
33.61
59.29
74.37
78.02
71.39
57.16
38.98
20.52
4.14
-8.85
-17.95
-23.28
-25.46
-25.23
-23.29
-20.38
-17.35
-15.34
-14.84
-15.43
-16.33
-16.65
-15.96
-14.23
-11.86
-9.44
-7.88
-7.71
-8.93
-11.07
-13.41
-15.18
-15.55
-13.98
-10.15
-4.43
2.50
9.80
16.71
22.65
27.28
30.64
32.05
31.35
28.61
24.11
18.39
12.11
5.92
0.39
-4.10
-7.46
-9.67
-11.01
-11.84
-12.53
-13.34
-14.40
-15.70
-17.20
-18.81
-20.35
-21.66
-22.67
-23.35
-23.78
-24.09
-24.37
-24.62
-24.62
-23.85
-21.64
-17.33
-10.54
-1.36
9.58
21.20
32.24
41.52
48.28
52.10
52.94
51.03
46.80
40.86
33.97
27.01
20.73
15.57
11.60
8.51
5.87
3.37
0.97
-1.10
-2.49
-2.88
-2.17
-0.48
1.89
4.56
7.14
9.25
10.56
10.96
10.59
9.96
9.85
11.13
14.42
19.83
26.81
34.28
40.91
45.50
47.34
46.29
42.73
37.35
30.90
24.04
17.25
10.82
4.84
-0.83
-6.55
-12.77
-19.80
-27.57
-35.49
-42.58
-47.76
-50.24
-49.81
-46.95
-42.56
-37.67
-33.10
-29.31
-26.33
-23.90
-21.60
-18.98
-15.63
-11.29
-5.89
0.41
7.22
13.99
20.22
25.51
29.66
32.69
34.58
35.28
34.64
32.55
29.10
24.69
19.93
15.43
11.57
8.33
5.39
2.34
-1.05
-4.70
-8.23
-11.13
-13.05
-13.93
-14.18
-14.50
-15.66
-18.25
-22.42
-27.80
-33.61
-38.78
-42.33
-43.51
-42.06
-38.25
-32.81
-26.73
-20.97
-16.27
-13.00
-11.27
-11.02
-12.17
-14.59
-18.12
-22.33
-26.67
-30.43
-33.08
-34.38
-34.46
-33.74
-32.69
-31.74
-31.12
-30.97
-31.31
-32.04
-33.04
-34.18
-35.39
-36.64
-37.86
-38.90
-39.37
-38.64
-35.82
-30.13
-21.17
-9.14
5.06
20.01
34.02
45.50
53.52
58.07
59.85
59.85
58.94
57.64
56.05
53.95
50.82
46.43
41.03
35.04
28.82
22.63
16.71
11.21
6.17
1.08
-4.29
-9.73
-14.86
-19.59
-24.08
-28.72
-33.86
-39.64
-46.19
-52.52
-56.69
-56.56
-50.85
-39.38
-23.06
-3.52
20.09
44.72
65.12
77.35
81.38
79.76
75.36
69.81
63.61
56.71
48.76
40.48
33.22
28.70
27.60
29.43
32.75
35.88
37.41
36.10
31.78
25.26
17.64
9.34
1.35
-6.37
-14.35
-23.25
-33.47
-44.04
-52.51
-55.74
-51.32
-38.81
-20.09
1.35
21.74
38.28
49.96
57.36
61.75
64.34
66.00
66.87
66.21
62.21
51.96
32.58
2.79
-35.55
-77.18
-114.72
-141.43
-153.61
-151.84
-140.11
-123.61
-106.56
-91.03
-77.46
-65.79
-56.46
-50.26
-47.54
-47.37
-47.69
-45.95
-40.54
-31.54
-20.84
-11.20
-4.97
-3.10
-4.90
-8.52
-11.81
-13.18
-11.94
-8.30
-2.99
3.07
9.03
14.25
18.34
21.28
23.30
24.84
26.35
28.04
29.83
31.33
32.03
31.39
29.09
25.04
19.44
12.86
6.24
0.82
-2.02
-1.18
3.82
12.61
24.00
36.30
47.72
56.83
62.74
65.14
64.18
60.35
54.32
46.84
38.73
30.89
24.22
19.51
17.29
17.61
20.12
24.20
29.34
35.32
42.24
50.22
59.03
67.83
75.20
79.47
79.24
73.83
63.52
49.55
33.83
18.54
5.77
-2.88
-6.57
-5.24
0.50
9.44
19.88
29.86
37.49
41.26
40.43
35.08
26.10
14.83
2.67
-9.30
-20.36
-30.03
-38.01
-44.11
-48.53
-51.71
-54.16
-56.27
-58.26
-60.09
-61.60
-62.72
-63.54
-64.72
-66.55
-68.45
-68.98
-66.54
-60.08
-49.46
-35.75
-20.71
-7.21
2.64
8.30
10.59
10.55
8.79
5.67
1.16
-4.47
-12.09
-21.76
-32.22
-41.47
-48.25
-52.54
-54.89
-56.42
-57.84
-61.42
-68.37
-77.99
-88.08
-96.79
-103.36
-107.49
-109.75
-98.10
-67.56
-23.42
23.17
64.83
100.43
129.87
156.39
179.34
195.75
200.24
189.50
162.66
123.43
77.60
31.25
-9.96
-42.18
-63.12
-73.96
-77.28
-75.78
-71.36
-65.53
-59.30
-52.71
-45.71
-38.13
-30.92
-24.99
-20.39
-16.21
-11.62
-6.43
-0.98
3.87
7.43
9.07
8.85
7.58
6.59
6.92
8.98
12.66
17.22
21.74
25.22
27.01
27.03
25.90
24.50
23.64
23.83
25.08
27.07
29.33
31.47
33.21
34.41
35.07
35.30
35.39
35.88
37.39
40.44
45.12
50.93
56.78
61.35
63.46
62.48
58.44
51.81
43.20
33.09
21.67
9.14
-4.10
-17.39
-29.87
-40.98
-50.88
-60.53
-71.20
-83.68
-97.84
-112.75
-127.22
-140.50
-152.44
-163.12
-172.25
-179.01
-182.47
-182.27
-179.19
-174.99
-171.69
-170.57
-171.63
-173.45
-173.86
-170.67
-162.17
-147.49
-126.61
-100.31
-70.18
-38.19
-6.26
23.89
50.79
73.28
90.41
101.48
106.32
105.63
101.16
95.68
91.77
90.98
93.48
98.41
104.52
110.88
117.36
124.53
133.59
144.49
155.25
162.47
162.62
153.53
135.53
111.73
87.31
69.01
61.59
66.35
81.21
101.99
123.98
143.04
156.44
162.75
162.84
157.26
145.80
128.12
104.82
77.59
48.78
20.82
-12.55
-51.14
-89.53
-121.27
-143.60
-157.35
-164.62
-167.91
-168.27
-165.95
-159.94
-150.44
-138.90
-127.26
-116.96
-108.74
-102.77
-98.61
-95.33
-90.24
-80.66
-64.69
-41.87
-13.36
17.84
47.41
71.00
85.63
91.40
90.42
85.88
80.75
77.39
77.13
80.17
85.86
93.01
100.46
106.86
111.13
112.27
110.41
106.58
102.13
98.08
94.52
90.64
85.04
76.83
65.41
51.92
38.57
27.77
21.09
18.62
18.97
19.93
19.95
17.61
13.35
8.66
5.55
5.77
10.21
18.58
26.33
33.88
36.62
30.47
12.80
-16.32
-53.44
-92.45
-126.45
-150.36
-162.37
-165.67
-165.51
-167.11
-173.28
-183.37
-194.03
-200.97
-200.77
-191.47
-173.44
-147.64
-115.47
-78.73
-39.76
-1.43
33.35
62.37
85.07
101.90
114.55
124.87
134.09
142.45
149.24
153.15
152.67
146.64
134.23
115.56
91.56
63.91
34.74
6.35
-19.15
-40.11
-55.50
-65.11
-69.36
-69.00
-64.74
-56.85
-45.08
-29.08
-8.98
14.05
37.84
59.80
77.98
91.82
102.38
111.67
121.57
132.71
143.99
152.93
156.59
152.72
140.53
120.88
95.84
67.96
39.54
12.13
-13.58
-37.62
-60.51
-82.98
-105.65
-128.74
-151.69
-173.03
-190.54
-201.85
-205.29
-200.58
-188.95
-172.74
-154.53
-136.34
-119.23
-103.38
-88.47
-74.04
-59.64
-44.85
-29.38
-13.12
3.62
20.08
35.28
48.29
58.73
66.88
73.63
80.18
87.55
96.29
106.18
116.32
125.32
131.79
134.83
134.41
131.45
127.46
124.01
122.21
122.38
124.09
126.52
128.77
130.09
129.82
127.35
121.98
113.07
100.22
83.52
63.62
41.62
18.90
-3.20
-23.56
-41.36
-56.08
-67.50
-75.64
-80.83
-83.68
-85.15
-86.42
-88.77
-93.30
-100.47
-109.76
-119.45
-126.77
-128.65
-122.64
-107.71
-84.71
-56.01
-24.68
6.51
35.68
61.99
85.43
106.47
125.94
144.92
164.55
185.72
208.60
232.49
255.92
277.17
294.90
308.51
318.09
324.09
326.83
326.20
321.74
312.93
299.61
282.16
261.51
238.87
215.46
192.18
169.59
147.92
127.31
107.90
89.76
72.73
56.35
39.93
22.77
4.59
-14.38
-33.45
-51.81
-69.02
-85.24
-101.18
-117.83
-135.86
-155.30
-175.49
-195.43
-214.33
-232.07
-249.18
-266.56
-284.89
-304.17
-323.58
-341.68
-356.79
-367.43
-372.70
-372.62
-368.32
-362.14
-357.34
-357.39
-364.81
-380.13
-401.30
-424.14
-443.63
-455.80
-459.36
-456.22
-450.70
-447.35
-448.42
-452.34
-453.78
-445.70
-422.17
-380.78
-323.43
-255.12
-181.62
-107.36
-34.36
37.32
108.50
179.91
252.19
326.15
402.88
482.82
564.34
642.71
710.49
759.51
783.83
781.96
757.46
717.42
669.74
620.73
573.82
529.87
488.43
448.89
411.05
374.96
340.54
307.21
274.12
240.47
205.90
170.79
136.08
102.91
72.14
43.94
17.67
-7.93
-34.25
-62.24
-92.01
-122.76
-153.12
-181.75
-207.82
-231.42
-253.46
-275.27
-298.26
-323.62
-352.06
-383.51
-416.62
-448.47
-474.74
-490.73
-493.00
-481.02
-457.81
-429.11
-401.37
-379.45
-364.96
-356.18
-349.23
-339.79
-324.55
-301.91
-271.78
-235.14
-193.60
-149.19
-104.29
-61.58
-23.81
6.55
27.81
39.23
41.07
34.24
19.82
-1.14
-27.63
-58.19
-90.31
-120.12
-142.66
-152.75
-146.25
-121.17
-78.13
-20.21
47.79
120.07
190.61
253.88
305.37
342.25
363.51
369.60
361.76
341.19
308.70
265.09
211.80
151.48
87.92
25.18
-33.66
-87.41
-136.81
-183.84
-230.43
-277.46
-324.42
-369.79
-411.59
-448.05
-477.84
-500.15
-514.53
-520.70
-518.40
-507.44
-487.86
-460.21
-425.81
-386.79
-345.67
-304.80
-265.60
-228.13
-191.19
-153.00
-112.06
-67.89
-21.32
25.53
69.80
108.65
139.91
162.88
178.54
189.37
198.49
208.56
220.64
233.88
246.06
254.88
259.34
260.56
261.60
266.32
277.87
297.40
323.66
353.48
383.05
409.18
430.33
446.64
459.20
469.02
476.03
478.65
474.18
459.76
433.65
395.89
348.42
294.17
235.87
175.15
112.51
48.22
-16.53
-78.86
-134.80
-180.59
-214.38
-236.85
-250.79
-259.59
-265.74
-270.02
-271.80
-269.94
-263.85
-253.86
-240.92
-226.01
-209.60
-191.56
-171.64
-149.94
-127.40
-105.94
-88.00
-75.62
-69.38
-67.77
-67.40
-64.13
-54.80
-38.61
-17.61
4.33
23.42
37.79
48.09
56.62
65.54
75.41
85.02
92.55
97.19
100.04
103.38
108.87
115.74
120.52
118.67
107.41
87.95
65.59
47.45
38.86
40.74
49.40
58.74
63.58
62.17
56.54
50.73
48.25
50.34
56.11
63.94
73.04
83.97
97.92
115.43
135.51
155.88
173.93
187.95
197.70
204.24
209.04
213.06
215.98
216.10
210.70
196.79
172.03
135.45
87.81
31.55
-29.57
-91.21
-149.14
-200.02
-241.86
-274.17
-297.68
-313.67
-323.17
-326.33
-322.49
-310.62
-290.20
-261.96
-228.06
-191.76
-156.63
-125.65
-100.48
-81.19
-66.40
-53.77
-40.89
-25.96
-8.36
11.31
31.54
50.30
65.69
76.38
82.09
83.79
83.49
83.80
87.14
95.06
107.75
124.19
142.53
160.74
176.98
189.85
198.20
201.19
198.33
189.74
176.31
159.57
141.21
122.60
104.53
87.30
71.19
56.73
44.73
35.90
30.32
27.22
25.27
23.22
20.48
17.32
14.69
13.63
14.82
18.26
23.36
29.17
34.83
39.85
44.34
48.59
52.48
54.75
52.93
44.17
26.65
0.95
-29.58
-59.83
-84.90
-102.03
-111.40
-115.49
-117.48
-119.71
-123.06
-127.27
-131.85
-136.61
-141.67
-146.98
-151.92
-155.37
-156.21
-153.81
-148.32
-140.49
-131.14
-120.52
-108.12
-92.77
-73.30
-49.29
-21.52
8.02
36.53
61.25
80.22
92.77
99.52
101.90
101.56
99.84
97.62
95.41
93.51
92.14
91.28
90.70
89.76
87.54
82.96
75.05
63.15
47.03
26.87
3.34
-22.27
-47.94
-70.97
-88.55
-98.36
-99.29
-91.84
-77.84
-59.99
-41.15
-23.89
-10.15
-1.05
3.35
4.19
3.57
3.84
6.53
11.45
16.60
18.93
15.63
5.36
-11.30
-32.43
-55.84
-80.10
-104.91
-130.61
-157.41
-184.76
-211.32
-235.36
-255.44
-270.55
-280.04
-283.16
-278.82
-265.81
-243.33
-211.66
-172.28
-127.52
-79.66
-30.30
19.78
70.08
119.55
166.21
207.51
241.47
267.79
288.37
306.64
326.06
348.52
373.50
398.43
419.90
435.07
442.38
441.44
432.32
414.95
389.07
354.91
313.98
269.41
225.56
186.61
155.22
131.56
113.47
97.67
81.41
63.65
45.10
27.25
10.97
-4.34
-20.45
-39.01
-60.38
-83.15
-104.83
-123.12
-136.93
-146.49
-152.71
-156.17
-156.79
-154.22
-148.65
-141.33
-134.23
-129.01
-125.98
-123.83
-120.39
-113.74
-103.28
-89.90
-75.43
-61.69
-49.90
-40.67
-34.37
-31.54
-32.88
-38.85
-49.30
-63.31
-79.57
-96.87
-114.49
-132.17
-149.74
-166.70
-182.16
-194.97
-204.08
-208.80
-208.80
-203.96
-194.11
-179.00
-158.55
-133.11
-103.75
-72.25
-40.73
-11.23
14.80
36.90
55.58
72.05
87.71
103.56
119.80
135.80
150.34
162.09
170.02
173.64
172.82
167.67
158.37
145.37
129.62
112.88
97.42
85.50
78.53
76.55
78.13
80.91
82.42
80.80
75.21
65.77
53.39
39.67
26.64
16.42
10.40
8.45
8.61
7.69
2.72
-7.48
-21.62
-36.60
-49.19
-57.66
-62.52
-65.69
-69.02
-73.04
-76.84
-78.94
-78.67
-76.87
-75.59
-77.01
-82.24
-90.73
-100.49
-108.75
-112.81
-110.74
-101.80
-86.80
-68.18
-49.61
-35.05
-27.39
-27.46
-33.81
-43.68
-54.40
-64.69
-75.06
-87.14
-102.48
-121.52
-143.30
-165.80
-186.87
-204.94
-219.36
-230.23
-237.86
-242.16
-242.28
-236.69
-223.73
-202.37
-172.92
-137.09
-97.38
-55.92
-13.74
29.29
73.59
118.84
163.39
204.68
240.33
269.28
292.10
310.44
325.75
338.35
347.08
349.93
345.12
332.11
312.12
287.86
262.78
240.03
221.53
207.55
196.82
187.21
176.74
164.43
150.42
135.61
120.82
106.20
91.18
74.93
57.09
38.07
18.75
-0.05
-18.11
-35.87
-53.88
-72.09
-89.56
-104.69
-116.03
-123.05
-126.50
-128.02
-129.28
-131.07
-132.96
-133.60
-131.43
-125.46
-115.73
-103.04
-88.34
-72.14
-54.17
-33.66
-10.10
16.04
42.69
66.45
83.45
90.64
86.95
73.83
54.85
34.44
16.20
1.59
-10.57
-23.26
-39.68
-61.54
-88.00
-115.96
-141.33
-160.89
-173.59
-180.90
-185.95
-192.12
-201.63
-214.85
-230.25
-245.06
-256.07
-260.47
-256.33
-242.98
-220.88
-191.31
-155.86
-115.94
-72.41
-25.37
25.53
80.47
138.81
198.50
256.08
307.26
347.66
373.86
384.06
378.41
358.89
328.84
292.38
253.74
216.67
183.98
157.27
137.00
122.17
111.41
103.54
97.45
91.97
85.91
78.62
70.10
60.97
51.60
42.37
33.50
24.78
15.47
4.91
-6.94
-19.36
-31.26
-42.87
-54.41
-65.56
-75.83
-85.02
-93.00
-99.46
-104.06
-106.80
-111.28
-119.52
-130.13
-140.17
-147.75
-152.50
-154.79
-155.17
-154.45
-159.97
-174.98
-195.49
-214.26
-226.63
-231.43
-229.68
-223.40
-215.44
-218.98
-240.34
-273.75
-307.92
-335.65
-355.11
-367.54
-375.07
-380.55
-400.05
-441.21
-496.83
-552.95
-600.51
-635.96
-658.27
-666.62
-574.61
-362.42
-93.30
147.61
320.97
430.04
493.99
530.56
556.97
580.81
591.89
586.18
573.16
567.97
573.40
585.45
597.15
602.82
599.35
576.64
532.67
476.10
419.26
368.97
326.88
292.08
263.09
237.91
208.16
169.31
123.62
77.16
34.46
-1.59
-29.09
-47.45
-57.25
-63.01
-68.09
-73.65
-79.01
-83.66
-87.05
-88.73
-90.07
-92.10
-95.63
-99.38
-102.63
-104.23
-103.41
-99.79
-93.87
-90.03
-90.80
-94.92
-97.64
-98.17
-96.73
-94.07
-91.03
-88.96
-94.49
-110.33
-132.68
-152.31
-167.15
-177.52
-185.11
-191.70
-199.32
-216.29
-245.63
-282.06
-313.54
-337.18
-352.46
-359.52
-357.67
-304.44
-192.47
-54.72
47.35
119.93
174.27
220.98
261.66
296.69
326.33
344.27
348.38
342.95
337.26
330.46
319.74
303.34
282.43
259.48
231.88
199.43
165.74
137.77
115.15
96.47
80.96
69.17
61.30
53.47
43.46
32.01
23.05
16.66
12.45
10.15
9.86
10.98
11.20
9.71
6.98
4.78
3.10
1.72
0.63
0.06
-1.09
-4.14
-8.36
-13.72
-20.11
-27.44
-35.17
-42.77
-49.92
-59.09
-71.31
-83.23
-93.56
-102.38
-109.27
-114.10
-117.30
-119.77
-126.05
-137.66
-149.15
-159.04
-168.83
-179.53
-191.86
-205.98
-221.24
-240.80
-263.78
-280.70
-288.00
-286.76
-278.04
-263.10
-243.20
-190.06
-102.48
-29.53
23.13
67.94
108.42
147.05
185.65
225.19
265.38
300.02
325.49
346.56
363.13
372.15
372.30
363.28
345.29
319.17
282.82
237.24
190.17
144.96
101.98
62.25
27.29
-1.28
-21.89
-35.80
-43.76
-43.80
-37.69
-29.25
-21.30
-15.39
-12.35
-11.95
-14.32
-18.66
-22.45
-25.03
-26.68
-27.44
-27.28
-27.39
-28.47
-30.61
-33.21
-35.11
-36.49
-37.62
-38.40
-38.60
-40.47
-45.09
-51.24
-57.01
-61.02
-63.97
-66.28
-67.90
-68.54
-71.84
-79.48
-89.53
-98.85
-105.40
-110.82
-116.63
-123.83
-132.79
-148.40
-172.38
-201.14
-229.09
-251.71
-268.86
-280.01
-283.95
-249.25
-169.74
-69.79
20.47
82.29
127.46
163.18
193.31
217.25
233.81
238.08
229.78
215.11
202.16
196.39
196.08
197.37
195.91
188.55
170.46
141.33
106.59
73.59
48.07
30.64
20.46
15.99
15.80
16.45
16.32
16.55
19.06
24.80
32.16
39.55
46.05
51.69
55.83
58.40
59.97
60.65
59.79
55.92
48.55
38.49
27.40
16.42
6.01
-3.90
-13.74
-23.78
-33.89
-43.19
-50.58
-55.32
-57.44
-57.62
-56.72
-55.37
-53.79
-51.83
-49.32
-46.16
-42.44
-38.41
-34.44
-31.02
-28.66
-27.73
-28.37
-30.48
-33.85
-38.30
-43.81
-50.36
-57.74
-65.37
-72.32
-77.52
-80.17
-79.84
-76.54
-70.49
-61.98
-51.32
-38.93
-25.45
-11.69
1.48
13.42
23.76
32.44
39.57
45.28
49.68
52.80
54.66
55.21
54.50
52.68
50.10
47.29
44.78
42.84
41.27
39.54
37.06
33.60
29.42
25.25
21.82
19.60
18.61
18.65
19.53
21.16
23.51
26.21
28.47
29.17
27.30
22.49
15.32
7.15
-0.35
-5.87
-8.81
-9.25
-7.72
-4.79
-0.87
3.80
9.00
14.52
20.14
25.82
31.71
38.02
44.77
51.50
57.39
61.43
62.84
61.27
56.87
50.15
41.66
31.91
21.21
9.72
-2.57
-15.67
-29.49
-43.80
-58.19
-72.21
-85.52
-97.93
-109.40
-119.83
-128.92
-136.10
-140.72
-142.27
-140.57
-135.81
-128.42
-118.95
-107.85
-95.45
-81.90
-67.35
-51.99
-36.29
-21.04
-7.28
3.93
11.89
16.56
18.52
18.85
18.69
18.87
19.72
21.03
22.33
23.17
23.35
23.07
22.78
22.98
23.97
25.73
27.96
30.30
32.60
35.00
37.77
41.12
44.91
48.63
51.62
53.34
53.71
53.04
51.91
50.84
49.99
49.12
47.75
45.42
41.99
37.71
33.18
29.02
25.68
23.27
21.60
20.24
18.77
16.84
14.21
10.76
6.46
1.38
-4.37
-10.69
-17.58
-25.13
-33.53
-42.97
-53.52
-65.10
-77.42
-89.90
-101.64
-111.33
-117.47
-118.64
-114.01
-103.78
-89.30
-72.78
-56.58
-42.45
-31.01
-21.82
-13.89
-6.33
1.21
8.52
15.22
21.04
26.03
30.43
34.27
37.29
39.04
39.35
38.74
38.46
39.97
44.11
50.48
57.37
62.43
63.74
60.71
54.28
46.38
38.96
33.14
29.01
25.94
23.20
20.33
17.21
13.84
10.21
6.38
2.60
-0.60
-2.63
-3.19
-2.60
-1.68
-1.38
-2.31
-4.50
-7.45
-10.48
-13.02
-14.80
-15.77
-16.03
-15.67
-14.95
-14.21
-13.89
-14.38
-15.86
-18.24
-21.26
-24.62
-28.13
-31.77
-35.60
-39.67
-44.03
-48.74
-53.85
-59.35
-65.12
-70.89
-76.12
-80.04
-81.69
-80.12
-74.57
-64.74
-50.95
-34.25
-16.16
1.60
17.51
30.64
40.66
47.82
52.76
56.19
58.69
60.55
61.67
61.59
59.60
55.02
47.52
37.36
25.66
14.26
5.33
0.61
0.71
4.79
10.79
16.37
19.86
20.83
20.04
18.58
17.12
15.51
13.11
9.61
5.51
2.07
0.59
1.61
4.56
8.07
10.92
12.61
13.57
14.63
16.35
18.58
20.47
21.04
19.79
16.98
13.51
10.47
8.55
7.75
7.55
7.29
6.50
5.12
3.44
1.91
0.99
0.89
1.50
2.53
3.54
4.15
4.11
3.22
1.56
-0.59
-3.04
-5.75
-8.85
-12.44
-16.43
-20.53
-24.63
-28.34
-31.13
-32.77
-33.35
-33.11
-32.21
-30.53
-27.84
-24.65
-21.20
-17.57
-14.24
-12.18
-12.31
-14.94
-19.58
-25.30
-32.11
-39.38
-45.86
-50.69
-53.92
-56.25
-58.56
-61.57
-65.84
-72.68
-81.47
-89.69
-94.64
-94.83
-90.08
-81.18
-68.98
-46.67
-16.98
10.66
28.90
36.70
36.46
30.93
22.13
12.13
2.12
-8.50
-19.52
-29.59
-37.52
-43.13
-46.96
-49.85
-50.94
-50.17
-48.91
-47.90
-46.88
-45.58
-44.32
-43.94
-45.37
-47.02
-48.06
-49.29
-51.42
-54.05
-55.89
-55.20
-49.53
-42.45
-31.52
-15.51
4.27
25.15
45.26
63.93
81.02
96.46
109.91
126.35
147.93
172.91
197.07
217.24
232.39
242.92
249.61
253.11
260.37
274.64
294.32
314.28
330.30
340.85
346.19
347.08
307.66
216.73
92.22
-32.82
-136.66
-214.28
-269.66
-308.89
-337.31
-358.89
-368.77
-366.82
-356.13
-342.63
-330.86
-322.40
-316.69
-312.29
-307.24
-294.44
-274.54
-249.79
-224.72
-202.88
-185.52
-172.36
-162.60
-155.48
-147.71
-138.01
-126.73
-116.16
-108.13
-103.19
-100.94
-100.69
-101.77
-102.33
-101.61
-99.40
-96.50
-93.51
-90.44
-86.86
-82.35
-76.64
-69.32
-60.59
-50.78
-40.61
-30.60
-20.83
-11.04
-0.91
9.75
20.81
31.79
42.27
51.86
60.43
68.29
76.03
84.41
93.96
104.85
116.82
129.41
142.17
154.92
167.86
181.60
196.98
214.82
235.72
259.54
285.21
310.46
332.11
346.75
351.82
346.45
331.88
310.96
286.98
262.40
238.04
213.10
186.04
155.78
122.49
87.77
54.12
24.04
-0.56
-18.68
-30.06
-35.01
-34.33
-29.29
-21.62
-13.15
-5.33
1.16
6.43
11.06
15.47
19.61
22.97
25.05
25.72
25.40
24.77
24.40
24.48
24.81
25.11
25.21
25.08
24.70
23.88
22.32
19.87
16.80
13.99
12.69
14.03
18.63
26.24
35.85
46.01
55.25
62.41
66.84
68.38
67.30
64.13
59.55
54.26
48.79
43.40
38.11
32.84
27.53
22.29
17.33
12.87
9.01
5.71
2.82
0.19
-2.28
-4.62
-6.72
-8.32
-8.84
-7.46
-3.25
4.47
15.73
29.63
44.53
58.50
69.97
78.29
83.85
87.80
91.46
95.84
101.26
107.44
113.77
119.68
124.87
129.33
133.21
136.80
140.32
144.27
149.01
154.73
161.41
168.90
177.05
185.63
194.30
202.61
210.14
215.94
218.33
214.92
203.10
180.78
147.11
103.11
51.68
-2.42
-54.66
-102.08
-143.71
-179.74
-210.41
-235.39
-253.94
-265.90
-270.90
-270.85
-269.52
-270.58
-275.06
-280.66
-283.30
-279.43
-268.04
-247.50
-219.55
-189.22
-163.26
-147.28
-144.01
-152.99
-170.66
-190.70
-199.74
-187.13
-149.44
-90.63
-18.38
59.74
137.85
212.22
281.04
350.64
423.96
496.65
558.63
600.38
618.17
615.30
600.37
538.87
420.75
264.78
106.38
-29.76
-139.53
-229.47
-305.44
-368.52
-416.37
-439.34
-433.59
-405.08
-365.43
-326.43
-295.80
-276.28
-266.79
-264.27
-260.12
-249.09
-231.58
-213.09
-197.97
-187.56
-180.85
-176.33
-173.32
-168.81
-161.65
-152.80
-143.87
-134.85
-123.77
-108.12
-86.86
-61.39
-33.64
-7.12
14.04
26.68
30.25
26.87
20.20
13.74
9.66
9.04
11.44
15.53
19.93
23.96
27.63
31.21
34.71
37.67
39.39
39.25
37.09
33.22
28.31
23.01
17.74
12.68
7.86
3.37
-0.59
-3.69
-5.66
-6.42
-6.21
-5.53
-4.92
-4.78
-5.12
-5.48
-5.06
-2.97
1.42
8.18
16.74
26.05
34.91
42.34
47.86
51.49
53.53
54.37
54.22
53.10
50.94
47.75
43.71
39.13
34.35
29.55
24.73
19.81
14.76
9.67
4.68
-0.11
-4.72
-9.23
-13.56
-17.31
-19.78
-20.18
-17.93
-13.01
-5.99
2.05
9.88
16.41
20.94
23.22
23.35
21.73
18.86
15.29
11.53
8.03
5.11
2.88
1.23
-0.20
-1.89
-4.20
-7.28
-10.92
-14.71
-18.24
-21.30
-23.93
-26.44
-29.23
-32.54
-36.27
-39.80
-42.24
-42.81
-41.05
-37.00
-31.16
-24.30
-17.23
-10.61
-4.81
-0.04
3.58
5.98
7.36
7.97
8.02
7.62
6.71
5.40
3.87
2.27
0.80
-0.08
-0.18
0.21
0.43
-0.48
-2.71
-6.01
-9.93
-13.75
-15.92
-15.21
-11.32
-4.92
2.33
9.74
16.95
23.65
29.64
36.01
43.52
51.99
60.36
66.70
71.14
74.42
77.15
79.85
84.40
92.03
102.67
114.87
125.83
135.20
143.32
150.51
145.43
121.60
81.07
33.76
-2.76
-28.34
-45.51
-56.36
-64.07
-69.77
-72.57
-71.94
-68.69
-64.87
-63.76
-65.81
-70.97
-77.43
-82.34
-82.47
-76.93
-67.58
-57.76
-51.23
-48.63
-48.92
-50.59
-52.33
-52.71
-51.06
-47.55
-42.95
-38.63
-34.21
-29.71
-25.17
-20.62
-15.92
-11.23
-7.08
-3.94
-1.69
0.76
4.54
10.44
18.50
27.94
37.48
45.09
49.20
49.40
46.25
40.78
34.57
29.20
25.67
24.21
24.02
24.16
24.70
25.80
27.15
28.51
29.46
29.28
27.08
21.51
11.88
-0.47
-13.96
-27.77
-40.75
-51.60
-59.26
-63.26
-64.66
-64.98
-64.18
-62.70
-62.27
-63.93
-67.98
-74.08
-76.55
-71.46
-66.01
-63.38
-61.64
-61.28
-62.60
-65.23
-68.23
-70.54
-72.16
-73.51
-73.57
-67.73
-55.57
-39.42
-22.70
-7.70
5.06
15.38
22.41
27.76
32.23
35.02
35.97
35.78
35.67
36.44
38.03
39.91
42.19
44.46
45.54
44.95
43.01
40.47
37.97
35.61
33.17
30.88
28.84
26.79
24.79
22.99
21.35
19.42
16.54
12.23
6.82
1.12
-3.89
-7.23
-8.25
-6.88
-3.62
0.71
5.27
9.37
12.56
14.56
15.34
15.05
13.97
12.33
10.35
8.18
6.01
4.06
2.56
1.74
1.67
2.32
3.56
5.25
7.27
9.47
11.62
13.39
14.40
14.44
13.59
12.30
11.24
11.09
12.30
14.93
18.69
23.01
27.19
30.56
32.56
32.78
31.05
27.43
22.23
15.95
9.18
2.38
-4.17
-10.43
-16.48
-22.42
-28.19
-33.57
-38.24
-41.91
-44.48
-46.10
-47.08
-47.81
-48.55
-49.38
-50.18
-50.65
-50.44
-49.24
-46.88
-43.36
-38.89
-33.83
-28.58
-23.51
-18.68
-13.73
-7.87
-0.08
10.41
23.68
38.82
54.10
67.53
77.57
83.60
86.02
85.87
84.26
81.94
79.17
75.90
72.02
67.59
62.73
57.54
51.97
45.84
39.05
31.76
24.50
18.06
13.27
10.61
10.09
11.12
12.75
13.96
14.02
12.65
10.06
6.76
3.30
0.07
-2.84
-5.58
-8.48
-11.89
-16.06
-21.01
-26.55
-32.32
-37.88
-42.85
-47.04
-50.43
-53.13
-55.33
-57.16
-58.64
-59.65
-60.01
-59.42
-57.54
-54.05
-48.68
-41.30
-32.00
-21.15
-9.29
2.86
14.58
25.22
34.36
41.80
47.60
51.95
55.08
57.10
57.97
57.48
55.44
51.78
46.68
40.55
33.90
27.20
20.73
14.57
8.68
3.07
-2.11
-6.50
-9.63
-11.04
-10.46
-7.95
-4.01
0.55
4.74
7.66
8.69
7.67
4.88
0.92
-3.51
-7.80
-11.61
-14.86
-17.67
-20.23
-22.72
-25.19
-27.66
-30.07
-32.34
-34.41
-36.32
-38.21
-40.31
-42.86
-45.92
-49.25
-52.24
-53.96
-53.50
-50.30
-44.33
-36.24
-27.21
-18.62
-11.73
-7.33
-5.60
-6.05
-7.69
-9.33
-9.92
-8.92
-6.39
-2.93
0.56
3.23
4.55
4.42
3.12
1.18
-0.80
-2.31
-3.06
-3.02
-2.42
-1.64
-1.08
-0.91
-0.97
-0.71
0.61
3.67
8.82
15.90
24.30
33.08
41.24
47.89
52.40
54.43
53.93
51.02
45.99
39.24
31.30
22.81
14.54
7.27
1.66
-1.88
-3.38
-3.28
-2.39
-1.71
-2.19
-4.48
-8.72
-14.50
-20.86
-26.55
-30.28
-31.05
-28.47
-22.79
-14.91
-6.09
2.34
9.24
13.89
16.00
15.69
13.35
9.57
4.93
-0.03
-4.85
-9.27
-13.15
-16.50
-19.40
-21.97
-24.23
-26.12
-27.51
-28.25
-28.35
-27.98
-27.50
-27.20
-27.22
-27.28
-26.77
-24.95
-21.23
-15.47
-8.09
0.01
7.76
14.21
18.82
21.49
22.49
22.26
21.24
19.72
17.78
15.42
12.55
9.14
5.20
0.77
-4.05
-9.18
-14.46
-19.72
-24.77
-29.46
-33.71
-37.55
-41.08
-44.38
-47.41
-49.90
-51.43
-51.45
-49.58
-45.64
-39.87
-32.81
-25.24
-18.00
-11.81
-7.12
-4.05
-2.43
-1.88
-1.93
-2.18
-2.35
-2.25
-1.80
-0.90
0.56
2.69
5.53
9.00
12.80
16.38
19.01
19.80
17.94
12.95
4.82
-5.75
-17.52
-28.90
-38.37
-44.86
-47.99
-48.12
-46.10
-42.98
-39.71
-36.95
-35.01
-33.77
-32.75
-31.12
-27.85
-22.02
-13.15
-1.55
11.67
24.83
36.21
44.56
49.47
51.37
51.21
49.99
48.44
46.86
45.16
43.17
40.81
38.29
36.14
35.08
35.77
38.65
43.76
50.75
58.96
67.60
75.87
83.04
88.51
91.79
92.57
90.69
86.26
79.58
71.13
61.51
51.27
40.99
31.17
22.26
14.60
8.31
3.22
-1.17
-5.60
-10.88
-17.71
-26.40
-36.65
-47.52
-57.51
-64.90
-68.12
-66.28
-59.39
-48.47
-35.26
-21.81
-9.98
-1.08
4.34
6.42
5.84
3.49
0.17
-3.60
-7.64
-12.04
-16.92
-22.25
-27.74
-32.93
-37.32
-40.63
-42.79
-43.98
-44.42
-44.27
-43.59
-42.30
-40.34
-37.68
-34.36
-30.39
-25.79
-20.55
-14.79
-8.86
-3.35
1.08
3.89
4.97
4.71
3.91
3.49
4.14
6.13
9.27
13.05
16.91
20.42
23.36
25.72
27.62
29.22
30.62
31.77
32.41
32.12
30.42
26.88
21.40
14.30
6.38
-1.24
-7.39
-11.21
-12.29
-10.81
-7.32
-2.55
2.81
8.24
13.38
17.89
21.46
23.79
24.73
24.39
23.11
21.44
19.91
18.87
18.37
18.17
17.82
16.80
14.64
11.02
5.78
-1.02
-9.09
-17.84
-26.43
-33.81
-38.95
-41.10
-40.00
-35.99
-29.85
-22.63
-15.35
-8.78
-3.39
0.53
2.86
3.61
2.96
1.35
-0.51
-1.81
-1.89
-0.45
2.34
5.92
9.53
12.52
14.48
15.28
15.04
13.98
12.30
10.13
7.53
4.58
1.48
-1.40
-3.49
-4.18
-2.97
0.28
5.32
11.50
17.92
23.70
28.19
31.09
32.43
32.48
31.55
29.89
27.64
24.84
21.49
17.58
13.14
8.20
2.85
-2.85
-8.82
-15.02
-21.43
-28.07
-34.95
-41.96
-48.77
-54.68
-58.72
-59.85
-57.26
-50.72
-40.75
-28.49
-15.43
-2.98
7.85
16.57
23.19
27.94
31.14
33.01
33.62
32.96
30.99
27.69
23.13
17.48
11.02
4.10
-2.89
-9.58
-15.65
-20.85
-25.10
-28.43
-31.11
-33.44
-35.65
-37.71
-39.15
-39.17
-36.84
-31.54
-23.19
-12.42
-0.42
11.43
21.90
30.20
36.04
39.58
41.28
41.73
41.56
41.27
41.10
41.00
40.63
39.48
37.12
33.35
28.31
22.49
16.54
11.08
6.51
2.93
0.12
-2.37
-4.96
-7.84
-10.80
-13.21
-14.18
-12.86
-8.84
-2.32
5.89
14.59
22.59
28.99
33.35
35.67
36.21
35.28
33.17
30.10
26.21
21.60
16.39
10.63
4.39
-2.20
-8.99
-15.71
-22.03
-27.56
-31.99
-35.16
-37.12
-38.19
-38.86
-39.63
-40.74
-42.00
-42.81
-42.27
-39.61
-34.48
-27.12
-18.41
-9.54
-1.70
4.24
7.84
9.15
8.49
6.31
3.09
-0.71
-4.70
-8.49
-11.81
-14.51
-16.60
-18.23
-19.57
-20.73
-21.68
-22.34
-22.64
-22.63
-22.53
-22.60
-23.02
-23.71
-24.30
-24.17
-22.66
-19.31
-14.02
-7.10
0.85
9.06
16.79
23.48
28.72
32.31
34.20
34.48
33.34
31.06
28.00
24.53
20.96
17.51
14.24
11.13
8.09
5.03
1.88
-1.38
-4.72
-8.08
-11.41
-14.64
-17.75
-20.76
-23.67
-26.45
-28.88
-30.52
-30.76
-28.97
-24.73
-18.07
-9.53
-0.14
8.93
16.64
22.33
25.81
27.33
27.37
26.42
24.84
22.76
20.17
17.00
13.29
9.21
5.06
1.15
-2.27
-5.10
-7.34
-9.10
-10.49
-11.62
-12.61
-13.60
-14.78
-16.24
-17.89
-19.28
-19.68
-18.29
-14.56
-8.46
-0.57
8.14
16.63
24.15
30.33
35.12
38.59
40.77
41.66
41.28
39.81
37.53
34.80
31.87
28.83
25.69
22.42
19.02
15.58
12.29
9.31
6.74
4.56
2.61
0.63
-1.56
-3.90
-6.07
-7.46
-7.46
-5.64
-2.00
3.05
8.79
14.45
19.45
23.45
26.36
28.21
29.02
28.82
27.68
25.77
23.37
20.91
18.80
17.31
16.47
16.12
15.95
15.64
14.92
13.62
11.70
9.25
6.30
2.82
-1.15
-5.54
-10.16
-14.77
-19.20
-23.26
-26.98
-30.71
-34.99
-40.20
-46.33
-52.94
-59.27
-64.64
-68.35
-70.03
-69.71
-67.60
-63.86
-58.54
-51.76
-43.71
-34.80
-25.11
-14.61
-3.32
8.53
20.43
31.60
41.02
47.99
49.95
45.53
36.03
25.18
16.72
12.14
11.33
12.03
12.68
12.88
13.52
16.04
20.61
26.77
33.10
37.51
37.88
33.13
23.40
10.13
-4.72
-19.38
-32.23
-40.63
-42.45
-37.59
-27.85
-16.07
-5.12
2.64
5.78
4.29
-0.66
-7.40
-14.33
-20.40
-24.95
-27.39
-27.37
-24.75
-19.58
-12.29
-3.85
4.52
11.89
17.88
22.66
26.86
30.68
34.34
37.76
40.36
41.19
39.41
34.66
27.25
18.09
8.41
-0.61
-8.30
-14.68
-20.27
-25.63
-31.01
-36.22
-40.81
-44.33
-46.47
-47.26
-46.93
-45.68
-43.45
-39.82
-34.27
-26.44
-16.50
-5.10
6.67
17.61
26.72
33.40
37.46
39.04
38.47
36.19
32.68
28.47
24.06
19.90
16.33
13.55
11.61
10.40
9.67
9.08
8.32
7.18
5.51
3.20
0.19
-3.61
-8.20
-13.48
-19.06
-24.23
-28.04
-29.56
-28.19
-23.87
-17.15
-9.08
-1.02
5.71
10.18
12.12
11.84
10.09
7.87
6.12
5.42
5.76
6.56
6.99
6.44
4.71
2.30
0.44
0.74
4.46
11.79
21.72
32.43
42.04
48.86
51.91
50.29
43.79
33.78
23.03
14.55
10.65
12.57
19.68
30.12
41.36
51.12
58.06
61.63
62.11
59.75
54.74
46.65
35.38
21.45
6.21
-8.54
-21.22
-31.05
-38.69
-41.94
-41.23
-37.86
-33.22
-28.32
-23.90
-20.86
-20.40
-23.71
-31.36
-43.42
-58.66
-75.17
-91.20
-105.95
-119.53
-132.21
-143.87
-153.65
-160.56
-163.26
-160.73
-152.59
-139.49
-123.17
-105.64
-89.07
-75.24
-65.19
-58.45
-53.58
-48.68
-42.71
-35.79
-27.85
-18.94
-9.14
1.08
11.19
20.28
27.90
33.58
36.96
39.26
41.59
43.79
44.48
42.67
38.65
35.49
37.02
46.13
65.32
94.26
129.19
164.01
193.15
213.26
225.20
231.62
224.57
200.22
162.20
119.88
80.99
52.54
30.41
12.05
-3.00
-14.01
-19.60
-18.20
-10.34
0.64
10.06
13.31
7.93
-7.46
-32.56
-62.90
-90.95
-105.48
-98.28
-70.24
-31.18
6.40
31.96
40.03
31.85
13.23
-8.77
-28.30
-44.12
-55.77
-62.79
-65.55
-65.33
-63.42
-61.04
-59.46
-60.54
-66.22
-75.75
-86.67
-95.41
-98.19
-92.11
-76.32
-52.61
-25.01
1.76
24.42
41.44
52.79
59.16
61.31
60.00
56.00
50.14
43.43
37.23
32.59
30.05
29.60
30.73
32.63
34.34
34.83
33.17
28.91
21.96
12.72
2.02
-9.02
-19.08
-26.92
-31.55
-32.60
-30.31
-25.59
-19.61
-13.37
-7.41
-1.78
3.73
9.29
14.81
19.91
23.95
26.19
26.05
23.27
18.21
11.86
5.71
1.29
-0.35
0.91
4.30
8.51
12.28
14.88
16.29
16.98
17.51
18.15
18.72
18.69
17.50
14.85
10.91
6.25
1.67
-2.12
-4.68
-5.82
-5.51
-3.80
-0.81
3.20
7.83
12.67
17.55
22.63
28.31
35.02
42.83
51.40
60.07
68.12
75.12
81.19
87.04
93.85
102.78
114.50
128.57
143.41
156.70
166.20
170.73
170.31
166.05
159.29
150.75
140.15
126.72
110.02
90.71
70.65
52.15
37.30
27.39
22.64
22.40
25.35
29.84
33.94
35.62
32.75
24.03
9.49
-9.55
-30.95
-52.63
-73.01
-91.24
-106.94
-120.77
-133.15
-144.13
-153.76
-162.56
-171.54
-181.63
-192.95
-204.47
-215.96
-226.38
-234.01
-237.28
-235.76
-230.49
-223.48
-217.03
-213.35
-216.80
-229.80
-251.30
-276.80
-299.97
-314.55
-315.74
-301.48
-273.00
-237.91
-204.03
-176.50
-156.97
-145.07
-139.80
-140.04
-144.83
-133.49
-96.55
-38.05
28.53
91.68
146.56
191.62
225.18
244.22
249.13
238.41
214.39
183.64
154.49
133.15
121.98
121.50
130.63
147.63
166.26
180.35
186.11
182.95
172.11
155.71
136.35
118.86
104.13
90.49
76.82
63.11
50.08
38.26
27.87
18.67
10.92
4.66
-0.61
-4.76
-7.11
-7.19
-5.68
-4.01
-3.49
-4.27
-5.35
-4.47
1.63
15.86
39.17
67.18
91.29
102.73
98.40
81.58
58.77
35.94
16.52
1.11
-11.56
-22.74
-32.70
-40.61
-45.60
-47.36
-46.38
-43.83
-41.22
-40.06
-40.27
-40.65
-39.32
-34.91
-27.22
-17.27
-6.85
2.12
8.24
11.43
12.47
12.59
12.58
12.44
11.71
9.94
7.19
3.15
-1.15
-4.48
-5.94
-5.42
-3.60
-1.48
0.12
0.79
0.62
0.14
-0.25
-0.32
-0.17
-0.04
-0.23
-0.98
-2.46
-4.64
-7.18
-9.50
-10.88
-10.57
-8.09
-3.41
3.00
10.33
17.64
24.23
29.59
33.41
35.52
35.86
34.49
31.65
27.76
23.30
18.77
14.46
10.50
6.82
3.30
-0.18
-3.64
-7.01
-10.10
-12.65
-14.45
-15.40
-15.56
-15.26
-14.96
-15.13
-16.06
-17.69
-19.55
-20.93
-21.04
-19.30
-15.52
-9.90
-2.97
4.64
12.26
19.34
25.37
30.01
32.97
34.15
33.62
31.65
28.67
25.22
21.80
18.77
16.26
14.13
12.06
9.69
6.78
3.31
-0.49
-4.21
-7.38
-9.63
-10.75
-10.78
-9.97
-8.79
-7.85
-7.78
-8.97
-11.41
-14.58
-17.56
-19.32
-19.04
-16.41
-11.76
-6.03
-0.45
3.84
6.06
5.94
3.66
-0.28
-5.21
-10.44
-15.40
-19.67
-22.95
-25.07
-25.99
-25.87
-24.84
-22.96
-20.20
-16.50
-11.88
-6.46
-0.41
6.06
12.30
17.36
20.45
21.50
21.17
20.39
19.97
20.36
21.50
22.86
23.60
23.03
20.81
17.21
12.92
8.85
5.77
4.02
3.42
3.54
3.98
4.42
4.71
4.71
4.36
3.64
2.61
1.40
0.24
-0.56
-0.75
-0.23
0.85
2.20
3.52
4.55
5.23
5.73
6.36
7.42
9.55
12.87
17.21
22.07
26.78
30.69
33.34
34.57
34.48
33.37
31.49
29.02
26.01
22.45
18.31
13.68
8.81
4.11
0.01
-3.17
-5.39
-6.92
-8.39
-10.56
-14.03
-18.96
-24.97
-31.23
-36.82
-41.04
-43.56
-44.40
-43.78
-41.82
-38.50
-33.77
-27.79
-21.06
-14.28
-7.98
-2.18
3.46
9.35
15.32
20.45
23.44
23.29
20.11
15.08
9.94
5.93
3.04
0.07
-4.60
-11.99
-21.90
-33.01
-43.69
-52.79
-60.07
-66.01
-71.22
-75.89
-79.53
-81.24
-80.16
-75.94
-68.98
-60.36
-51.54
-43.85
-38.06
-34.11
-31.25
-28.42
-24.73
-19.90
-14.36
-9.07
-4.97
-2.53
-1.43
-0.80
0.42
3.12
7.74
14.23
21.99
30.13
37.66
43.75
47.64
48.79
47.18
43.38
38.37
33.10
28.32
24.57
22.36
21.78
22.59
24.49
27.38
31.43
36.94
44.17
53.12
63.26
72.45
77.54
75.54
65.00
46.53
22.22
-5.30
-33.82
-59.80
-78.87
-88.05
-87.48
-79.52
-67.02
-52.56
-38.55
-28.09
-21.09
-17.21
-15.93
-16.44
-17.60
-18.32
-17.94
-15.83
-12.07
-6.79
-0.76
5.01
9.62
12.66
14.19
14.49
13.91
12.73
11.36
9.69
7.38
4.16
0.16
-4.16
-8.22
-11.54
-13.94
-15.31
-15.92
-16.15
-16.33
-16.60
-16.99
-17.49
-18.06
-18.61
-18.81
-18.33
-16.90
-14.36
-10.77
-6.43
-1.77
2.74
6.71
9.85
11.93
12.79
12.37
10.72
8.06
4.76
1.28
-1.94
-4.47
-5.98
-6.22
-5.03
-2.38
1.63
6.76
12.65
18.92
25.18
31.14
36.61
41.60
46.32
51.13
56.34
62.08
68.16
74.06
79.09
82.59
84.14
83.58
81.01
76.60
70.53
62.95
54.06
44.13
33.57
22.81
12.19
1.93
-7.89
-17.24
-26.02
-33.97
-40.79
-46.20
-50.05
-52.41
-53.58
-54.00
-54.08
-54.12
-54.11
-53.76
-52.51
-49.79
-45.20
-38.71
-30.73
-21.97
-13.30
-5.48
0.92
5.66
8.74
10.37
10.89
10.67
10.10
9.47
8.99
8.72
8.67
8.80
9.04
9.32
9.53
9.53
9.12
8.07
6.19
3.32
-0.57
-5.29
-10.37
-15.05
-18.39
-19.46
-17.66
-12.97
-6.01
2.06
9.87
16.19
20.26
21.86
21.26
19.00
15.71
11.99
8.33
5.06
2.32
0.07
-1.84
-3.56
-5.20
-6.74
-8.08
-9.19
-10.08
-10.93
-11.94
-13.27
-14.84
-16.29
-16.99
-16.23
-13.51
-8.76
-2.47
4.48
11.01
16.24
19.68
21.28
21.31
20.20
18.38
16.19
13.92
11.73
9.63
7.44
4.88
1.69
-2.19
-6.51
-10.75
-14.29
-16.62
-17.55
-17.26
-16.28
-15.25
-14.85
-15.49
-17.25
-19.74
-22.11
-23.27
-22.19
-18.24
-11.46
-2.64
6.95
15.86
22.90
27.38
29.17
28.56
26.09
22.34
17.80
12.91
7.98
3.35
-0.71
-3.99
-6.38
-7.99
-9.07
-10.01
-11.15
-12.71
-14.77
-17.15
-19.51
-21.28
-21.71
-20.05
-15.70
-8.52
1.00
11.78
22.35
31.24
37.30
40.01
39.45
36.17
30.99
24.75
18.14
11.68
5.75
0.59
-3.61
-6.79
-9.00
-10.50
-11.63
-12.82
-14.41
-16.62
-19.57
-23.26
-27.51
-31.87
-35.62
-37.76
-37.29
-33.53
-26.45
-16.77
-5.73
5.36
15.47
24.06
30.99
36.28
39.86
41.54
41.10
38.47
33.99
28.23
21.90
15.59
9.77
4.72
0.64
-2.44
-4.59
-5.87
-6.50
-6.87
-7.37
-8.09
-8.68
-8.46
-6.72
-3.09
2.76
10.49
19.08
27.14
33.45
37.38
38.92
38.40
36.24
33.54
31.08
29.06
27.24
25.38
23.60
22.33
22.02
22.89
25.76
31.01
38.24
46.45
54.63
62.25
69.25
75.89
76.78
69.22
54.57
37.58
22.51
10.62
0.69
-9.06
-19.72
-31.14
-41.56
-49.36
-53.91
-55.67
-55.43
-53.61
-50.27
-45.85
-40.66
-34.67
-28.20
-21.88
-16.47
-12.38
-9.55
-7.56
-6.23
-5.53
-5.25
-5.33
-5.89
-7.19
-9.45
-12.80
-16.35
-19.53
-21.89
-23.03
-22.81
-21.43
-19.41
-17.38
-15.93
-15.34
-15.78
-17.05
-18.67
-20.08
-20.81
-20.70
-19.89
-18.75
-17.79
-17.61
-18.63
-20.90
-24.08
-27.33
-29.50
-29.35
-26.00
-19.31
-10.18
-0.23
8.68
15.11
18.51
19.30
18.50
17.24
16.25
15.67
15.22
14.42
12.90
10.44
6.95
2.42
-3.02
-9.09
-15.33
-21.12
-25.88
-29.23
-31.14
-31.97
-32.37
-33.05
-34.58
-37.24
-40.89
-45.02
-48.77
-51.11
-51.06
-47.94
-41.67
-32.76
-22.23
-11.31
-1.11
7.65
14.65
19.94
23.70
26.16
27.58
28.24
28.54
29.00
30.16
32.46
36.15
41.16
47.09
53.30
59.11
63.95
67.66
70.45
72.88
75.50
78.70
82.55
86.85
91.37
95.96
100.64
105.48
110.45
115.36
119.90
123.72
126.52
128.00
127.76
125.29
120.07
111.83
100.93
88.45
75.98
65.18
57.13
52.03
49.17
47.38
45.55
43.07
39.91
36.40
32.82
29.16
25.07
20.14
14.12
7.13
-0.32
-7.45
-13.25
-16.72
-17.05
-13.98
-7.99
-0.40
6.96
12.24
14.13
12.22
6.90
-0.90
-10.23
-20.38
-30.94
-41.69
-52.40
-62.80
-72.57
-81.50
-89.59
-97.06
-104.36
-111.99
-120.38
-129.67
-139.72
-150.16
-160.57
-170.58
-179.82
-187.73
-193.41
-195.86
-194.38
-189.10
-181.21
-172.60
-165.11
-159.73
-156.37
-154.28
-152.73
-151.58
-151.25
-152.18
-154.28
-156.72
-158.30
-158.07
-155.76
-151.74
-146.59
-140.68
-134.00
-126.43
-118.06
-109.40
-101.19
-94.05
-88.07
-82.59
-76.32
-67.70
-55.37
-38.66
-17.90
5.62
29.93
52.85
72.53
87.78
98.18
103.97
105.74
104.26
100.32
94.66
87.93
80.63
73.14
65.63
58.17
50.79
43.53
36.49
29.77
23.44
17.47
11.68
5.80
-0.40
-6.97
-13.53
-19.24
-23.00
-23.64
-20.37
-13.01
-2.07
11.38
25.95
40.22
52.93
63.09
70.10
73.75
74.24
72.10
68.10
63.05
57.58
52.09
46.77
41.63
36.69
31.97
27.52
23.36
19.42
15.48
11.20
6.24
0.37
-6.25
-12.99
-18.71
-22.01
-21.57
-16.63
-7.23
5.67
20.46
35.31
48.59
59.21
66.69
71.03
72.53
71.65
68.89
64.80
59.97
54.99
50.28
46.10
42.41
39.04
35.74
32.37
28.92
25.50
22.17
18.86
15.33
11.28
6.54
1.32
-3.66
-7.28
-8.31
-5.86
0.32
9.64
20.85
32.38
42.79
51.07
56.78
59.93
60.86
60.01
57.79
54.55
50.54
45.98
41.01
35.78
30.47
25.23
20.24
15.64
11.51
7.87
4.63
1.61
-1.45
-4.88
-8.94
-13.73
-18.94
-23.89
-27.53
-28.79
-26.92
-21.74
-13.79
-4.12
5.98
15.35
23.12
28.79
32.16
33.28
32.38
29.88
26.31
22.19
17.95
13.85
9.98
6.45
3.37
0.92
-0.78
-1.76
-2.27
-2.71
-3.56
-5.13
-7.56
-10.73
-14.27
-17.63
-20.04
-20.67
-18.76
-13.91
-6.29
3.31
13.56
22.96
30.23
34.65
36.20
35.39
33.05
29.94
26.61
23.33
20.23
17.47
15.31
14.09
14.06
15.32
17.69
20.83
24.31
27.81
31.15
34.35
37.55
41.02
45.09
50.04
56.12
63.41
71.76
80.88
90.33
99.67
108.47
116.33
122.81
127.43
129.71
129.31
126.10
120.31
112.49
103.55
94.54
86.48
80.07
75.44
72.08
68.94
64.85
58.90
50.78
40.83
29.77
18.39
7.30
-3.17
-12.75
-21.11
-27.79
-32.34
-34.52
-34.52
-32.98
-30.81
-29.01
-28.37
-29.35
-32.02
-36.13
-41.22
-46.78
-52.34
-57.53
-62.14
-66.17
-69.82
-73.45
-77.49
-82.27
-87.93
-94.32
-101.10
-107.87
-114.39
-120.68
-126.96
-133.54
-140.60
-148.11
-155.72
-162.91
-168.97
-173.26
-175.40
-175.55
-174.51
-173.65
-174.40
-177.65
-183.24
-189.88
-195.53
-198.14
-196.37
-189.86
-179.11
-165.12
-148.95
-131.52
-113.68
-96.24
-80.10
-66.14
-55.04
-47.12
-42.30
-40.04
-39.47
-39.54
-39.18
-37.43
-33.50
-26.84
-17.21
-4.76
9.84
25.43
40.55
53.74
63.92
70.68
74.23
75.22
74.45
72.60
70.12
67.28
64.26
61.23
58.35
55.73
53.38
51.22
49.05
46.58
43.55
39.74
35.12
29.88
24.46
19.51
15.82
14.10
14.81
17.99
23.13
29.30
35.33
40.20
43.32
44.60
44.37
43.09
41.10
38.54
35.37
31.54
27.13
22.36
17.50
12.78
8.27
3.99
-0.02
-3.69
-6.88
-9.56
-11.84
-14.04
-16.52
-19.47
-22.75
-25.82
-27.84
-27.92
-25.44
-20.22
-12.66
-3.58
6.03
15.19
23.21
29.66
34.37
37.32
38.54
38.10
36.14
32.89
28.71
24.03
19.26
14.78
10.84
7.62
5.19
3.52
2.46
1.74
1.00
0.01
-1.24
-2.35
-2.61
-1.20
2.52
8.70
16.89
26.16
35.30
43.21
49.09
52.62
53.91
53.34
51.45
48.71
45.46
41.88
38.01
33.90
29.63
25.38
21.34
17.70
14.56
11.91
9.62
7.53
5.42
3.03
0.14
-3.27
-6.97
-10.34
-12.47
-12.43
-9.56
-3.73
4.60
14.47
24.67
34.06
41.79
47.43
50.88
52.32
52.04
50.32
47.41
43.52
38.89
33.82
28.67
23.77
19.38
15.61
12.44
9.83
7.71
6.00
4.57
3.17
1.50
-0.69
-3.44
-6.43
-9.06
-10.59
-10.44
-8.43
-4.85
-0.42
3.94
7.39
9.37
9.74
8.74
6.83
4.55
2.37
0.58
-0.72
-1.55
-2.04
-2.34
-2.61
-3.00
-3.65
-4.64
-6.01
-7.75
-9.87
-12.42
-15.48
-18.98
-22.67
-25.93
-27.91
-27.77
-24.94
-19.42
-11.77
-2.97
5.85
13.65
19.68
23.54
25.18
24.88
23.06
20.18
16.65
12.79
8.79
4.82
0.99
-2.67
-6.27
-10.03
-14.23
-19.07
-24.55
-30.46
-36.38
-41.76
-46.02
-48.51
-48.69
-46.13
-40.75
-32.86
-23.17
-12.69
-2.54
6.34
13.27
17.90
20.22
20.44
18.95
16.22
12.80
9.28
6.34
4.62
4.59
6.43
9.86
14.30
19.06
23.63
27.79
31.63
35.29
38.75
41.77
44.06
45.50
46.36
47.24
48.85
51.62
55.49
59.88
63.95
66.87
68.11
67.54
65.28
61.56
56.63
50.72
44.06
36.98
29.86
23.05
16.79
11.14
6.02
1.29
-3.16
-7.30
-11.02
-14.25
-17.01
-19.49
-21.98
-24.75
-27.81
-30.85
-33.23
-34.15
-32.91
-29.13
-22.94
-14.94
-6.07
2.63
10.17
15.79
18.99
19.67
18.05
14.68
10.22
5.38
0.69
-3.57
-7.34
-10.68
-13.73
-16.59
-19.31
-21.90
-24.35
-26.69
-29.01
-31.48
-34.28
-37.40
-40.53
-42.96
-43.70
-41.79
-36.63
-28.23
-17.25
-4.81
7.85
19.64
29.74
37.62
42.93
45.46
45.19
42.33
37.32
30.78
23.40
15.79
8.38
1.41
-5.01
-10.90
-16.33
-21.38
-26.16
-30.79
-35.44
-40.24
-45.21
-50.16
-54.56
-57.58
-58.28
-55.91
-50.24
-41.69
-31.35
-20.59
-10.69
-2.55
3.42
7.16
8.88
8.83
7.32
4.63
1.11
-2.89
-7.01
-11.02
-14.82
-18.33
-21.54
-24.38
-26.94
-29.35
-31.77
-34.35
-37.29
-40.75
-44.72
-49.01
-53.13
-56.59
-58.73
-58.69
-55.85
-50.17
-42.29
-33.29
-24.35
-16.36
-10.29
-6.48
-4.52
-3.59
-3.01
-2.44
-1.76
-0.85
0.41
1.32
1.46
1.04
0.56
0.26
-0.17
-1.31
-3.66
-7.55
-14.05
-23.45
-34.86
-46.53
-56.81
-64.69
-69.57
-71.09
-62.48
-41.64
-12.92
15.65
37.96
51.96
58.38
59.16
56.79
52.91
47.57
40.87
33.64
27.15
22.60
20.32
20.03
21.10
22.79
23.69
22.90
20.48
17.14
13.61
10.16
6.75
3.42
0.43
-2.12
-3.85
-3.97
-1.79
2.69
8.61
14.69
19.75
23.06
24.27
22.61
18.38
12.48
5.98
-0.20
-5.30
-8.86
-10.78
-11.41
-11.41
-11.27
-11.44
-12.22
-13.69
-15.78
-18.18
-20.49
-22.30
-23.34
-23.49
-22.97
-22.27
-21.92
-22.21
-22.94
-23.42
-22.70
-19.90
-14.53
-6.75
2.61
12.34
21.22
28.31
33.13
35.64
36.08
34.86
32.33
28.80
24.49
19.67
14.63
9.75
5.39
1.83
-0.84
-2.77
-4.37
-6.15
-8.54
-11.76
-15.79
-20.43
-25.50
-30.89
-36.54
-42.32
-47.81
-52.34
-55.01
-54.99
-51.76
-45.32
-36.23
-25.49
-14.27
-3.70
5.34
12.36
17.24
20.16
21.43
21.40
20.41
18.78
16.85
14.97
13.56
13.00
13.61
15.68
19.29
24.19
29.59
34.19
36.29
34.37
27.64
16.47
2.47
-11.90
-24.03
-31.82
-34.16
-31.00
-23.20
-12.17
0.39
12.79
23.46
31.23
35.49
36.31
34.38
30.80
26.70
23.04
20.33
18.70
18.01
18.05
18.61
19.58
20.83
22.23
23.58
24.76
25.75
26.67
27.64
28.70
29.71
30.43
30.67
30.49
30.24
30.46
31.61
33.84
36.78
39.63
41.40
41.23
38.68
33.81
27.19
19.70
12.35
6.12
1.72
-0.62
-1.16
-0.68
-0.18
-0.60
-2.46
-5.73
-9.90
-14.16
-17.76
-20.19
-21.28
-21.23
-20.46
-19.56
-19.16
-19.69
-21.17
-23.11
-24.53
-24.23
-21.16
-14.75
-5.13
6.87
19.85
32.15
42.15
48.63
51.12
49.94
46.16
41.22
36.49
32.93
30.91
30.35
30.91
32.29
34.34
37.07
40.53
44.58
48.73
51.88
52.37
48.20
37.68
20.17
-3.33
-30.17
-56.66
-79.11
-94.85
-102.79
-103.38
-98.09
-88.77
-77.12
-64.45
-51.69
-39.52
-28.42
-18.77
-10.82
-4.70
-0.40
2.22
3.35
3.11
1.55
-1.39
-5.67
-10.98
-16.61
-21.58
-24.92
-25.99
-24.68
-21.49
-17.40
-13.55
-11.03
-10.57
-12.29
-15.65
-19.52
-22.45
-23.13
-20.74
-15.22
-7.20
2.13
11.32
18.99
24.02
25.75
24.15
19.80
13.80
7.46
1.98
-1.84
-3.75
-4.01
-3.11
-1.66
-0.12
1.19
2.09
2.54
2.53
2.08
1.26
0.13
-1.26
-2.81
-4.43
-5.88
-6.86
-6.92
-5.69
-2.99
1.05
5.96
11.08
15.76
19.48
21.98
23.17
23.12
21.97
19.92
17.26
14.29
11.31
8.53
6.08
4.01
2.39
1.27
0.70
0.63
0.90
1.21
1.21
0.53
-1.16
-4.13
-8.50
-13.99
-19.87
-24.91
-27.68
-26.99
-22.36
-14.26
-4.00
6.70
16.22
23.52
28.24
30.59
31.04
30.11
28.15
25.40
22.07
18.33
14.41
10.48
6.70
3.09
-0.34
-3.61
-6.65
-9.28
-11.28
-12.46
-12.77
-12.35
-11.48
-10.46
-9.45
-8.37
-6.91
-4.73
-1.60
2.41
6.99
11.70
16.15
20.04
23.22
25.54
26.81
26.81
25.44
22.81
19.34
15.68
12.44
10.03
8.46
7.34
6.11
4.21
1.31
-2.53
-7.01
-11.62
-15.94
-19.72
-22.90
-25.61
-27.99
-30.07
-31.71
-32.64
-32.51
-31.07
-28.17
-23.88
-18.39
-12.01
-5.13
1.77
8.19
13.68
17.89
20.76
22.51
23.58
24.53
25.84
27.78
30.35
33.31
36.22
38.48
39.46
38.59
35.51
30.19
23.03
14.76
6.32
-1.35
-7.46
-11.54
-13.39
-12.99
-10.46
-6.06
-0.17
6.59
13.38
19.26
23.42
25.29
24.74
21.94
17.25
11.06
3.74
-4.38
-12.88
-21.28
-29.03
-35.65
-40.77
-44.20
-45.91
-46.07
-44.97
-43.01
-40.60
-38.08
-35.70
-33.62
-31.91
-30.61
-29.74
-29.19
-28.74
-27.98
-26.42
-23.65
-19.47
-14.04
-7.83
-1.50
4.32
9.26
13.24
16.40
18.90
20.70
21.54
21.07
19.03
15.42
10.52
4.77
-1.37
-7.54
-13.39
-18.60
-22.77
-25.59
-26.90
-26.84
-25.83
-24.46
-23.34
-22.89
-23.26
-24.19
-25.14
-25.33
-23.99
-20.62
-15.18
-8.18
-0.58
6.50
12.17
15.96
17.90
18.38
17.89
16.86
15.59
14.25
12.97
11.83
10.89
10.18
9.65
9.22
8.90
8.72
8.71
8.83
8.85
8.43
7.22
5.07
2.20
-0.81
-3.07
-3.66
-1.86
2.59
9.41
17.85
26.78
35.01
41.43
45.29
46.23
44.38
40.25
34.58
28.14
21.58
15.30
9.46
4.07
-0.92
-5.60
-10.04
-14.32
-18.52
-22.62
-26.47
-29.81
-32.32
-33.91
-34.76
-35.35
-36.25
-37.76
-39.66
-41.18
-41.25
-38.88
-33.63
-25.73
-16.07
-5.88
3.64
11.55
17.30
20.72
21.94
21.32
19.36
16.68
13.93
11.64
10.14
9.46
9.32
9.25
8.74
7.43
5.24
2.34
-0.88
-4.05
-6.85
-9.16
-11.05
-12.61
-13.95
-15.11
-15.98
-16.32
-15.77
-13.95
-10.51
-5.35
1.31
8.88
16.52
23.31
28.47
31.50
32.30
31.04
28.14
24.05
19.23
14.02
8.64
3.19
-2.24
-7.53
-12.45
-16.61
-19.61
-21.11
-21.01
-19.50
-17.10
-14.47
-12.31
-11.16
-11.31
-12.74
-15.09
-17.70
-19.72
-20.27
-18.68
-14.68
-8.51
-0.86
7.36
15.24
22.10
27.53
31.35
33.55
34.23
33.63
32.06
29.90
27.52
25.13
22.78
20.35
17.66
14.60
11.16
7.49
3.79
0.22
-3.15
-6.32
-9.43
-12.61
-15.95
-19.41
-22.69
-25.33
-26.76
-26.50
-24.31
-20.32
-15.03
-9.16
-3.45
1.50
5.35
7.99
9.41
9.62
8.61
6.43
3.24
-0.58
-4.47
-7.85
-10.33
-11.76
-12.33
-12.41
-12.33
-12.28
-12.21
-11.91
-11.12
-9.71
-7.70
-5.28
-2.71
-0.25
1.95
3.89
5.73
7.75
10.21
13.30
17.03
21.14
25.18
28.56
30.72
31.30
30.15
27.40
23.34
18.29
12.57
6.46
0.30
-5.55
-10.73
-14.97
-18.20
-20.56
-22.25
-23.43
-24.11
-24.21
-23.66
-22.49
-20.90
-19.27
-17.95
-17.22
-17.07
-17.24
-17.15
-16.09
-13.41
-8.79
-2.40
5.06
12.62
19.39
24.89
29.14
32.52
35.43
38.04
40.15
41.38
41.32
39.71
36.49
31.70
25.41
17.70
8.85
-0.53
-9.44
-16.64
-20.96
-21.68
-18.82
-13.18
-6.14
0.66
5.77
8.26
7.88
5.10
1.00
-3.08
-5.87
-6.52
-4.85
-1.35
3.02
7.16
10.23
11.75
11.70
10.33
8.01
5.12
1.98
-1.12
-3.91
-6.10
-7.42
-7.56
-6.29
-3.53
0.51
5.25
9.76
12.97
13.98
12.46
8.76
3.86
-0.97
-4.61
-6.36
-6.17
-4.48
-2.08
0.18
1.59
1.75
0.67
-1.29
-3.47
-5.18
-5.91
-5.48
-4.10
-2.19
-0.31
1.11
1.76
1.55
0.60
-0.76
-2.11
-2.95
-2.91
-1.84
0.09
2.42
4.56
5.91
6.14
5.19
3.33
0.97
-1.51
-3.99
-6.67
-10.01
-14.40
-19.91
-26.03
-31.71
-35.66
-36.83
-34.67
-29.29
-21.22
-11.20
0.02
11.60
22.51
31.42
37.02
38.43
35.63
29.68
22.29
15.27
9.79
6.09
3.59
1.48
-0.73
-2.86
-4.09
-3.45
-0.30
5.32
12.68
20.58
27.72
32.89
35.07
33.47
27.64
17.78
4.99
-8.77
-21.11
-29.97
-34.40
-34.86
-33.00
-30.93
-30.26
-31.58
-34.32
-37.26
-39.10
-39.07
-37.10
-33.71
-29.67
-25.72
-22.32
-19.63
-17.61
-16.11
-15.03
-14.30
-13.87
-13.68
-13.75
-14.18
-15.21
-17.09
-19.95
-23.63
-27.55
-30.89
-32.82
-32.78
-30.72
-27.01
-22.28
-17.13
-11.92
-6.75
-1.62
3.38
8.00
11.92
14.86
16.83
18.15
19.31
20.75
22.63
24.70
26.48
27.46
27.37
26.29
24.54
22.48
20.27
17.77
14.71
10.78
5.91
0.21
-6.04
-12.50
-18.79
-24.48
-29.00
-31.68
-31.90
-29.34
-24.14
-16.95
-8.78
-0.74
6.18
11.36
14.56
15.97
16.03
15.29
14.29
13.44
12.93
12.74
12.73
12.71
12.47
11.92
11.13
10.27
9.57
9.17
9.08
9.08
8.87
8.17
6.86
5.06
3.13
1.64
1.20
2.36
5.45
10.39
16.62
23.28
29.42
34.27
37.49
39.10
39.25
37.99
35.17
30.59
24.24
16.50
8.18
0.26
-6.48
-11.65
-15.37
-18.05
-20.16
-22.02
-23.71
-25.16
-26.20
-26.80
-27.02
-27.04
-27.11
-27.42
-28.06
-29.02
-30.10
-30.95
-31.13
-30.16
-27.67
-23.53
-17.90
-11.24
-4.21
2.50
8.35
12.97
16.26
18.30
19.28
19.53
19.44
19.41
19.72
20.44
21.33
21.88
21.50
19.78
16.74
12.90
9.21
6.71
6.19
7.93
11.65
16.64
22.02
26.96
30.84
33.26
34.11
33.52
31.87
29.74
27.78
26.50
26.10
26.33
26.67
26.43
25.06
22.27
18.14
12.95
7.10
0.94
-5.25
-11.23
-16.79
-21.74
-25.97
-29.52
-32.52
-35.19
-37.65
-39.80
-41.41
-42.15
-41.81
-40.47
-38.46
-36.27
-34.30
-32.72
-31.37
-29.85
-27.67
-24.48
-20.20
-15.06
-9.55
-4.24
0.36
3.89
6.20
7.28
7.30
6.50
5.24
3.96
3.10
3.00
3.78
5.28
7.07
8.58
9.25
8.69
6.80
3.84
0.35
-2.96
-5.44
-6.75
-6.96
-6.59
-6.36
-6.88
-8.34
-10.39
-12.24
-13.00
-12.00
-9.03
-4.37
1.34
7.36
13.03
17.85
21.52
23.94
25.14
25.33
24.86
24.16
23.64
23.60
24.08
24.82
25.30
24.91
23.15
19.91
15.60
11.09
7.40
5.32
5.05
6.14
7.65
8.59
8.28
6.66
4.22
1.78
0.07
-0.59
-0.36
0.15
0.22
-0.73
-2.94
-6.34
-10.61
-15.38
-20.27
-24.90
-28.84
-31.60
-32.77
-32.10
-29.70
-25.99
-21.67
-17.42
-13.72
-10.71
-8.22
-5.88
-3.39
-0.59
2.41
5.32
7.77
9.41
10.06
9.69
8.50
6.83
5.15
3.92
3.53
4.13
5.64
7.74
9.94
11.74
12.74
12.67
11.46
9.22
6.15
2.51
-1.42
-5.39
-9.13
-12.36
-14.76
-16.11
-16.32
-15.48
-13.90
-11.97
-10.09
-8.53
-7.41
-6.70
-6.31
-6.06
-5.73
-5.08
-3.81
-1.76
1.07
4.40
7.76
10.62
12.56
13.39
13.16
12.00
10.09
7.55
4.52
1.19
-2.13
-5.05
-7.21
-8.38
-8.50
-7.66
-6.12
-4.20
-2.27
-0.75
0.04
-0.11
-1.18
-2.84
-4.63
-5.95
-6.31
-5.39
-3.08
0.56
5.29
10.77
16.53
21.93
26.25
28.76
28.93
26.57
21.92
15.59
8.35
1.00
-5.85
-11.78
-16.57
-20.09
-22.20
-22.80
-21.84
-19.46
-16.05
-12.23
-8.62
-5.72
-3.74
-2.58
-2.02
-1.93
-2.34
-3.46
-5.42
-8.12
-11.17
-13.95
-15.81
-16.30
-15.22
-12.67
-8.96
-4.49
0.32
5.02
9.23
12.55
14.71
15.56
15.16
13.81
11.95
10.06
8.54
7.57
7.19
7.28
7.71
8.34
9.09
9.87
10.66
11.46
12.38
13.58
15.24
17.51
20.41
23.78
27.28
30.50
33.12
35.03
36.40
37.53
38.75
40.15
41.51
42.28
41.80
39.49
35.09
28.74
20.94
12.47
4.15
-3.30
-9.43
-14.20
-17.84
-20.77
-23.31
-25.69
-27.93
-30.02
-31.93
-33.72
-35.49
-37.37
-39.50
-42.05
-45.20
-48.98
-53.14
-57.00
-59.47
-59.33
-55.64
-48.10
-37.21
-24.12
-10.29
2.87
14.25
23.09
28.96
31.75
31.62
29.09
24.97
20.14
15.37
11.03
7.07
3.13
-1.16
-5.98
-11.15
-16.22
-20.64
-23.97
-25.99
-26.81
-26.77
-26.27
-25.63
-24.96
-24.03
-22.40
-19.65
-15.55
-10.29
-4.40
1.37
6.31
9.95
12.14
13.01
12.82
11.87
10.32
8.30
5.86
3.09
0.17
-2.62
-4.94
-6.52
-7.30
-7.46
-7.33
-7.18
-7.15
-7.23
-7.32
-7.30
-7.15
-7.02
-7.13
-7.58
-8.21
-8.74
-8.84
-8.12
-6.17
-2.67
2.39
8.69
15.62
22.60
29.00
34.23
38.01
40.43
41.86
42.72
43.44
44.45
46.21
48.75
51.28
52.48
50.96
45.69
36.31
23.26
6.86
-10.56
-25.55
-35.59
-40.07
-39.87
-36.33
-30.64
-23.85
-16.79
-10.39
-4.61
0.35
4.28
7.14
8.97
9.81
9.74
8.89
7.60
6.06
4.07
1.41
-1.89
-5.62
-9.48
-13.14
-16.20
-18.19
-18.77
-18.12
-16.57
-14.39
