1699546842.00
64.000000
-0.00
-0.00
-0.00
-0.00
-0.00
-0.00
-0.00
-0.00
-0.00
-0.00
0.00
0.01
0.01
-0.00
-0.03
-0.05
-0.05
0.00
0.13
0.36
0.66
1.01
1.37
1.72
2.06
2.40
2.79
3.24
3.80
4.42
5.06
5.66
6.20
6.68
7.15
7.68
8.31
9.14
10.09
11.04
11.88
12.56
13.14
13.76
14.65
15.96
17.91
20.32
22.90
25.38
27.58
29.57
31.68
34.32
37.81
42.54
48.15
54.10
59.83
64.97
69.58
74.14
79.34
85.71
93.76
103.00
112.62
121.73
129.77
136.75
143.30
150.74
157.79
166.68
178.00
191.83
206.96
220.46
228.01
225.00
208.06
176.33
132.21
79.51
22.53
-35.51
-93.08
-149.93
-206.13
-261.36
-314.77
-364.87
-410.79
-451.86
-487.55
-517.00
-538.79
-551.10
-552.07
-540.54
-516.31
-480.66
-435.87
-384.71
-329.88
-273.55
-217.22
-161.92
-108.50
-57.84
-11.14
30.36
65.69
94.45
116.92
134.02
146.94
156.73
164.00
168.76
170.70
169.50
165.20
158.39
150.08
141.38
133.12
125.59
118.52
111.35
103.48
94.45
83.97
72.07
59.36
47.27
38.06
34.16
37.22
47.07
61.42
76.51
88.54
95.10
95.87
92.42
86.77
80.44
74.05
67.53
60.79
54.11
48.13
43.50
40.32
38.12
36.08
33.43
29.83
25.48
20.95
16.87
13.75
11.77
10.82
10.61
10.75
10.82
10.55
9.82
8.75
7.57
6.54
5.74
5.09
4.48
3.91
3.55
3.56
3.90
4.20
3.78
2.05
-1.22
-5.71
-10.68
-15.18
-18.44
-20.04
-19.98
-18.64
-16.63
-14.70
-13.52
-13.46
-14.43
-15.97
-17.40
-18.17
-18.05
-17.08
-15.47
-13.34
-10.72
-7.65
-4.25
-0.81
2.30
4.71
6.21
6.72
6.30
5.09
3.31
1.27
-0.65
-2.13
-2.95
-3.00
-2.27
-0.85
1.15
3.57
6.19
8.72
10.93
12.60
13.69
14.21
14.21
13.79
13.19
12.71
12.68
13.30
14.60
16.33
18.19
19.83
21.00
21.47
21.05
19.55
16.99
13.42
9.19
4.76
0.59
-3.08
-6.20
-8.85
-11.07
-12.77
-13.78
-13.89
-13.03
-11.28
-8.97
-6.54
-4.54
-3.54
-4.03
-6.32
-10.40
-15.92
-22.23
-28.46
-33.67
-37.07
-38.21
-37.10
-34.19
-30.22
-26.02
-22.21
-19.06
-16.44
-13.94
-11.16
-7.92
-4.39
-0.97
1.83
3.65
4.41
4.34
3.76
3.00
2.20
1.27
0.12
-1.39
-3.28
-5.34
-7.10
-7.95
-7.24
-4.59
0.01
6.21
13.22
20.07
25.88
30.10
32.55
33.36
32.85
30.57
26.68
21.63
16.00
10.36
5.11
0.30
-4.32
-9.10
-14.24
-19.56
-24.66
-29.13
-32.76
-35.59
-37.91
-40.08
-42.28
-44.51
-46.52
-48.08
-49.09
-49.56
-49.45
-48.62
-46.87
-44.09
-40.47
-36.50
-32.83
-29.92
-27.72
-25.56
-22.44
-17.53
-10.58
-2.04
7.22
16.28
24.51
31.63
37.44
41.62
43.63
42.95
39.48
33.81
27.16
21.02
16.47
13.81
12.45
11.31
9.42
6.46
2.99
0.21
-0.76
0.59
3.70
7.17
9.38
9.25
6.82
3.20
0.06
-1.19
-0.06
2.86
6.29
8.90
9.99
9.61
8.37
6.95
5.72
4.74
3.94
3.41
3.48
4.59
6.95
10.32
14.03
17.29
19.55
20.71
21.11
21.34
21.86
22.84
24.09
25.18
25.63
25.08
23.48
21.12
18.53
16.34
15.05
14.82
15.48
16.60
17.69
18.41
18.62
18.37
17.87
17.39
17.23
17.68
18.89
20.85
23.41
26.26
29.04
31.38
33.01
33.87
34.27
35.01
37.17
41.83
49.50
59.85
71.73
83.59
94.10
102.68
109.53
115.35
120.74
125.77
129.76
131.40
128.99
120.80
105.48
82.52
52.71
18.37
-16.95
-49.24
-75.22
-93.21
-103.60
-108.32
-109.96
-110.75
-112.01
-114.15
-116.94
-119.94
-122.59
-124.29
-124.44
-122.60
-118.64
-112.85
-105.78
-97.95
-89.72
-81.26
-72.82
-64.91
-58.33
-53.78
-51.56
-51.36
-52.58
-54.68
-57.60
-61.74
-67.42
-74.38
-81.40
-86.60
-88.24
-85.58
-79.15
-70.39
-60.81
-51.27
-41.87
-32.33
-22.69
-13.52
-5.74
-0.04
3.48
5.29
5.99
5.82
4.56
1.86
-2.23
-7.01
-11.32
-14.13
-15.19
-15.16
-15.45
-17.45
-21.96
-28.85
-37.17
-45.64
-53.08
-58.66
-61.90
-62.52
-60.42
-55.72
-49.00
-41.19
-33.38
-26.33
-20.14
-14.27
-7.90
-0.44
8.28
18.01
28.44
39.47
51.11
63.32
75.67
87.30
97.10
104.10
107.89
108.73
107.54
105.50
103.69
102.72
102.58
102.76
102.46
100.96
97.80
92.88
86.33
78.37
69.24
59.30
49.06
39.27
30.69
23.89
19.05
15.84
13.71
12.04
10.46
8.88
7.44
6.30
5.55
5.16
5.02
5.05
5.16
5.23
5.00
4.16
2.43
-0.23
-3.52
-6.85
-9.55
-11.19
-11.70
-11.41
-10.80
-10.24
-9.78
-9.18
-8.07
-6.29
-3.99
-1.64
0.17
1.01
0.80
-0.15
-1.35
-2.35
-2.93
-3.12
-3.10
-2.99
-2.80
-2.36
-1.50
-0.20
1.38
2.97
4.29
5.19
5.69
5.81
5.53
4.69
3.09
0.70
-2.28
-5.48
-8.44
-10.89
-12.75
-14.14
-15.20
-15.92
-16.15
-15.69
-14.44
-12.48
-10.05
-7.44
-4.87
-2.49
-0.34
1.56
3.13
4.29
4.97
5.16
4.94
4.48
3.99
3.68
3.66
3.93
4.40
4.92
5.33
5.52
5.45
5.14
4.63
3.99
3.21
2.26
1.10
-0.28
-1.82
-3.43
-5.02
-6.52
-7.93
-9.20
-10.26
-10.93
-10.96
-10.22
-8.68
-6.59
-4.33
-2.31
-0.82
0.06
0.43
0.48
0.36
0.19
0.01
-0.18
-0.32
-0.34
-0.17
0.21
0.75
1.36
1.94
2.40
2.69
2.78
2.69
2.39
1.91
1.25
0.46
-0.40
-1.22
-1.91
-2.36
-2.58
-2.65
-2.70
-2.92
-3.40
-4.10
-4.82
-5.27
-5.22
-4.58
-3.54
-2.54
-2.13
-2.80
-4.77
-7.87
-11.58
-15.13
-17.84
-19.28
-19.43
-18.67
-17.50
-16.36
-15.46
-14.74
-14.03
-13.17
-12.13
-10.85
-9.29
-7.26
-4.55
-1.08
3.03
7.37
11.40
14.64
16.89
18.19
18.78
18.92
18.77
18.36
17.64
16.58
15.22
13.64
11.95
10.23
8.54
6.93
5.49
4.38
3.78
3.85
4.65
6.07
7.87
9.73
11.36
12.61
13.55
14.40
15.33
16.43
17.68
19.06
20.55
22.20
24.12
26.47
29.41
33.06
37.56
43.07
49.73
57.50
66.14
75.05
83.60
91.15
97.18
101.47
104.26
106.15
107.76
109.51
111.13
112.14
111.40
107.22
97.62
81.06
57.01
26.00
-9.94
-47.95
-83.67
-113.04
-133.55
-144.88
-148.55
-146.85
-142.35
-136.18
-128.64
-117.61
-101.11
-78.80
-52.39
-24.78
1.58
24.71
44.82
62.48
80.61
101.59
126.25
153.80
182.73
212.12
240.79
269.14
281.19
265.36
220.32
157.46
93.00
38.06
2.33
-20.42
-36.17
-49.26
-59.81
-66.82
-71.60
-75.56
-80.61
-88.05
-99.07
-112.60
-127.29
-140.13
-148.65
-152.03
-151.23
-148.46
-145.52
-143.94
-143.17
-142.31
-139.53
-133.58
-124.43
-113.19
-101.62
-91.07
-82.58
-75.71
-69.79
-63.67
-56.61
-48.52
-39.82
-31.28
-23.40
-16.50
-10.28
-4.41
1.45
7.37
13.10
18.21
22.19
24.69
25.49
24.68
22.47
19.12
15.00
10.63
6.62
3.54
1.77
1.28
1.69
2.37
2.73
2.43
1.47
0.14
-1.15
-2.03
-2.33
-2.08
-1.49
-0.88
-0.58
-0.76
-1.42
-2.36
-3.33
-4.13
-4.72
-5.13
-5.43
-5.60
-5.53
-5.17
-4.56
-3.92
-3.54
-3.61
-4.09
-4.77
-5.34
-5.61
-5.60
-5.47
-5.47
-5.68
-6.06
-6.40
-6.49
-6.21
-5.59
-4.78
-3.91
-3.08
-2.29
-1.49
-0.62
0.36
1.41
2.42
3.28
3.89
4.19
4.22
4.10
4.02
4.17
4.71
5.64
6.84
8.10
9.20
9.99
10.41
10.48
10.23
9.66
8.84
7.89
6.98
6.29
5.94
5.92
6.13
6.42
6.69
6.87
6.94
6.90
6.73
6.40
5.93
5.43
5.05
4.93
5.09
5.41
5.68
5.64
5.13
4.12
2.77
1.40
0.37
-0.03
0.38
1.54
3.24
5.09
6.61
7.30
6.81
5.01
2.15
-1.20
-4.26
-6.31
-6.90
-6.05
-4.22
-2.07
-0.20
1.05
1.68
1.97
2.17
2.41
2.61
2.56
2.02
0.84
-1.02
-3.52
-6.54
-9.98
-13.69
-17.59
-21.56
-25.46
-29.10
-32.27
-34.72
-36.33
-37.10
-37.19
-36.81
-36.03
-34.72
-32.52
-29.04
-24.13
-18.04
-11.45
-5.28
-0.41
2.54
3.40
2.41
0.14
-2.79
-5.87
-8.86
-11.89
-15.29
-19.39
-24.24
-29.47
-34.38
-38.26
-40.72
-41.85
-42.11
-41.92
-41.22
-39.27
-34.79
-26.52
-13.95
2.21
20.02
36.86
50.23
58.55
61.74
61.32
60.14
61.64
68.82
82.97
102.71
123.73
139.59
143.58
131.09
101.52
58.79
10.26
-35.51
-71.30
-93.04
-100.56
-96.98
-87.28
-76.46
-68.05
-63.22
-61.02
-59.30
-55.92
-49.76
-40.83
-29.85
-17.45
-3.62
12.32
31.45
54.62
82.10
113.16
145.99
177.70
204.70
223.51
231.78
229.04
216.67
197.30
173.87
148.89
124.28
101.62
82.35
67.56
57.56
51.54
47.63
43.50
37.26
28.16
16.69
4.04
-8.60
-20.58
-31.81
-42.44
-52.46
-61.58
-69.10
-74.34
-76.85
-76.77
-74.65
-71.22
-67.21
-63.29
-60.04
-57.85
-56.88
-57.05
-58.46
-60.99
-64.16
-67.26
-69.68
-71.04
-71.11
-69.97
-67.82
-65.87
-65.07
-65.49
-66.21
-65.88
-63.30
-57.50
-48.29
-36.04
-23.05
-11.56
-2.96
2.25
3.65
0.36
-8.38
-23.33
-44.12
-71.03
-102.84
-136.55
-168.23
-194.65
-214.37
-227.06
-233.77
-223.81
-192.83
-145.98
-95.61
-52.72
-21.74
-3.88
6.77
14.66
22.52
29.74
35.46
40.03
44.72
50.81
58.58
67.62
76.44
83.89
88.33
89.54
89.12
89.60
93.04
99.94
109.71
120.55
130.73
138.03
141.11
139.88
135.42
129.25
122.66
116.67
111.62
107.68
104.48
101.68
99.00
96.13
92.52
87.49
80.71
72.29
62.94
53.45
44.33
35.61
26.86
17.60
7.66
-2.64
-12.74
-22.16
-30.86
-39.10
-47.19
-55.01
-61.91
-66.90
-69.15
-68.43
-65.19
-60.41
-55.14
-50.12
-45.68
-41.80
-38.35
-35.35
-32.97
-31.50
-31.17
-31.98
-33.73
-36.04
-38.51
-40.87
-43.09
-45.32
-47.76
-50.53
-53.52
-56.36
-58.50
-59.35
-58.47
-55.72
-51.37
-45.92
-39.94
-33.81
-27.58
-21.05
-13.95
-6.22
1.99
10.38
18.69
26.77
34.53
41.95
49.00
55.77
62.45
69.35
76.70
84.41
92.03
98.83
104.12
107.50
109.06
109.28
108.83
108.40
108.61
109.90
112.50
116.35
121.01
125.80
129.91
132.64
133.46
132.10
128.44
122.47
114.32
104.26
92.67
79.90
66.17
51.55
36.12
20.13
4.21
-10.77
-23.90
-34.59
-42.83
-49.08
-54.14
-58.80
-63.63
-68.95
-74.98
-81.94
-90.02
-99.15
-108.81
-117.98
-125.39
-129.97
-131.31
-129.80
-126.37
-122.07
-117.57
-113.02
-108.14
-102.45
-95.43
-86.62
-75.58
-62.05
-46.22
-28.88
-11.49
4.32
17.20
26.58
32.69
36.11
37.37
36.62
33.68
28.41
20.97
12.03
2.52
-6.64
-14.79
-21.69
-27.34
-31.73
-34.51
-34.83
-31.54
-23.62
-10.73
6.33
25.60
44.34
59.90
70.48
75.61
76.09
73.53
69.69
65.98
63.19
61.38
60.03
58.23
55.11
50.20
43.78
36.84
30.80
27.00
26.25
28.44
32.44
36.31
37.79
34.98
27.12
15.28
2.39
-7.68
-11.87
-9.76
-4.44
-1.77
-8.07
-27.54
-60.58
-104.11
-153.43
-204.48
-255.14
-304.98
-353.82
-400.21
-440.96
-471.76
-488.68
-489.35
-473.46
-442.28
-397.93
-342.68
-278.80
-208.85
-136.13
-64.81
0.54
55.92
98.87
129.15
148.59
160.25
167.21
171.51
173.74
173.38
169.54
161.79
150.50
136.83
122.32
108.41
96.13
86.00
78.02
71.83
66.95
62.90
59.35
56.08
52.90
49.53
45.56
40.48
33.94
25.95
17.00
7.98
-0.07
-6.32
-10.37
-12.28
-12.30
-10.66
-7.42
-2.68
3.25
9.71
15.74
20.40
23.11
23.74
22.62
20.30
17.33
14.18
11.24
8.93
7.62
7.66
9.14
11.92
15.60
19.60
23.37
26.51
28.87
30.57
31.90
33.11
34.31
35.40
36.18
36.52
36.48
36.42
36.68
37.45
38.58
39.64
40.18
39.97
39.18
38.18
37.39
37.08
37.39
38.41
40.20
42.62
45.01
46.06
44.07
37.58
26.05
10.34
-7.44
-24.61
-38.78
-48.53
-53.54
-54.36
-51.99
-47.51
-41.94
-36.21
-31.14
-27.28
-24.77
-23.23
-21.82
-19.56
-15.68
-9.93
-2.74
4.92
11.86
17.09
20.11
21.00
20.28
18.63
16.58
14.44
12.33
10.31
8.42
6.72
5.18
3.69
2.06
0.14
-2.15
-4.75
-7.46
-9.99
-11.94
-12.95
-12.71
-11.09
-8.20
-4.36
-0.06
4.19
7.95
10.98
13.14
14.42
14.84
14.53
13.68
12.61
11.60
10.87
10.45
10.20
9.88
9.26
8.29
7.13
6.09
5.47
5.52
6.24
7.45
8.88
10.24
11.35
12.16
12.71
13.04
13.16
13.01
12.51
11.69
10.61
9.39
8.11
6.71
5.03
2.87
0.16
-2.95
-6.02
-8.42
-9.58
-9.16
-7.16
-3.89
0.19
4.65
9.18
13.56
17.58
20.95
23.34
24.55
24.60
23.80
22.61
21.50
20.71
20.17
19.65
18.79
17.34
15.19
12.48
9.44
6.40
3.59
1.11
-1.14
-3.32
-5.53
-7.70
-9.59
-10.99
-11.86
-12.40
-12.96
-13.83
-15.15
-16.80
-18.48
-19.91
-20.86
-21.13
-20.52
-18.81
-15.85
-11.64
-6.45
-0.69
5.19
10.91
16.37
21.56
26.35
30.46
33.47
34.94
34.70
32.90
30.01
26.68
23.49
20.79
18.57
16.61
14.59
12.35
9.90
7.46
5.26
3.44
1.93
0.58
-0.80
-2.23
-3.61
-4.79
-5.69
-6.38
-7.02
-7.78
-8.70
-9.66
-10.54
-11.25
-11.86
-12.54
-13.36
-14.24
-14.79
-14.54
-13.05
-10.13
-5.96
-0.95
4.34
9.36
13.62
16.74
18.37
18.30
16.54
13.33
9.19
4.77
0.65
-2.81
-5.51
-7.57
-9.22
-10.67
-12.06
-13.39
-14.59
-15.57
-16.28
-16.71
-16.88
-16.83
-16.55
-16.05
-15.28
-14.29
-13.16
-12.03
-11.04
-10.21
-9.49
-8.81
-8.14
-7.61
-7.43
-7.77
-8.66
-9.86
-10.94
-11.47
-11.15
-9.92
-7.96
-5.50
-2.68
0.53
4.25
8.46
12.90
17.06
20.35
22.37
23.01
22.44
20.98
18.89
16.35
13.49
10.53
7.75
5.38
3.46
1.80
0.04
-2.08
-4.67
-7.65
-10.81
-13.94
-16.87
-19.42
-21.41
-22.65
-23.06
-22.74
-22.00
-21.17
-20.52
-20.14
-19.98
-19.96
-20.05
-20.28
-20.71
-21.37
-22.24
-23.22
-24.17
-24.90
-25.18
-24.72
-23.29
-20.76
-17.14
-12.64
-7.59
-2.41
2.48
6.69
9.97
12.19
13.33
13.52
12.95
11.89
10.63
9.47
8.62
8.20
8.18
8.45
8.84
9.23
9.55
9.79
9.90
9.82
9.46
8.82
7.98
7.08
6.28
5.61
5.02
4.32
3.38
2.11
0.55
-1.21
-3.11
-5.12
-7.27
-9.61
-12.18
-14.98
-17.91
-20.79
-23.35
-25.21
-26.06
-25.63
-23.78
-20.53
-16.08
-10.76
-5.03
0.52
5.31
8.83
10.84
11.40
10.94
10.08
9.43
9.45
10.29
11.84
13.86
16.07
18.26
20.25
21.90
23.07
23.65
23.66
23.25
22.67
22.13
21.72
21.32
20.76
19.85
18.58
17.10
15.60
14.22
12.95
11.62
10.06
8.22
6.23
4.40
3.09
2.55
2.82
3.73
4.99
6.27
7.39
8.31
9.03
9.59
9.91
9.83
9.24
8.09
6.46
4.52
2.40
0.25
-1.78
-3.49
-4.57
-4.80
-4.11
-2.75
-1.20
-0.02
0.33
-0.30
-1.84
-4.02
-6.54
-9.15
-11.65
-13.85
-15.67
-17.10
-18.26
-19.38
-20.65
-22.14
-23.61
-24.53
-24.17
-21.86
-17.20
-10.28
-1.71
7.58
16.44
23.84
29.03
31.58
31.40
28.61
23.52
16.55
8.34
-0.33
-8.53
-15.38
-20.24
-22.87
-23.47
-22.59
-20.87
-18.80
-16.64
-14.45
-12.17
-9.90
-7.78
-6.03
-4.75
-3.87
-3.24
-2.71
-2.33
-2.31
-2.97
-4.48
-6.76
-9.45
-11.99
-13.85
-14.69
-14.41
-13.18
-11.29
-9.06
-6.82
-4.83
-3.26
-2.26
-1.89
-2.17
-3.03
-4.36
-5.99
-7.64
-8.93
-9.44
-8.82
-6.91
-3.87
-0.20
3.47
6.51
8.57
9.55
9.55
8.77
7.34
5.40
3.11
0.71
-1.50
-3.24
-4.42
-5.09
-5.47
-5.84
-6.42
-7.31
-8.45
-9.63
-10.60
-11.10
-10.86
-9.72
-7.61
-4.54
-0.66
3.72
8.18
12.23
15.43
17.49
18.38
18.30
17.61
16.71
15.94
15.50
15.50
15.94
16.76
17.86
19.13
20.39
21.45
22.16
22.39
22.15
21.49
20.49
19.22
17.70
15.96
14.11
12.37
10.97
10.06
9.58
9.31
8.94
8.24
7.10
5.54
3.64
1.47
-0.90
-3.33
-5.63
-7.56
-8.87
-9.37
-8.89
-7.39
-4.90
-1.62
2.15
6.01
9.59
12.61
14.97
16.63
17.63
17.95
17.63
16.73
15.33
13.60
11.63
9.44
6.93
3.96
0.51
-3.31
-7.26
-10.98
-14.11
-16.37
-17.60
-17.77
-17.06
-15.75
-14.25
-13.00
-12.22
-11.90
-11.69
-10.99
-9.22
-6.04
-1.51
3.91
9.46
14.40
18.12
20.26
20.73
19.59
17.06
13.48
9.33
5.20
1.72
-0.67
-1.77
-1.71
-0.88
0.22
1.25
2.01
2.58
3.15
3.87
4.75
5.63
6.21
6.27
5.71
4.64
3.28
1.92
0.77
-0.11
-0.80
-1.48
-2.37
-3.58
-5.08
-6.66
-7.99
-8.67
-8.41
-7.05
-4.66
-1.43
2.24
5.95
9.25
11.78
13.35
13.91
13.61
12.66
11.29
9.70
8.06
6.54
5.32
4.55
4.29
4.46
4.82
5.14
5.22
5.04
4.63
4.06
3.30
2.26
0.86
-0.91
-2.94
-5.03
-6.98
-8.65
-10.04
-11.23
-12.31
-13.34
-14.36
-15.41
-16.46
-17.46
-18.28
-18.75
-18.74
-18.16
-17.09
-15.62
-13.88
-11.92
-9.73
-7.31
-4.71
-2.08
0.35
2.36
3.80
4.61
4.80
4.47
3.75
2.84
1.96
1.31
1.05
1.27
2.02
3.26
4.95
6.94
9.02
10.93
12.41
13.29
13.51
13.18
12.50
11.71
10.99
10.41
9.94
9.47
8.90
8.19
7.42
6.76
6.37
6.37
6.80
7.62
8.82
10.46
12.66
15.58
19.31
23.84
29.04
34.66
40.38
45.67
49.85
52.12
51.65
47.93
40.95
31.35
20.29
9.21
-0.47
-7.69
-11.86
-13.00
-11.59
-8.48
-4.65
-0.98
1.93
3.83
4.79
5.04
4.80
4.20
3.29
2.06
0.54
-1.24
-3.22
-5.42
-7.85
-10.51
-13.31
-16.03
-18.35
-19.88
-20.32
-19.54
-17.62
-14.87
-11.69
-8.52
-5.65
-3.26
-1.38
-0.02
0.80
1.03
0.67
-0.21
-1.44
-2.71
-3.77
-4.41
-4.56
-4.33
-3.86
-3.39
-3.08
-3.03
-3.25
-3.64
-4.07
-4.41
-4.65
-4.88
-5.28
-5.98
-6.98
-8.20
-9.47
-10.69
-11.84
-12.94
-14.02
-15.01
-15.82
-16.34
-16.58
-16.58
-16.45
-16.20
-15.74
-14.96
-13.78
-12.28
-10.64
-9.11
-7.79
-6.72
-5.81
-5.02
-4.38
-3.96
-3.83
-3.92
-4.07
-4.06
-3.74
-3.04
-1.97
-0.66
0.76
2.10
3.12
3.57
3.26
2.17
0.49
-1.46
-3.30
-4.76
-5.69
-6.03
-5.79
-4.95
-3.58
-1.81
0.09
1.81
3.04
3.63
3.57
3.06
2.36
1.74
1.38
1.33
1.53
1.86
2.19
2.48
2.73
2.97
3.23
3.45
3.56
3.44
3.02
2.33
1.43
0.49
-0.33
-0.87
-1.06
-0.88
-0.39
0.33
1.19
2.06
2.77
3.15
3.08
2.50
1.49
0.23
-1.06
-2.19
-3.09
-3.82
-4.47
-5.17
-5.96
-6.84
-7.81
-8.84
-9.90
-10.96
-11.94
-12.72
-13.21
-13.30
-12.94
-12.16
-11.04
-9.73
-8.36
-7.03
-5.75
-4.49
-3.23
-1.95
-0.72
0.37
1.23
1.81
2.07
2.01
1.60
0.86
-0.20
-1.45
-2.73
-3.88
-4.78
-5.42
-5.85
-6.07
-6.03
-5.63
-4.76
-3.44
-1.85
-0.28
0.90
1.40
1.07
-0.06
-1.75
-3.63
-5.27
-6.35
-6.72
-6.47
-5.83
-5.14
-4.65
-4.49
-4.67
-5.12
-5.74
-6.46
-7.17
-7.74
-8.02
-7.87
-7.20
-6.04
-4.48
-2.74
-1.03
0.46
1.61
2.43
2.95
3.20
3.14
2.65
1.62
-0.02
-2.23
-4.86
-7.70
-10.52
-13.18
-15.62
-17.85
-19.93
-21.95
-24.00
-26.16
-28.41
-30.68
-32.80
-34.54
-35.69
-36.09
-35.72
-34.64
-33.06
-31.21
-29.25
-27.27
-25.21
-23.01
-20.70
-18.44
-16.49
-15.16
-14.68
-15.06
-16.19
-17.87
-19.93
-22.28
-24.78
-27.19
-29.14
-30.12
-29.70
-27.63
-23.91
-18.81
-12.71
-6.02
0.94
7.89
14.58
20.78
26.16
30.41
33.15
34.14
33.28
30.69
26.70
21.79
16.50
11.33
6.72
3.03
0.59
-0.32
0.47
2.97
7.02
12.31
18.42
24.85
31.07
36.60
41.01
44.08
45.86
46.65
46.88
46.96
47.13
47.39
47.57
47.44
46.80
45.59
43.83
41.59
38.94
35.93
32.63
29.09
25.45
21.84
18.43
15.33
12.59
10.18
8.05
6.09
4.23
2.40
0.56
-1.29
-3.13
-4.85
-6.38
-7.58
-8.32
-8.49
-7.97
-6.70
-4.72
-2.20
0.59
3.32
5.69
7.51
8.74
9.42
9.66
9.57
9.21
8.65
7.98
7.36
6.93
6.83
7.10
7.62
8.24
8.76
9.08
9.20
9.18
9.11
9.03
8.90
8.66
8.27
7.70
6.95
6.01
4.83
3.39
1.71
-0.13
-2.01
-3.75
-5.21
-6.25
-6.83
-6.91
-6.54
-5.79
-4.77
-3.61
-2.48
-1.57
-1.03
-0.96
-1.32
-1.91
-2.40
-2.53
-2.15
-1.35
-0.38
0.48
1.05
1.37
1.67
2.22
3.19
4.60
6.27
7.95
9.44
10.66
11.69
12.73
13.98
15.65
17.81
20.50
23.62
26.93
29.97
32.12
32.77
31.54
28.53
24.32
19.77
15.67
12.48
10.20
8.60
7.45
6.74
6.60
7.15
8.25
9.53
10.48
10.74
10.23
9.10
7.65
6.11
4.69
3.55
2.87
2.85
3.54
4.83
6.48
8.19
9.78
11.25
12.70
14.14
15.41
16.19
16.19
15.43
14.35
13.69
14.19
16.14
19.22
22.53
24.98
25.65
24.10
20.38
14.86
8.13
0.79
-6.53
-13.20
-18.74
-22.99
-26.24
-29.15
-32.41
-36.36
-40.74
-44.78
-47.63
-48.86
-48.71
-48.01
-47.76
-48.55
-50.39
-52.72
-54.89
-56.53
-57.71
-58.78
-60.00
-61.23
-61.92
-61.40
-59.30
-55.83
-51.71
-47.93
-45.26
-44.03
-44.10
-45.01
-46.22
-47.16
-47.33
-46.16
-43.13
-37.89
-30.49
-21.46
-11.76
-2.39
5.88
12.76
18.38
23.01
26.79
29.54
30.92
30.70
28.98
26.39
23.87
22.34
22.32
23.65
25.59
27.18
27.65
26.76
24.84
22.50
20.33
18.54
16.91
14.99
12.45
9.28
5.86
2.78
0.52
-0.80
-1.44
-1.97
-2.94
-4.64
-6.94
-9.31
-11.05
-11.59
-10.70
-8.60
-5.84
-3.02
-0.59
1.28
2.63
3.58
4.15
4.32
4.00
3.25
2.29
1.49
1.17
1.45
2.20
3.10
3.79
4.10
4.04
3.83
3.67
3.69
3.86
4.10
4.32
4.50
4.66
4.79
4.92
4.97
4.92
4.73
4.41
4.04
3.68
3.42
3.35
3.48
3.76
4.05
4.14
3.81
2.92
1.45
-0.46
-2.61
-4.73
-6.65
-8.30
-9.66
-10.75
-11.54
-11.91
-11.77
-11.07
-9.91
-8.51
-7.09
-5.84
-4.77
-3.79
-2.81
-1.80
-0.85
-0.09
0.42
0.74
1.05
1.52
2.21
3.03
3.79
4.28
4.42
4.30
4.20
4.53
5.67
7.80
10.83
14.37
17.90
20.94
23.25
24.88
26.16
27.51
29.26
31.59
34.44
37.57
40.62
43.08
44.36
43.88
41.21
36.30
29.58
21.86
14.10
7.11
1.25
-3.51
-7.51
-11.08
-14.33
-17.15
-19.29
-20.59
-21.18
-21.42
-21.80
-22.69
-24.20
-26.11
-28.02
-29.55
-30.50
-30.95
-31.17
-31.46
-32.01
-32.79
-33.64
-34.31
-34.68
-34.69
-34.33
-33.60
-32.38
-30.50
-27.79
-24.21
-19.93
-15.33
-10.96
-7.35
-4.85
-3.57
-3.31
-3.71
-4.35
-4.96
-5.41
-5.70
-5.90
-6.02
-6.05
-5.94
-5.68
-5.30
-4.93
-4.68
-4.64
-4.80
-5.09
-5.34
-5.34
-4.89
-3.88
-2.32
-0.34
1.90
4.21
6.45
8.56
10.44
11.95
12.87
12.99
12.27
10.92
9.37
8.08
7.39
7.33
7.73
8.28
8.75
9.07
9.27
9.37
9.34
9.05
8.38
7.38
6.17
4.97
3.93
3.09
2.36
1.61
0.77
-0.19
-1.20
-2.16
-3.00
-3.68
-4.24
-4.75
-5.19
-5.48
-5.40
-4.69
-3.21
-1.03
1.52
3.99
5.96
7.22
7.79
7.87
7.64
7.24
6.74
6.20
5.72
5.39
5.28
5.36
5.53
5.69
5.77
5.74
5.63
5.41
4.99
4.32
3.36
2.26
1.19
0.38
-0.06
-0.16
-0.09
-0.07
-0.26
-0.73
-1.43
-2.22
-2.97
-3.59
-3.97
-4.00
-3.53
-2.46
-0.81
1.23
3.30
5.03
6.17
6.68
6.72
6.51
6.24
5.99
5.75
5.46
5.10
4.69
4.27
3.89
3.57
3.35
3.30
3.43
3.72
4.07
4.39
4.57
4.61
4.56
4.49
4.39
4.21
3.87
3.29
2.46
1.42
0.24
-0.98
-2.12
-3.01
-3.43
-3.17
-2.15
-0.45
1.68
3.95
6.10
7.97
9.54
10.81
11.71
12.12
11.91
11.06
9.75
8.36
7.31
6.89
7.11
7.71
8.27
8.45
8.17
7.61
7.09
6.85
6.91
7.06
6.97
6.40
5.29
3.80
2.23
0.82
-0.29
-1.10
-1.72
-2.32
-3.03
-3.95
-5.08
-6.34
-7.56
-8.52
-8.99
-8.80
-7.90
-6.36
-4.36
-2.14
0.05
2.00
3.56
4.64
5.25
5.42
5.22
4.75
4.11
3.43
2.83
2.46
2.40
2.69
3.27
4.01
4.74
5.33
5.71
5.87
5.84
5.67
5.38
5.00
4.58
4.13
3.66
3.15
2.51
1.69
0.70
-0.39
-1.43
-2.28
-2.86
-3.24
-3.54
-3.91
-4.44
-5.14
-5.95
-6.79
-7.55
-8.14
-8.50
-8.53
-8.14
-7.29
-5.96
-4.28
-2.44
-0.72
0.65
1.50
1.79
1.56
0.94
0.06
-0.89
-1.76
-2.39
-2.66
-2.51
-1.95
-1.13
-0.20
0.64
1.25
1.56
1.53
1.24
0.77
0.24
-0.26
-0.68
-1.01
-1.29
-1.56
-1.88
-2.26
-2.70
-3.18
-3.66
-4.13
-4.55
-4.90
-5.16
-5.29
-5.27
-5.14
-4.98
-4.88
-4.92
-5.09
-5.30
-5.39
-5.19
-4.62
-3.67
-2.40
-0.90
0.75
2.48
4.19
5.74
7.00
7.84
8.21
8.16
7.88
7.60
7.55
7.88
8.61
9.61
10.72
11.72
12.47
12.94
13.23
13.50
13.93
14.63
15.60
16.71
17.75
18.49
18.79
18.65
18.23
17.83
17.74
18.23
19.44
21.33
23.68
26.08
27.95
28.63
27.61
24.65
20.00
14.32
8.51
3.48
-0.14
-2.13
-2.64
-2.09
-1.06
-0.18
-0.04
-1.15
-3.73
-7.69
-12.50
-17.43
-21.73
-24.91
-26.82
-27.60
-27.52
-26.81
-25.63
-24.14
-22.54
-21.08
-19.94
-19.04
-18.00
-16.24
-13.19
-8.57
-2.51
4.44
11.52
17.92
22.96
26.12
27.04
25.58
21.87
16.45
10.18
4.08
-0.95
-4.53
-6.83
-8.43
-9.96
-11.74
-13.67
-15.35
-16.43
-16.89
-17.12
-17.64
-18.80
-20.53
-22.32
-23.56
-23.81
-23.08
-21.77
-20.43
-19.41
-18.75
-18.21
-17.51
-16.58
-15.65
-15.14
-15.40
-16.53
-18.33
-20.44
-22.51
-24.35
-25.94
-27.36
-28.69
-29.94
-31.05
-31.98
-32.73
-33.35
-33.88
-34.26
-34.35
-33.89
-32.60
-30.32
-27.09
-23.12
-18.78
-14.52
-10.77
-7.84
-5.87
-4.77
-4.32
-4.23
-4.27
-4.33
-4.37
-4.42
-4.43
-4.21
-3.48
-2.09
-0.17
1.94
3.77
4.94
5.29
4.92
4.23
3.80
4.02
4.88
5.98
6.69
6.39
4.73
1.89
-1.24
-3.34
-3.49
-1.71
1.02
3.22
3.54
1.32
-3.00
-7.65
-10.22
-8.95
-3.67
4.28
12.73
19.54
23.40
24.19
23.61
24.44
29.28
39.72
56.51
79.78
108.91
141.34
169.07
181.78
173.63
147.19
111.13
75.79
49.19
34.35
27.10
21.20
12.43
0.00
-13.69
-25.04
-31.46
-33.07
-33.16
-32.39
-33.06
-36.08
-40.53
-44.60
-47.07
-47.90
-47.86
-47.81
-48.06
-48.76
-49.26
-48.71
-46.56
-42.53
-36.43
-28.03
-17.33
-4.80
8.32
20.87
31.98
41.11
47.79
51.53
51.98
49.19
43.89
37.25
30.86
26.14
23.81
23.72
25.12
27.03
28.62
29.36
28.86
27.01
23.94
20.13
16.36
13.57
12.45
13.11
14.89
16.55
16.77
14.79
10.72
5.47
0.28
-3.83
-6.54
-8.19
-9.52
-11.18
-13.43
-15.98
-18.21
-19.48
-19.52
-18.57
-17.29
-16.43
-16.40
-17.09
-17.88
-18.03
-17.01
-14.84
-12.04
-9.38
-7.45
-6.51
-6.34
-6.51
-6.58
-6.32
-5.74
-5.08
-4.64
-4.64
-5.14
-6.01
-7.00
-7.88
-8.54
-9.07
-9.69
-10.65
-12.11
-14.08
-16.45
-18.99
-21.49
-23.78
-25.76
-27.36
-28.54
-29.20
-29.18
-28.25
-26.27
-23.24
-19.40
-15.19
-11.12
-7.65
-5.09
-3.58
-3.07
-3.38
-4.24
-5.32
-6.38
-7.27
-7.97
-8.51
-8.92
-9.16
-9.12
-8.75
-8.08
-7.31
-6.70
-6.48
-6.78
-7.57
-8.74
-10.15
-11.65
-13.12
-14.45
-15.55
-16.44
-17.23
-18.07
-19.11
-20.29
-21.38
-21.93
-21.51
-19.82
-16.85
-12.86
-8.31
-3.65
0.74
4.59
7.74
10.06
11.43
11.81
11.23
9.87
8.04
6.13
4.52
3.49
3.17
3.45
4.09
4.79
5.30
5.51
5.47
5.30
5.11
4.94
4.65
4.05
2.94
1.25
-0.93
-3.37
-5.82
-8.11
-10.21
-12.16
-14.06
-15.96
-17.82
-19.63
-21.30
-22.69
-23.54
-23.49
-22.09
-19.05
-14.39
-8.55
-2.25
3.71
8.66
12.25
14.44
15.40
15.37
14.57
13.19
11.46
9.66
8.10
7.09
6.79
7.15
7.96
8.90
9.68
10.07
10.04
9.59
8.83
7.80
6.55
5.10
3.49
1.79
0.09
-1.52
-2.99
-4.36
-5.70
-7.15
-8.82
-10.73
-12.83
-14.92
-16.86
-18.55
-20.06
-21.50
-22.96
-24.34
-25.31
-25.42
-24.20
-21.41
-17.11
-11.64
-5.55
0.54
6.09
10.69
14.14
16.39
17.46
17.43
16.42
14.71
12.73
11.07
10.30
10.76
12.43
14.88
17.49
19.63
20.97
21.48
21.42
21.11
20.81
20.66
20.58
20.41
19.89
18.79
16.96
14.43
11.44
8.34
5.53
3.24
1.54
0.26
-0.84
-2.05
-3.55
-5.43
-7.67
-10.09
-12.31
-13.79
-13.93
-12.24
-8.62
-3.36
2.92
9.47
15.71
21.35
26.30
30.54
33.89
36.01
36.50
35.22
32.46
29.00
25.84
23.84
23.37
24.18
25.61
26.83
27.24
26.60
25.01
22.68
19.89
16.84
13.73
10.76
8.12
5.82
3.73
1.56
-0.98
-4.13
-7.89
-12.05
-16.34
-20.47
-24.31
-27.87
-31.25
-34.49
-37.36
-39.33
-39.71
-37.91
-33.81
-27.92
-21.25
-14.99
-10.06
-6.82
-5.11
-4.50
-4.62
-5.28
-6.45
-8.00
-9.54
-10.50
-10.30
-8.72
-6.07
-3.09
-0.65
0.59
0.50
-0.58
-2.02
-3.24
-3.99
-4.32
-4.53
-4.93
-5.76
-7.12
-8.98
-11.25
-13.75
-16.31
-18.72
-20.90
-22.89
-24.81
-26.79
-28.83
-30.74
-32.13
-32.52
-31.45
-28.66
-24.11
-18.04
-10.98
-3.66
3.13
8.71
12.65
14.90
15.60
15.03
13.53
11.45
9.21
7.25
5.97
5.59
6.06
7.07
8.24
9.24
9.86
10.07
9.91
9.46
8.76
7.83
6.64
5.14
3.25
0.97
-1.64
-4.40
-7.08
-9.51
-11.63
-13.52
-15.33
-17.19
-19.13
-21.15
-23.20
-25.23
-27.02
-28.17
-28.07
-26.09
-21.84
-15.43
-7.49
0.92
8.68
14.91
19.16
21.41
21.95
21.18
19.56
17.51
15.39
13.49
12.01
11.05
10.64
10.74
11.25
12.01
12.80
13.38
13.55
13.21
12.38
11.17
9.73
8.16
6.51
4.76
2.92
1.05
-0.76
-2.45
-3.99
-5.47
-7.02
-8.82
-10.92
-13.26
-15.70
-18.08
-20.35
-22.51
-24.52
-26.17
-26.96
-26.23
-23.46
-18.47
-11.65
-3.84
3.90
10.65
15.82
19.14
20.62
20.36
18.61
15.73
12.29
8.97
6.49
5.34
5.67
7.24
9.50
11.82
13.61
14.53
14.51
13.68
12.32
10.68
8.96
7.27
5.58
3.81
1.89
-0.20
-2.37
-4.47
-6.33
-7.81
-8.97
-10.01
-11.21
-12.84
-14.97
-17.43
-19.83
-21.59
-22.10
-20.83
-17.46
-12.03
-5.00
2.80
10.35
16.64
20.93
22.91
22.72
20.83
17.86
14.45
11.11
8.24
6.08
4.72
4.12
4.10
4.43
4.88
5.28
5.55
5.64
5.49
5.00
4.04
2.52
0.43
-2.15
-5.02
-7.94
-10.70
-13.13
-15.19
-16.98
-18.72
-20.72
-23.13
-25.82
-28.33
-29.94
-29.93
-27.83
-23.63
-17.68
-10.60
-3.04
4.36
11.03
16.48
20.28
22.14
22.03
20.26
17.42
14.30
11.58
9.77
9.04
9.28
10.21
11.49
12.78
13.83
14.41
14.39
13.71
12.42
10.72
8.87
7.06
5.37
3.66
1.77
-0.43
-2.92
-5.48
-7.86
-9.88
-11.55
-13.13
-14.97
-17.40
-20.54
-24.14
-27.57
-29.91
-30.18
-27.67
-22.23
-14.36
-5.14
4.12
12.17
18.18
21.86
23.38
23.25
22.02
20.20
18.13
16.06
14.22
12.84
12.19
12.45
13.66
15.62
17.93
20.13
21.80
22.71
22.80
22.22
21.14
19.77
18.20
16.40
14.32
11.89
9.10
6.06
2.90
-0.26
-3.37
-6.51
-9.77
-13.27
-17.10
-21.25
-25.56
-29.70
-33.06
-34.92
-34.54
-31.44
-25.64
-17.66
-8.44
0.92
9.41
16.29
21.12
23.79
24.35
23.10
20.52
17.32
14.34
12.40
12.10
13.61
16.67
20.59
24.50
27.57
29.27
29.47
28.41
26.57
24.42
22.31
20.35
18.47
16.51
14.26
11.51
8.10
3.93
-0.94
-6.33
-11.85
-17.02
-21.46
-25.02
-27.80
-29.99
-31.64
-32.51
-32.08
-29.70
-24.96
-17.93
-9.19
0.30
9.54
17.66
24.14
28.72
31.34
32.08
31.21
29.18
26.68
24.46
23.15
23.04
24.00
25.57
27.14
28.14
28.24
27.29
25.32
22.42
18.70
14.21
8.86
2.39
-5.58
-15.37
-27.05
-40.35
-54.71
-69.47
-84.09
-98.20
-111.58
-124.11
-135.53
-145.42
-153.14
-157.79
-158.36
-153.88
-143.76
-128.10
-107.82
-84.54
-60.08
-35.99
-13.27
7.59
26.36
42.82
56.75
68.20
77.65
86.09
94.72
104.42
115.46
127.36
139.24
150.33
160.44
170.03
180.04
191.28
203.99
217.57
230.74
241.99
250.06
254.24
254.30
250.32
242.44
230.65
214.87
194.88
170.43
141.24
107.15
68.43
26.06
-18.14
-61.70
-102.16
-137.76
-168.05
-193.94
-217.22
-239.78
-262.80
-286.38
-309.71
-331.58
-351.00
-367.45
-380.92
-391.70
-400.14
-406.54
-411.07
-413.78
-414.58
-413.24
-409.43
-402.69
-392.44
-377.97
-358.50
-333.31
-302.08
-265.10
-223.33
-178.21
-131.26
-83.73
-36.75
8.40
50.04
86.21
115.37
137.17
152.79
164.65
175.42
186.91
199.43
211.84
222.20
228.59
229.75
225.37
216.10
203.38
189.12
175.34
163.71
155.20
149.84
146.94
145.40
144.21
142.57
140.01
136.19
130.87
123.99
115.88
107.23
99.00
92.05
86.81
83.11
80.34
77.71
74.57
70.59
65.73
60.12
53.94
47.43
40.85
34.61
29.11
24.72
21.54
19.40
17.87
16.47
14.83
12.88
10.77
8.81
7.21
6.05
5.29
4.81
4.49
4.16
3.52
2.20
-0.07
-3.16
-6.39
-8.61
-8.59
-5.53
0.55
8.72
17.54
25.55
31.76
35.83
37.98
38.65
38.26
37.04
35.09
32.58
29.84
27.37
25.67
25.02
25.31
26.10
26.75
26.73
25.77
23.96
21.55
18.84
16.02
13.07
9.83
6.16
1.97
-2.59
-7.21
-11.48
-15.06
-17.84
-19.95
-21.71
-23.44
-25.27
-27.03
-28.31
-28.64
-27.63
-25.04
-20.78
-14.76
-6.93
2.62
13.37
24.19
33.45
39.48
41.16
38.49
32.65
25.53
18.95
13.96
10.61
8.23
6.12
4.07
2.59
2.51
4.42
8.13
12.70
16.80
19.39
20.25
20.05
19.96
21.15
24.14
28.69
33.99
39.16
43.60
47.11
49.81
51.75
52.80
52.65
51.06
48.06
43.94
39.12
33.87
28.24
22.18
15.88
9.91
5.23
2.78
3.02
5.64
9.60
13.55
16.27
17.05
15.83
13.03
9.36
5.51
2.04
-0.79
-3.02
-5.01
-7.33
-10.68
-15.70
-22.88
-32.40
-44.11
-57.36
-71.15
-84.25
-95.58
-104.47
-110.70
-114.33
-115.24
-112.90
-106.51
-95.41
-79.85
-61.31
-42.39
-26.11
-14.98
-10.28
-11.74
-17.94
-26.93
-37.01
-47.12
-56.84
-66.10
-74.72
-82.17
-87.62
-90.21
-89.37
-85.05
-77.64
-67.87
-56.52
-44.26
-31.68
-19.34
-7.83
2.20
10.27
16.22
20.29
23.13
25.60
28.47
32.22
36.88
42.12
47.39
52.11
55.82
58.30
59.55
59.69
58.95
57.52
55.58
53.23
50.53
47.51
44.19
40.63
36.92
33.18
29.54
26.08
22.84
19.84
17.07
14.56
12.36
10.46
8.74
7.06
5.34
3.71
2.62
2.77
4.80
9.03
15.23
22.76
30.65
37.94
43.74
47.19
47.56
44.30
37.33
27.21
15.21
3.07
-7.49
-15.21
-19.58
-20.86
-19.80
-17.32
-14.21
-11.01
-8.02
-5.45
-3.50
-2.31
-2.01
-2.56
-3.77
-5.33
-6.87
-8.12
-8.93
-9.35
-9.56
-9.80
-10.29
-11.19
-12.53
-14.27
-16.27
-18.25
-19.86
-20.64
-20.13
-18.03
-14.30
-9.26
-3.54
2.06
6.84
10.31
12.26
12.72
11.89
10.06
7.57
4.87
2.38
0.54
-0.40
-0.36
0.45
1.68
2.91
3.83
4.32
4.40
4.15
3.62
2.77
1.54
-0.09
-2.02
-4.01
-5.75
-7.04
-7.88
-8.46
-9.11
-10.16
-11.77
-13.89
-16.18
-18.21
-19.48
-19.62
-18.43
-15.91
-12.24
-7.73
-2.78
2.16
6.61
10.13
12.40
13.30
12.89
11.43
9.33
7.00
4.88
3.30
2.46
2.41
3.05
4.17
5.56
7.03
8.46
9.77
10.86
11.62
11.88
11.54
10.63
9.37
8.09
7.10
6.58
6.52
6.67
6.70
6.30
5.29
3.71
1.86
0.31
-0.22
0.95
4.22
9.53
16.24
23.35
29.75
34.53
37.26
37.97
37.06
35.06
32.39
29.36
26.12
22.79
19.52
16.47
13.71
11.20
8.82
6.42
3.96
1.53
-0.70
-2.52
-3.85
-4.71
-5.22
-5.48
-5.53
-5.31
-4.78
-3.92
-2.76
-1.38
0.13
1.73
3.30
4.74
5.86
6.46
6.43
5.78
4.70
3.40
1.88
-0.21
-3.60
-9.11
-17.21
-27.69
-39.58
-51.32
-61.27
-68.05
-70.77
-69.08
-63.13
-53.45
-41.00
-27.13
-13.42
-1.48
7.50
12.94
14.84
13.64
9.96
4.42
-2.32
-9.60
-16.76
-23.20
-28.46
-32.28
-34.52
-35.10
-34.01
-31.24
-26.73
-20.32
-11.64
-0.20
14.33
31.61
50.18
67.36
79.70
83.91
77.90
61.77
37.92
10.66
-15.01
-34.76
-46.09
-48.94
-45.47
-39.04
-32.91
-29.05
-27.72
-27.80
-27.73
-26.51
-24.25
-21.91
-20.65
-20.99
-22.57
-24.28
-24.92
-23.76
-20.77
-16.36
-10.97
-4.64
3.01
12.62
24.65
39.13
55.57
72.94
89.81
104.43
114.81
118.99
115.35
103.09
82.54
55.46
24.81
-5.82
-33.03
-54.42
-69.10
-77.71
-81.92
-83.81
-85.14
-86.94
-89.54
-92.78
-96.33
-99.86
-103.03
-105.35
-106.11
-104.48
-99.77
-91.70
-80.71
-67.86
-54.55
-42.11
-31.31
-22.26
-14.47
-7.24
-0.04
7.22
14.25
20.52
25.61
29.43
32.20
34.38
36.36
38.38
40.40
42.24
43.66
44.47
44.61
44.10
43.04
41.56
39.87
38.17
36.66
35.54
34.95
35.06
35.96
37.60
39.79
42.15
44.28
45.87
46.77
47.05
46.81
46.15
45.12
43.77
42.24
40.84
39.95
39.94
40.96
42.82
45.02
46.91
47.89
47.65
46.22
43.97
41.40
38.90
36.54
33.97
30.61
25.88
19.38
11.09
1.34
-9.18
-19.48
-28.33
-34.44
-36.82
-35.04
-29.44
-20.99
-10.90
-0.25
10.30
20.46
30.09
38.93
46.52
52.35
56.17
58.18
59.00
59.48
60.40
62.15
64.66
67.49
70.01
71.64
71.98
70.94
68.73
65.92
63.36
61.85
61.78
62.77
63.49
62.08
56.76
46.66
32.19
14.85
-3.44
-21.07
-37.23
-51.73
-64.52
-75.19
-82.90
-86.84
-86.80
-83.57
-78.85
-74.58
-72.29
-72.51
-74.82
-78.17
-81.54
-84.30
-86.38
-88.09
-89.91
-92.24
-95.24
-98.88
-102.98
-107.38
-112.01
-116.99
-122.59
-129.12
-136.80
-145.66
-155.46
-165.73
-175.83
-185.03
-192.53
-197.53
-199.32
-197.42
-191.75
-182.73
-171.28
-158.52
-145.32
-131.95
-117.97
-102.55
-85.04
-65.52
-44.98
-25.05
-7.46
6.51
16.25
21.70
23.11
20.97
16.12
9.98
4.50
1.71
3.03
8.76
18.17
30.10
43.72
58.71
75.00
92.08
108.69
123.15
134.13
141.39
145.76
148.39
149.78
149.32
145.70
138.00
126.55
113.00
99.52
87.60
77.43
68.12
58.57
48.48
38.58
30.26
24.66
22.06
21.68
22.05
21.75
19.99
16.93
13.63
11.65
12.55
17.38
26.40
38.87
53.45
68.50
82.66
95.22
106.11
115.68
124.25
131.82
137.92
141.81
142.76
140.28
134.39
125.43
113.88
100.17
84.74
68.01
50.46
32.62
15.10
-1.29
-15.65
-27.15
-35.08
-39.01
-39.19
-36.74
-33.70
-32.65
-35.56
-43.89
-58.21
-77.81
-100.38
-122.22
-138.91
-146.48
-142.65
-126.69
-100.91
-70.29
-40.89
-17.64
-2.87
4.10
6.21
7.21
11.77
22.16
37.46
54.43
69.58
80.79
87.86
92.02
94.63
98.49
104.38
110.80
115.22
115.95
113.14
108.36
103.56
88.69
60.34
22.45
-16.56
-50.09
-76.07
-95.44
-110.16
-120.84
-129.80
-136.04
-138.20
-135.51
-128.02
-116.16
-100.60
-82.98
-66.04
-53.25
-45.92
-44.63
-49.21
-58.48
-70.06
-80.71
-87.49
-88.79
-84.92
-76.66
-65.85
-54.53
-43.90
-33.76
-22.68
-9.44
5.72
20.83
33.62
42.08
45.27
43.49
37.93
30.60
23.30
17.18
12.76
10.52
10.73
13.07
16.49
19.47
21.46
22.77
24.36
27.63
33.92
43.96
56.84
69.72
78.51
80.86
77.17
70.58
65.98
67.76
78.47
97.82
123.34
144.57
152.41
143.69
123.28
99.75
78.56
60.50
43.22
24.09
2.00
-21.04
-40.17
-52.88
-58.20
-57.72
-54.78
-53.55
-56.92
-65.14
-75.61
-84.75
-90.62
-92.31
-92.12
-90.50
-88.28
-86.03
-83.79
-81.22
-77.63
-72.83
-67.24
-62.12
-58.43
-56.71
-58.50
-61.46
-62.73
-59.48
-49.59
-31.92
-6.84
24.05
57.60
89.74
116.87
134.53
139.59
131.84
114.13
91.11
67.74
47.76
33.41
25.87
24.94
29.79
38.81
49.61
59.39
65.57
66.25
60.46
48.32
30.68
9.46
-12.63
-32.75
-48.84
-60.36
-68.15
-73.56
-77.45
-79.83
-79.98
-77.16
-71.26
-63.05
-54.15
-46.87
-43.97
-48.09
-60.85
-81.85
-108.24
-135.45
-158.63
-174.16
-180.41
-177.25
-165.12
-144.50
-116.28
-82.78
-48.29
-18.38
2.01
10.66
8.89
0.83
-8.40
-14.90
-16.94
-14.96
-10.60
-5.59
-1.06
2.61
5.42
7.48
8.80
9.43
9.61
9.80
10.58
12.36
15.15
18.62
22.21
25.43
28.13
30.52
33.07
36.26
40.36
45.27
50.55
55.53
59.63
62.48
64.10
64.78
64.88
64.60
63.90
62.65
60.85
58.90
57.58
57.78
60.06
64.28
69.53
74.55
78.26
80.43
81.85
84.16
89.08
97.56
109.14
121.90
133.04
139.95
141.18
137.01
129.28
120.47
112.49
105.73
98.94
89.66
75.46
54.86
27.70
-5.09
-41.63
-79.15
-113.88
-141.14
-156.36
-157.05
-144.80
-125.77
-108.42
-99.34
-99.63
-104.15
-104.30
-93.04
-68.91
-36.74
-4.78
20.15
36.00
45.54
53.47
62.94
73.68
82.89
87.47
86.16
80.48
73.56
68.30
65.84
65.32
64.52
61.29
54.57
44.15
31.21
17.90
6.42
-2.10
-8.04
-12.92
-18.44
-25.78
-36.58
-51.13
-68.11
-85.15
-100.21
-112.53
-122.47
-130.77
-138.35
-148.01
-161.51
-178.60
-197.11
-214.52
-228.79
-238.45
-242.10
-239.19
-233.11
-227.80
-226.11
-228.89
-235.99
-246.75
-260.06
-273.86
-266.88
-226.51
-155.78
-72.09
6.41
69.96
116.80
147.77
168.95
183.83
191.38
190.82
183.90
175.26
168.31
165.86
168.44
174.70
181.38
183.12
176.43
161.39
141.17
119.50
98.84
79.68
61.69
44.39
27.20
11.07
-1.81
-9.53
-12.42
-13.50
-17.11
-26.07
-40.05
-55.75
-67.85
-71.51
-64.65
-48.83
-28.14
-7.07
11.51
26.51
37.66
44.76
47.43
45.93
42.03
39.22
41.56
51.83
69.73
91.46
111.25
123.86
127.08
122.75
115.70
111.00
111.37
115.89
120.92
122.32
117.32
105.20
86.47
61.78
31.52
-3.57
-41.34
-78.31
-110.96
-137.50
-158.75
-177.35
-195.57
-213.24
-227.40
-233.98
-230.57
-218.16
-200.87
-183.75
-170.19
-160.43
-152.04
-141.68
-126.87
-107.06
-83.42
-58.15
-33.61
-11.99
5.03
16.81
24.15
29.42
35.67
45.01
57.20
69.80
80.08
87.40
94.33
105.40
124.07
149.72
176.98
197.79
205.36
197.41
177.19
151.53
127.72
110.70
102.22
101.69
107.54
118.22
132.25
147.92
162.96
174.90
181.97
183.49
179.80
171.59
159.02
141.48
117.96
87.93
51.84
11.09
-32.47
-77.06
-121.06
-162.48
-198.67
-226.63
-243.92
-249.70
-245.13
-232.86
-215.82
-196.25
-175.32
-153.44
-130.63
-106.81
-81.90
-55.80
-28.59
-0.76
26.66
52.29
74.62
92.36
104.44
110.08
108.84
100.93
87.46
70.37
51.99
34.45
19.17
6.80
-2.58
-9.10
-12.91
-14.19
-13.27
-10.66
-6.99
-2.86
1.31
5.37
9.31
13.15
16.76
19.90
22.24
23.58
23.90
23.35
22.11
20.36
18.16
15.51
12.39
8.75
4.47
-0.65
-6.79
-13.93
-21.66
-29.15
-35.32
-39.16
-40.02
-37.81
-32.94
-26.25
-18.83
-11.91
-6.60
-3.65
-3.27
-4.98
-7.88
-11.05
-13.87
-16.30
-18.66
-21.32
-24.34
-27.33
-29.61
-30.57
-29.93
-27.92
-25.21
-22.72
-21.33
-21.67
-23.93
-27.81
-32.60
-37.37
-41.28
-43.81
-44.92
-45.08
-45.07
-45.74
-47.74
-51.26
-55.99
-61.18
-65.81
-68.78
-69.13
-66.28
-60.21
-51.48
-41.02
-29.99
-19.57
-10.86
-4.66
-1.37
-0.83
-2.36
-4.89
-7.00
-7.39
-5.25
-0.49
6.42
14.76
23.85
33.14
42.31
51.73
62.00
73.45
85.61
97.29
106.95
113.10
114.55
110.79
103.04
93.38
83.63
74.46
65.50
56.29
46.73
37.21
28.51
23.12
23.65
31.19
44.28
59.54
73.45
83.18
86.73
83.13
74.68
65.70
61.21
65.12
79.83
106.61
144.72
190.69
226.59
234.78
208.10
155.90
95.21
38.93
-7.23
-43.12
-71.20
-94.28
-112.28
-124.95
-131.49
-132.89
-131.80
-130.14
-128.48
-126.57
-123.89
-118.62
-109.26
-95.95
-78.14
-59.21
-42.71
-31.07
-25.22
-24.56
-26.43
-27.51
-25.31
-19.40
-11.56
-3.72
2.73
7.20
9.92
12.11
15.18
19.97
26.05
31.52
34.52
33.88
29.57
22.72
15.26
8.88
4.26
0.69
-3.55
-9.80
-18.45
-28.84
-39.80
-50.36
-60.16
-69.40
-78.45
-87.53
-96.27
-103.89
-109.50
-112.49
-112.74
-110.70
-107.21
-103.20
-99.29
-95.48
-91.21
-85.63
-78.27
-69.42
-60.18
-52.04
-46.02
-42.10
-39.12
-35.32
-29.24
-20.44
-9.69
1.47
11.40
19.05
24.37
28.50
33.68
42.96
59.56
85.77
121.93
165.68
212.04
254.60
287.25
305.71
308.54
297.11
274.85
246.26
215.87
187.59
164.11
146.42
133.58
122.79
110.01
90.92
62.17
22.33
-27.39
-83.28
-139.85
-191.25
-232.73
-261.65
-277.94
-283.65
-282.29
-278.00
-274.99
-276.84
-285.71
-301.52
-321.57
-340.83
-353.21
-353.44
-338.58
-308.52
-265.51
-213.09
-155.35
-96.61
-41.44
5.71
41.39
64.42
76.56
81.92
85.29
90.20
97.82
107.07
116.14
123.83
130.23
136.30
142.54
148.06
150.53
147.39
137.22
120.75
100.69
80.45
62.93
49.41
39.41
31.33
23.44
14.25
2.77
-11.89
-30.28
-51.32
-72.04
-87.78
-93.32
-84.81
-62.05
-29.02
6.65
36.45
55.50
63.27
63.01
59.69
57.86
59.71
65.74
74.61
84.46
95.87
109.45
124.47
138.33
147.99
150.83
147.38
139.81
131.01
126.05
128.12
137.09
150.09
163.96
176.27
188.00
200.80
200.80
179.22
137.13
84.57
31.41
-11.97
-49.78
-83.46
-111.33
-130.41
-134.45
-119.31
-86.22
-42.03
3.61
40.61
63.08
68.63
58.25
37.55
12.95
-10.71
-31.05
-47.45
-60.86
-71.62
-80.66
-89.22
-97.06
-103.76
-109.38
-114.69
-120.71
-128.57
-138.03
-148.31
-158.01
-164.58
-165.43
-158.69
-143.91
-122.21
-96.37
-69.92
-46.70
-29.98
-21.39
-21.00
-27.73
-40.10
-56.69
-76.29
-97.51
-118.57
-137.30
-151.41
-159.01
-158.98
-151.12
-136.09
-115.19
-90.14
-62.83
-35.02
-8.08
17.06
39.87
59.94
77.00
90.78
101.05
107.67
110.88
111.55
111.36
112.46
116.86
125.65
138.39
152.93
166.03
174.58
176.74
172.57
163.65
152.36
141.14
131.97
126.12
124.05
125.28
128.38
131.13
130.97
125.98
116.03
102.98
89.37
76.77
64.78
51.15
32.90
7.30
-26.51
-65.96
-105.18
-137.24
-156.99
-162.80
-156.73
-143.15
-127.65
-114.48
-104.14
-93.54
-79.02
-59.33
-36.30
-13.05
7.94
24.21
33.36
33.28
22.24
-1.65
-39.49
-89.53
-145.99
-194.57
-219.05
-214.67
-191.84
-164.36
-138.62
-113.24
-84.45
-52.63
-19.35
9.10
25.68
27.55
18.15
4.73
-5.38
-8.74
-3.25
11.06
30.70
50.24
64.75
71.87
71.66
65.71
56.53
47.06
39.83
35.65
34.30
35.75
40.60
49.23
60.58
72.07
80.71
84.18
81.42
73.32
62.58
52.73
46.46
44.46
45.36
46.68
45.89
41.20
32.12
19.43
4.60
-10.82
-25.67
-39.07
-50.22
-58.24
-62.38
-62.15
-57.49
-48.86
-37.30
-24.39
-12.08
-2.43
3.01
3.61
-0.01
-6.23
-12.97
-18.47
-21.67
-22.29
-20.55
-16.90
-11.91
-6.31
-0.86
3.87
7.78
11.23
14.79
18.82
23.13
27.17
30.29
32.12
32.57
31.69
29.40
25.53
20.13
13.69
7.11
1.44
-2.73
-5.46
-7.38
-9.13
-11.03
-12.97
-14.68
-15.99
-16.96
-17.81
-18.81
-20.07
-21.52
-22.84
-23.64
-23.57
-22.46
-20.19
-16.89
-12.92
-8.74
-4.66
-0.70
3.22
7.03
10.38
13.10
15.06
16.15
16.33
15.92
15.57
15.93
17.30
19.47
22.77
27.39
32.95
38.48
43.11
46.56
49.07
50.98
52.35
54.19
56.91
59.39
59.12
53.63
42.02
25.39
6.55
-10.62
-20.18
-16.96
1.04
31.84
70.97
113.44
154.91
192.04
210.92
201.33
163.56
108.83
50.71
-2.02
-45.76
-79.84
-104.98
-122.62
-132.76
-135.39
-131.91
-125.21
-118.42
-113.61
-111.72
-112.77
-116.24
-121.04
-124.31
-124.56
-121.84
-116.79
-109.94
-101.71
-92.74
-84.01
-75.58
-67.05
-58.29
-49.51
-40.95
-32.54
-24.05
-15.27
-6.11
4.16
15.70
28.26
41.50
55.32
69.94
85.44
101.02
114.83
124.49
128.06
124.86
115.93
103.82
91.60
81.74
75.26
71.68
69.57
67.35
63.99
59.22
53.27
46.57
39.40
31.86
24.00
15.96
8.01
0.41
-6.79
-13.86
-21.22
-29.09
-37.27
-45.09
-51.73
-56.61
-59.61
-61.01
-61.26
-60.72
-59.54
-57.86
-55.95
-54.30
-53.39
-53.44
-54.12
-54.65
-54.14
-52.05
-48.64
-44.83
-41.94
-41.09
-42.74
-46.46
-51.09
-55.14
-57.28
-56.71
-53.25
-47.22
-39.28
-30.11
-20.44
-10.97
-2.44
4.47
9.25
11.79
12.40
11.79
10.78
10.06
10.01
10.77
12.37
14.76
17.81
21.22
24.51
27.10
28.45
28.20
26.30
22.90
18.24
12.52
5.89
-1.20
-7.96
-13.46
-16.84
-17.67
-16.09
-12.84
-9.03
-5.76
-3.33
-1.52
0.05
1.44
2.45
2.91
2.79
2.36
2.17
3.60
7.82
14.83
23.11
30.21
34.04
33.57
29.16
22.41
16.93
16.10
21.21
30.48
40.09
46.37
47.22
42.83
35.60
30.82
33.64
46.58
68.40
95.55
124.48
152.49
177.70
188.68
176.45
141.03
94.06
51.11
22.65
11.27
12.34
16.82
15.35
4.17
-13.89
-31.30
-39.97
-36.92
-23.03
-3.08
16.21
29.13
34.72
35.85
36.66
39.48
44.08
48.91
52.25
54.17
56.02
60.35
68.99
81.49
94.94
105.36
110.04
108.31
101.71
93.06
85.78
82.33
83.22
86.82
90.29
91.12
87.92
80.73
70.62
59.16
47.62
36.38
25.00
12.72
-0.98
-16.16
-32.62
-50.26
-69.09
-89.25
-110.70
-132.98
-155.03
-175.32
-192.40
-205.38
-214.38
-220.38
-224.84
-228.96
-233.21
-237.20
-239.96
-240.48
-238.19
-233.15
-225.96
-217.47
-208.53
-199.83
-191.73
-184.22
-176.86
-168.84
-159.23
-147.52
-133.69
-118.09
-101.01
-82.17
-60.51
-34.52
-3.14
33.24
72.11
108.99
138.51
155.63
157.05
142.16
113.16
74.59
32.54
-6.61
-37.14
-55.39
-61.24
-58.51
-53.74
-53.42
-61.11
-75.95
-93.99
-109.64
-118.40
-118.65
-111.52
-98.85
-81.07
-56.46
-22.92
18.22
63.19
107.16
146.02
177.40
201.11
218.33
230.32
237.20
235.61
223.50
202.09
175.04
145.68
115.03
81.62
42.72
-3.73
-60.36
-124.99
-190.24
-246.52
-286.46
-306.99
-309.00
-296.13
-254.34
-184.08
-101.16
-27.00
25.73
56.11
69.94
74.90
77.76
83.13
89.51
94.16
95.50
93.82
89.62
83.49
76.72
71.07
67.86
64.49
58.31
49.29
39.80
33.21
32.67
40.29
55.03
74.26
92.35
104.38
109.03
108.01
104.49
101.50
100.98
103.21
107.16
110.10
105.22
89.07
61.40
25.31
-13.42
-47.48
-69.56
-74.36
-61.26
-34.80
-2.64
26.53
46.25
54.29
52.69
45.86
38.15
31.98
27.82
25.19
22.64
18.13
9.63
-3.92
-21.54
-40.19
-55.86
-65.61
-67.87
-62.80
-51.79
-36.42
-17.94
2.16
20.95
32.93
32.96
18.48
-8.43
-41.02
-70.42
-89.92
-96.73
-93.02
-84.31
-76.19
-71.84
-70.99
-71.26
-70.02
-65.98
-59.51
-52.10
-45.31
-39.93
-35.96
-32.80
-30.09
-27.77
-26.13
-25.43
-25.73
-26.57
-26.87
-26.52
-24.76
-21.13
-15.64
-8.74
-0.93
7.57
17.04
28.21
41.70
57.74
75.54
93.53
109.90
123.31
133.34
140.45
145.59
149.62
153.10
156.12
158.71
161.24
164.47
169.13
175.19
181.30
184.93
183.32
174.60
158.93
138.82
118.42
102.11
92.98
91.75
96.83
105.24
113.99
121.14
126.20
129.37
130.47
128.07
119.38
101.11
70.93
28.23
-25.60
-87.89
-155.35
-224.07
-288.97
-343.62
-381.35
-397.46
-391.78
-369.85
-341.82
-318.85
-308.56
-311.78
-322.65
-331.88
-331.68
-319.53
-298.61
-275.10
-254.00
-236.12
-217.92
-194.10
-161.18
-119.82
-74.61
-31.48
5.37
35.37
60.98
85.28
109.66
132.88
152.03
164.66
170.91
174.21
180.33
194.80
220.21
254.61
291.69
322.77
339.68
337.34
314.94
275.86
226.43
174.27
126.81
89.78
65.88
53.92
49.20
45.10
35.78
18.50
-5.43
-31.51
-53.98
-67.85
-70.26
-61.22
-43.82
-23.96
-9.15
-6.35
-19.18
-46.05
-80.37
-113.08
-136.42
-146.93
-145.98
-137.92
-127.18
-116.31
-106.01
-96.30
-87.83
-82.04
-80.13
-81.98
-85.66
-88.11
-86.32
-78.61
-65.27
-48.26
-30.41
-14.34
-1.64
7.43
13.80
18.92
24.04
29.72
35.75
41.42
46.02
49.39
52.07
55.11
59.58
66.01
74.08
82.78
90.79
97.02
100.92
102.52
102.28
100.83
98.75
96.51
94.39
92.52
90.86
89.33
87.99
87.21
87.75
90.63
96.75
106.48
119.43
134.39
149.54
162.71
171.76
175.01
171.49
161.24
145.22
125.00
102.26
78.31
53.89
29.22
4.46
-19.95
-43.11
-63.88
-81.27
-94.91
-105.05
-112.50
-118.17
-122.87
-127.06
-130.83
-134.02
-136.26
-137.11
-136.18
-133.26
-128.34
-121.63
-113.48
-104.23
-94.02
-82.79
-70.18
-55.62
-38.37
-17.82
6.11
32.58
59.58
84.12
102.96
113.56
114.75
107.11
92.50
73.42
52.10
29.89
7.06
-17.06
-43.62
-73.78
-108.20
-146.76
-188.27
-230.40
-269.71
-302.15
-323.75
-331.56
-324.43
-303.44
-271.63
-233.34
-193.16
-155.07
-121.82
-94.76
-74.12
-59.48
-50.17
-45.54
-44.86
-47.10
-50.67
-53.46
-53.22
-48.27
-38.03
-23.25
-5.57
13.22
31.94
50.24
68.52
87.30
106.70
126.19
144.89
162.01
177.56
192.53
208.67
227.64
249.91
274.02
296.62
313.60
321.78
320.55
312.53
302.74
296.44
296.73
303.04
311.20
315.22
309.81
292.61
264.97
231.36
197.44
168.43
147.63
135.49
129.49
124.85
115.67
96.48
63.71
16.73
-41.38
-104.20
-163.37
-210.73
-240.27
-249.68
-240.76
-218.84
-191.43
-165.42
-145.09
-131.49
-123.28
-118.36
-115.25
-113.62
-113.88
-117.42
-124.28
-132.91
-141.31
-148.60
-155.51
-163.51
-173.47
-185.04
-199.14
-215.42
-232.69
-250.11
-268.36
-289.04
-313.14
-339.95
-367.02
-394.44
-419.81
-437.97
-443.18
-432.56
-407.49
-372.52
-333.48
-295.68
-267.39
-251.72
-245.57
-242.31
-236.12
-223.98
-205.04
-179.45
-118.14
-15.49
108.80
223.24
306.88
355.92
376.82
379.10
371.42
359.90
343.12
321.11
295.75
270.52
248.37
230.64
217.90
210.73
209.64
211.24
214.26
219.79
228.35
236.94
240.81
236.73
225.22
209.74
191.97
174.28
161.40
153.59
150.17
149.51
149.31
147.22
141.43
125.29
98.89
68.13
41.38
25.28
21.82
28.85
42.35
58.26
72.61
84.39
92.11
93.41
86.38
70.39
46.70
17.92
-13.56
-42.88
-67.17
-86.26
-101.50
-113.70
-122.25
-125.47
-121.91
-111.32
-94.58
-72.84
-47.19
-18.73
10.37
35.78
51.14
50.07
29.19
-9.54
-59.41
-111.60
-158.96
-198.48
-231.42
-261.09
-289.97
-317.76
-341.12
-355.42
-356.77
-343.45
-316.35
-278.23
-232.54
-182.42
-130.29
-78.19
-28.34
16.67
54.13
81.84
98.73
105.26
103.29
95.61
85.29
75.19
67.66
64.37
66.26
73.51
85.72
102.02
121.33
142.40
163.76
183.56
199.56
209.54
211.93
206.51
194.71
179.34
163.53
149.61
138.11
127.77
116.26
101.45
82.41
59.82
35.68
12.54
-7.24
-21.84
-30.10
-31.55
-26.49
-16.13
-2.48
11.92
24.68
34.25
40.16
42.89
43.34
42.22
39.84
36.14
30.95
24.23
16.11
6.79
-3.50
-14.44
-25.49
-35.87
-44.62
-50.92
-54.27
-54.50
-51.59
-45.48
-35.95
-22.92
-6.69
11.76
30.85
48.71
63.45
73.46
77.32
73.81
62.16
42.74
17.56
-9.63
-34.27
-52.51
-62.65
-65.54
-63.75
-60.02
-55.86
-51.18
-44.93
-36.34
-25.72
-14.58
-4.93
1.51
3.59
0.75
-7.44
-21.16
-39.90
-61.84
-83.65
-101.17
-110.70
-110.33
-100.70
-84.67
-66.24
-49.16
-35.81
-26.87
-21.66
-18.86
-17.16
-15.63
-13.82
-11.55
-8.69
-5.08
-0.70
4.27
9.42
14.12
17.62
19.12
18.07
14.43
8.76
2.15
-4.06
-8.70
-11.06
-11.21
-10.07
-8.96
-8.99
-10.54
-13.23
-16.27
-18.90
-20.73
-21.89
-23.01
-24.32
-25.08
-23.71
-18.88
-10.57
-0.28
9.68
16.84
18.63
13.66
2.51
-12.26
-27.26
-39.57
-47.46
-50.47
-49.57
-48.14
-50.07
-57.60
-70.20
-85.25
-99.50
-109.55
-112.23
-105.76
-92.44
-78.04
-69.65
-72.78
-89.68
-118.55
-153.43
-185.09
-190.43
-152.12
-71.82
27.42
116.52
175.36
196.50
183.72
152.56
116.35
84.27
61.12
47.68
42.52
43.61
49.28
58.07
66.67
71.94
71.79
64.98
53.19
37.40
20.74
8.26
3.12
6.67
18.09
34.27
50.10
60.48
63.22
58.54
48.85
36.08
21.34
6.25
-6.48
-14.26
-14.90
-5.39
15.43
47.12
85.86
118.81
133.49
126.56
105.17
80.36
67.95
68.50
78.88
94.52
111.85
125.45
134.87
140.68
134.82
114.20
81.21
44.34
12.60
-8.45
-17.08
-14.95
-6.20
1.80
4.33
-0.87
-12.52
-27.90
-44.80
-62.03
-78.82
-95.33
-113.65
-133.86
-153.78
-169.77
-179.74
-184.58
-186.74
-188.03
-188.50
-186.30
-180.29
-166.57
-144.26
-116.62
-89.62
-68.38
-55.13
-49.38
-48.28
-47.01
-40.53
-24.94
-0.16
30.98
64.87
98.18
127.72
151.36
168.52
179.96
187.36
191.05
189.44
181.29
166.68
146.43
122.81
99.76
75.17
51.84
41.70
44.85
53.00
59.69
60.78
55.78
47.50
40.15
37.85
37.17
33.61
24.87
12.54
-0.18
-10.23
-16.31
-19.18
-20.22
-21.58
-23.77
-27.65
-32.12
-35.82
-37.85
-38.01
-36.84
-34.85
-32.98
-32.19
-33.40
-35.81
-38.45
-40.53
-41.62
-41.74
-40.90
-39.35
-37.26
-34.56
-30.64
-25.24
-18.62
-11.45
-4.57
1.43
6.19
9.71
12.06
13.55
14.16
13.57
11.35
7.38
1.96
-4.18
-10.07
-14.88
-18.03
-19.42
-19.48
-18.99
-18.70
-19.15
-20.64
-23.11
-26.25
-29.54
-32.43
-34.59
-35.94
-36.36
-35.47
-32.72
-27.40
-18.87
-6.86
8.59
26.82
45.58
61.84
72.98
77.43
74.80
66.04
53.50
40.92
32.21
29.83
33.81
41.68
49.54
53.96
54.09
50.24
43.91
36.86
30.25
24.62
20.22
17.11
15.37
14.99
15.51
16.20
16.31
15.25
12.84
10.54
9.47
10.13
11.80
12.52
9.84
1.91
-11.96
-31.06
-53.32
-75.92
-95.95
-111.32
-121.48
-127.41
-130.61
-132.82
-135.32
-138.30
-140.64
-140.31
-135.65
-126.55
-114.71
-102.28
-91.61
-84.53
-81.43
-80.92
-80.21
-76.41
-67.19
-51.10
-26.32
8.01
50.74
98.53
146.62
190.35
226.02
252.54
263.78
257.82
238.44
212.13
183.10
152.39
120.95
91.15
67.18
52.52
48.70
53.02
59.10
60.81
54.35
39.66
18.65
-5.70
-31.43
-57.24
-82.77
-107.73
-131.10
-151.72
-162.56
-161.40
-149.77
-132.52
-115.25
-102.42
-96.01
-95.07
-96.52
-96.10
-90.90
-79.42
-62.63
-43.35
-25.41
-12.36
-6.11
-7.06
-13.35
-22.14
-29.88
-33.84
-32.67
-26.08
-14.36
2.24
21.95
43.57
66.87
92.99
122.29
153.32
183.17
208.17
225.43
230.74
222.43
202.74
177.41
151.65
127.59
104.32
78.80
48.13
6.93
-48.06
-115.68
-189.88
-263.35
-329.06
-380.18
-410.98
-396.28
-325.61
-215.05
-98.50
-1.51
69.05
119.51
162.22
202.34
239.12
265.40
275.74
265.27
238.11
202.38
165.92
134.24
109.90
94.01
83.85
76.02
66.20
52.79
35.09
12.36
-16.12
-50.82
-91.22
-138.09
-191.60
-251.78
-313.79
-368.88
-407.87
-425.04
-420.32
-398.27
-366.66
-313.96
-239.58
-153.35
-69.06
3.71
61.08
102.34
128.82
143.64
151.72
158.42
166.33
176.49
187.62
195.69
195.63
184.21
161.86
127.02
85.66
46.88
18.49
3.22
-1.98
-3.33
-6.72
-15.36
-29.68
-48.83
-72.11
-97.90
-123.44
-145.46
-161.10
-168.47
-167.11
-158.11
-143.41
-125.32
-104.55
-79.72
-48.00
-7.04
42.23
95.39
145.06
182.89
201.59
198.04
175.04
141.03
107.72
86.61
85.52
106.30
144.87
192.22
237.46
270.56
284.02
273.29
237.62
180.81
111.53
42.43
-13.73
-48.22
-59.58
-53.82
-41.45
-31.79
-28.74
-30.12
-30.78
-27.36
-20.81
-15.12
-14.05
-18.69
-26.16
-31.40
-32.07
-27.25
-19.69
-15.08
-17.16
-22.84
-26.86
-23.96
-11.30
10.87
38.61
66.17
88.05
98.59
96.95
87.93
78.72
73.05
68.79
59.52
40.57
9.74
-29.70
-70.47
-105.45
-130.78
-147.44
-153.84
-151.99
-144.63
-133.82
-119.99
-102.42
-80.83
-56.16
-30.39
-5.38
17.14
36.77
53.96
69.44
83.52
95.48
103.79
106.99
104.58
96.84
85.45
72.70
60.85
51.30
44.08
38.16
32.20
25.51
18.00
10.52
4.10
-0.69
-4.22
-7.72
-12.90
-21.29
-33.71
-50.18
-69.72
-90.76
-111.58
-131.08
-149.21
-167.19
-186.93
-209.96
-236.23
-263.26
-286.54
-301.08
-303.44
-293.24
-273.17
-247.69
-221.04
-195.74
-172.36
-150.35
-129.32
-109.66
-92.20
-77.48
-65.20
-54.39
-44.08
-33.70
-22.99
-11.36
2.80
22.00
48.75
83.85
125.37
168.52
206.93
234.48
247.02
243.32
225.10
196.29
161.78
126.18
93.13
64.85
42.32
25.48
13.52
5.16
-0.78
-5.36
-9.28
-12.68
-15.20
-16.23
-15.41
-13.06
-10.16
-7.39
-5.35
-4.22
-3.45
-1.69
2.78
11.19
23.77
39.61
58.19
78.18
97.50
113.82
125.57
132.34
134.69
133.77
130.93
129.09
129.93
132.87
135.83
136.87
135.27
131.47
126.55
121.85
120.68
124.87
133.44
143.49
152.11
157.60
159.45
158.03
139.47
99.71
46.64
-5.68
-47.52
-76.56
-94.69
-104.83
-109.63
-110.71
-108.07
-102.10
-94.66
-88.30
-84.54
-83.30
-83.65
-84.69
-85.87
-85.22
-81.77
-76.14
-69.96
-64.47
-60.02
-56.50
-53.78
-51.90
-49.88
-47.11
-43.75
-40.49
-37.76
-35.50
-33.42
-31.26
-28.93
-26.01
-22.39
-18.50
-15.05
-12.58
-11.19
-10.65
-10.58
-10.49
-9.81
-8.19
-5.68
-2.76
-0.06
1.80
2.44
1.79
0.11
-2.19
-4.68
-7.10
-9.33
-11.41
-13.37
-15.23
-16.99
-18.72
-20.49
-22.42
-24.48
-26.52
-28.29
-29.57
-30.24
-30.32
-29.96
-29.32
-28.44
-27.26
-25.64
-23.49
-20.87
-17.99
-15.16
-12.63
-10.39
-8.19
-5.63
-2.37
1.63
6.08
10.38
13.90
16.22
17.29
17.40
16.99
16.47
16.04
15.65
15.12
14.21
12.77
10.68
7.89
4.43
0.38
-4.04
-8.44
-12.24
-14.80
-15.61
-14.44
-11.52
-7.37
-2.81
1.32
4.39
6.10
6.50
5.95
4.98
4.17
4.09
5.19
7.62
11.24
15.61
20.07
23.93
26.63
27.82
27.56
26.10
23.78
20.93
17.87
14.86
12.03
9.32
6.53
3.64
0.57
-2.76
-6.38
-10.05
-13.28
-15.50
-16.22
-15.21
-12.04
-6.90
-0.72
5.16
9.70
12.61
14.26
15.41
16.72
19.20
22.91
26.86
29.86
31.47
32.66
35.08
40.36
49.13
61.82
77.30
92.86
105.29
112.06
112.40
106.81
96.81
77.37
48.35
14.87
-15.43
-37.31
-49.82
-53.60
-51.08
-43.61
-32.22
-16.86
1.99
21.57
38.79
48.67
48.40
37.80
19.60
-2.07
-22.38
-38.14
-48.43
-54.79
-59.60
-63.45
-65.81
-65.52
-61.85
-54.58
-45.08
-34.53
-23.08
-11.12
1.25
13.06
22.67
28.77
31.58
32.30
32.28
31.91
29.24
22.27
10.64
-3.30
-15.01
-19.76
-15.99
-6.39
4.93
11.03
5.62
-14.04
-46.17
-85.35
-124.34
-156.62
-177.14
-182.38
-172.67
-152.55
-129.59
-112.41
-107.84
-114.13
-125.92
-141.52
-156.86
-165.71
-166.27
-158.97
-144.33
-121.68
-89.46
-47.62
1.26
52.59
99.90
137.08
161.49
174.47
180.01
182.19
182.67
180.80
175.39
165.24
150.02
131.23
111.64
94.14
80.66
71.29
64.65
59.25
53.57
46.56
38.26
29.61
21.76
15.53
10.83
6.97
3.37
-0.38
-4.42
-8.44
-12.05
-15.00
-17.45
-19.89
-22.85
-26.29
-29.78
-32.71
-34.40
-34.37
-32.52
-29.17
-24.99
-20.73
-16.54
-12.34
-7.96
-3.30
1.66
6.74
11.52
15.26
17.17
17.45
16.65
15.54
14.98
15.85
18.85
24.19
31.45
39.65
48.46
57.37
65.47
71.76
75.74
77.83
79.39
82.24
82.24
76.94
65.68
49.38
29.44
7.30
-15.06
-34.95
-49.72
-57.87
-59.29
-54.82
-46.28
-35.97
-25.85
-17.11
-10.31
-5.63
-3.36
-2.59
-2.04
-0.53
2.78
8.38
16.35
26.07
36.44
46.22
54.90
62.29
68.40
73.22
76.81
79.28
80.03
78.42
74.01
67.09
58.30
48.53
38.39
28.32
18.49
7.58
-5.56
-21.20
-38.41
-55.83
-71.89
-86.14
-98.57
-109.30
-120.07
-131.82
-144.06
-155.35
-164.37
-169.86
-172.24
-172.17
-170.35
-169.60
-171.80
-177.11
-184.07
-190.98
-195.62
-197.83
-197.98
-182.81
-146.44
-92.85
-33.49
21.33
62.55
95.06
122.62
147.09
169.03
185.41
193.71
192.91
183.56
164.49
137.99
108.64
83.16
66.18
55.77
49.22
44.54
42.67
43.79
48.46
55.82
64.87
74.83
84.09
91.87
98.06
103.07
107.19
111.45
115.92
119.90
121.79
118.69
108.50
90.75
67.03
40.09
13.39
-10.61
-31.01
-48.15
-63.74
-78.92
-93.84
-107.82
-120.29
-130.88
-139.55
-146.58
-152.02
-156.76
-161.25
-165.31
-168.22
-169.03
-166.69
-159.84
-148.04
-131.91
-114.72
-100.19
-90.82
-86.97
-87.18
-89.17
-90.49
-90.32
-80.36
-57.94
-26.77
5.60
33.63
56.16
72.22
84.76
94.51
100.86
101.79
96.33
85.41
71.10
55.61
40.54
27.55
17.91
13.28
14.07
19.97
29.76
41.37
52.11
59.26
61.37
57.99
50.06
38.64
25.18
11.35
-1.01
-10.35
-15.89
-17.48
-15.90
-12.29
-7.98
-3.17
2.24
8.94
17.49
27.60
38.14
47.49
54.39
58.41
60.08
60.50
60.63
60.55
59.15
54.74
45.90
32.55
16.27
-0.24
-14.22
-23.87
-28.93
-30.30
-29.36
-27.13
-24.14
-20.25
-15.52
-10.43
-5.77
-2.24
0.01
1.33
2.31
3.44
4.99
6.92
9.05
11.16
13.07
14.76
16.15
17.05
17.15
16.35
14.80
12.85
10.82
8.92
7.58
6.99
7.79
10.55
15.26
20.77
24.42
22.64
11.34
-10.44
-39.26
-68.70
-93.00
-109.25
-117.02
-116.69
-108.01
-90.32
-63.76
-30.82
3.51
33.21
53.76
63.85
65.20
61.25
55.14
48.83
42.91
37.29
31.93
27.23
24.28
23.01
23.03
23.46
23.28
21.54
17.64
11.57
3.98
-3.85
-10.64
-15.39
-17.97
-18.90
-19.09
-19.32
-19.91
-20.63
-20.97
-20.59
-19.44
-17.85
-16.25
-14.96
-13.93
-12.87
-11.37
-9.07
-5.93
-2.07
2.18
6.41
10.21
13.28
15.40
16.59
17.14
17.71
19.31
22.96
29.31
38.35
49.12
59.74
67.87
71.41
69.29
61.98
51.31
39.76
29.40
21.01
13.68
5.37
-6.12
-21.75
-40.75
-60.84
-79.08
-92.87
-100.82
-103.14
-101.35
-97.66
-93.82
-90.86
-89.16
-88.55
-88.38
-87.79
-86.24
-83.43
-79.51
-73.78
-65.36
-53.90
-39.92
-24.54
-8.95
5.58
18.49
29.39
39.21
48.46
55.86
58.73
54.78
43.93
28.17
11.78
-0.87
-4.39
5.16
28.78
64.38
108.05
155.35
201.18
241.44
260.98
249.33
208.47
152.46
96.90
50.79
19.90
-0.57
-14.46
-24.18
-28.98
-27.50
-20.62
-10.96
-1.87
4.17
5.46
2.12
-5.35
-14.68
-23.72
-31.89
-40.36
-50.71
-62.96
-75.01
-83.60
-87.55
-87.02
-83.21
-77.58
-71.37
-65.10
-59.73
-55.20
-51.60
-49.71
-49.65
-50.67
-51.61
-51.45
-49.50
-44.84
-37.72
-28.23
-18.00
-9.08
-2.88
0.49
2.06
3.40
6.22
10.41
15.11
19.09
21.82
23.88
26.65
30.32
35.03
40.35
45.22
48.51
48.97
45.98
39.86
31.84
23.73
17.92
16.74
20.39
28.66
39.67
50.13
56.88
58.14
53.80
45.21
34.22
22.44
11.13
0.90
-7.95
-15.20
-20.66
-24.91
-28.25
-30.42
-30.50
-27.58
-21.80
-14.64
-8.45
-5.48
-6.53
-10.38
-14.68
-16.41
-14.50
-10.32
-6.07
-2.85
-0.13
3.05
6.54
8.30
5.63
-3.13
-16.77
-31.21
-41.50
-44.45
-39.94
-30.58
-20.79
-12.96
-8.03
-5.35
-3.18
0.22
5.60
12.50
19.42
24.77
28.06
29.56
30.30
31.39
33.45
36.13
38.38
38.62
34.52
25.16
10.54
-7.95
-27.61
-45.04
-57.65
-64.50
-66.99
-67.85
-69.46
-72.88
-77.04
-78.99
-75.11
-64.33
-45.76
-21.06
6.41
32.89
55.15
71.27
79.21
79.77
75.48
69.43
63.72
59.15
55.21
50.21
42.11
29.66
13.30
-5.02
-22.16
-35.37
-43.08
-45.32
-43.24
-38.76
-32.25
-23.88
-14.31
-5.10
1.30
2.83
-0.90
-7.93
-14.55
-16.98
-13.45
-5.02
5.46
14.91
21.91
26.94
31.42
36.15
40.58
42.87
41.05
34.41
23.69
10.76
-2.13
-13.14
-21.31
-26.42
-28.96
-29.78
-29.56
-28.33
-25.38
-19.86
-11.56
-1.59
7.78
13.97
15.49
12.86
8.31
4.59
3.55
5.57
10.10
16.60
25.02
35.40
47.24
58.85
67.83
71.91
69.92
62.53
51.69
39.76
28.33
18.21
9.72
3.10
-1.32
-3.35
-3.35
-2.50
-0.77
0.97
1.94
1.86
1.05
0.37
0.77
2.77
5.71
7.66
5.62
-2.75
-17.70
-36.86
-55.94
-70.67
-78.44
-79.30
-75.36
-69.54
-63.81
-58.66
-53.50
-47.36
-39.49
-29.12
-15.61
0.91
18.51
33.26
40.10
34.85
16.55
-11.76
-43.38
-70.54
-87.51
-92.61
-88.05
-77.97
-66.18
-54.56
-43.51
-32.29
-20.26
-7.68
4.16
13.74
20.17
23.62
28.49
37.54
51.68
69.64
88.56
104.59
114.11
115.47
108.62
95.47
78.73
61.20
44.95
30.84
18.14
5.40
-8.44
-23.82
-40.76
-60.08
-82.97
-110.08
-140.08
-168.75
-189.72
-196.72
-186.62
-161.05
-126.23
-90.30
-60.23
-39.84
-29.42
-26.92
-29.61
-35.39
-43.03
-51.66
-60.04
-66.32
-68.50
-65.33
-57.12
-45.84
-34.60
-26.27
-22.32
-22.09
-23.09
-22.19
-17.09
-7.17
6.59
22.27
37.95
52.31
64.78
75.28
84.04
91.35
97.55
103.20
109.18
116.62
126.69
139.97
156.22
174.24
192.28
208.63
222.12
232.43
239.75
244.28
245.52
242.65
235.15
223.23
207.84
190.05
170.60
149.46
126.11
99.40
68.95
35.75
1.97
-29.83
-57.55
-79.83
-96.42
-108.00
-117.11
-126.52
-138.18
-152.46
-168.19
-183.33
-195.35
-202.39
-203.66
-201.05
-197.08
-193.34
-189.90
-185.89
-180.70
-174.04
-166.05
-148.11
-115.41
-69.40
-17.74
30.09
65.87
83.74
84.45
72.18
53.64
35.01
20.83
12.62
9.14
8.41
7.50
5.05
1.81
0.93
4.13
10.37
15.88
16.11
10.82
2.18
-6.26
-10.73
-8.67
-0.75
9.74
18.90
24.73
28.62
34.45
46.70
67.21
93.22
117.43
131.59
130.57
114.63
88.32
57.13
24.98
-6.69
-37.31
-65.45
-87.11
-96.79
-89.98
-65.71
-27.62
17.26
61.02
97.60
123.78
140.51
151.64
161.61
172.86
184.30
191.75
189.35
172.67
139.31
90.97
32.47
-30.22
-91.66
-146.98
-191.32
-220.23
-229.46
-218.29
-188.97
-146.46
-97.17
-47.02
0.25
43.40
81.53
119.07
153.05
176.97
186.34
181.89
168.10
150.50
134.14
118.50
105.16
94.75
87.92
84.83
84.34
83.89
79.61
74.02
66.90
58.70
49.19
38.78
28.35
18.46
8.94
-0.84
-11.49
-24.17
-38.63
-54.61
-71.23
-87.14
-101.31
-113.30
-123.40
-132.73
-144.01
-159.49
-180.36
-204.81
-227.85
-243.25
-246.56
-238.13
-223.75
-213.23
-215.82
-237.16
-277.82
-334.25
-400.82
-471.22
-538.69
-595.60
-634.20
-648.33
-636.00
-600.86
-551.29
-497.26
-446.69
-403.51
-367.82
-337.52
-310.37
-285.03
-260.95
-237.62
-214.19
-189.59
-163.16
-135.09
-106.38
-78.74
-53.41
-31.05
-11.59
5.75
22.23
39.08
56.88
75.37
93.64
111.19
128.01
144.70
162.41
182.54
206.31
234.48
267.32
304.41
345.23
387.48
426.66
457.15
474.29
476.08
463.72
440.63
410.93
380.45
352.96
329.61
310.38
296.39
290.13
293.78
307.27
327.57
354.48
385.40
414.64
435.36
443.22
438.31
424.14
405.81
388.36
383.36
396.59
424.03
454.10
475.23
481.13
471.40
449.67
421.40
402.24
402.67
422.99
455.62
492.61
529.59
564.38
594.74
553.12
409.91
189.32
-48.10
-252.12
-403.24
-503.29
-562.04
-590.14
-597.13
-581.22
-543.98
-494.70
-447.51
-413.20
-394.98
-390.26
-394.12
-401.87
-402.12
-387.91
-360.47
-326.52
-293.01
-264.14
-241.90
-227.31
-220.71
-216.44
-209.49
-198.34
-184.43
-169.47
-153.79
-137.09
-119.56
-102.74
-85.77
-69.31
-55.69
-47.67
-46.33
-50.36
-56.86
-62.90
-66.50
-65.94
-61.03
-52.88
-43.38
-34.31
-26.75
-20.88
-16.16
-11.52
-5.70
1.02
8.20
14.93
20.19
23.37
24.65
24.84
25.01
26.05
28.37
32.18
37.48
44.12
51.78
59.97
67.76
74.07
78.03
79.30
78.39
76.23
73.81
71.78
70.51
69.81
69.08
67.65
65.05
61.22
56.42
50.96
44.87
38.06
30.01
20.30
9.08
-2.44
-12.37
-18.85
-20.84
-20.61
-20.28
-21.53
-24.80
-29.59
-35.01
-40.50
-45.88
-51.05
-55.46
-57.82
-56.80
-51.67
-43.01
-31.88
-20.08
-9.79
-2.74
0.60
1.36
1.40
2.56
5.87
11.73
19.78
29.28
38.72
47.28
54.88
61.77
68.17
72.09
72.39
69.10
63.21
56.09
49.01
42.88
38.03
34.28
31.17
28.23
25.45
23.00
20.85
19.17
18.18
17.76
17.19
15.40
11.15
5.56
-0.71
-7.87
-15.78
-23.87
-31.44
-38.19
-43.97
-49.14
-53.79
-58.17
-64.04
-72.43
-82.94
-93.98
-103.81
-110.74
-114.43
-114.84
-112.50
-110.14
-109.67
-111.05
-112.72
-113.00
-110.51
-105.81
-99.77
-80.88
-45.04
2.68
52.04
95.61
127.83
153.52
175.65
195.60
213.82
228.05
236.13
237.22
231.48
219.10
200.69
176.29
147.08
115.07
80.96
45.76
11.40
-19.36
-43.62
-58.41
-62.31
-55.10
-38.33
-16.45
5.42
23.15
34.77
40.34
41.50
39.66
35.95
30.88
23.80
13.95
0.93
-14.92
-32.57
-50.29
-66.40
-79.36
-88.32
-93.79
-97.24
-100.51
-104.71
-109.68
-114.21
-117.26
-118.50
-118.57
-118.80
-120.42
-124.27
-129.69
-134.68
-136.78
-135.10
-130.35
-124.54
-120.15
-119.40
-124.40
-135.18
-149.55
-163.93
-176.36
-186.00
-192.69
-196.56
-197.85
-198.18
-197.75
-194.98
-187.17
-174.54
-158.83
-142.09
-126.01
-111.56
-100.99
-94.51
-90.12
-84.39
-76.97
-68.18
-57.41
-43.12
-10.99
40.12
97.82
140.02
166.01
180.03
186.39
188.23
188.26
188.02
185.62
179.79
171.10
162.19
153.10
143.28
132.51
121.09
109.54
96.73
82.56
68.44
57.04
48.72
42.99
39.31
37.12
35.59
32.78
27.75
21.18
15.27
11.15
9.41
10.16
13.03
17.17
21.04
23.72
25.22
26.46
27.83
29.39
30.86
31.66
31.05
28.23
22.89
15.40
6.71
-2.15
-10.18
-16.43
-20.29
-21.60
-20.87
-19.10
-17.49
-16.84
-17.24
-17.86
-17.38
-14.58
-8.98
-1.19
7.36
14.91
20.11
22.47
22.43
21.01
19.34
18.19
17.87
18.31
19.37
21.00
23.30
26.34
29.99
33.83
37.25
39.72
40.97
41.09
40.37
39.15
37.70
36.20
34.85
33.90
33.53
33.73
34.14
34.11
33.07
30.73
27.23
23.19
19.40
16.62
15.32
15.59
17.34
20.37
24.40
28.92
33.30
36.99
39.80
42.08
44.55
47.81
51.98
56.05
58.14
56.25
49.28
37.53
22.54
6.22
-9.85
-24.35
-36.83
-47.31
-55.74
-61.77
-65.00
-65.60
-64.80
-64.09
-63.53
-62.64
-60.39
-55.52
-46.83
-33.75
-16.96
1.26
18.60
34.98
50.56
65.37
79.18
91.93
103.91
115.51
126.51
137.32
150.09
164.72
178.42
187.17
188.65
184.73
180.97
183.65
182.22
170.14
145.72
112.86
77.27
43.66
15.74
0.15
-7.75
-12.58
-15.44
-16.35
-14.66
-9.76
-3.49
3.05
8.03
8.31
2.32
-8.32
-21.30
-34.49
-46.53
-56.92
-65.50
-73.02
-81.44
-91.98
-104.35
-118.27
-133.48
-149.74
-166.46
-182.51
-196.89
-209.66
-221.10
-231.67
-242.25
-253.56
-265.51
-276.75
-284.60
-285.88
-277.88
-258.60
-227.48
-186.05
-137.97
-88.66
-44.05
-8.96
14.21
25.98
29.53
29.06
28.34
29.51
32.82
37.15
40.98
43.42
44.39
44.48
44.21
44.27
45.28
47.89
52.53
59.36
68.37
78.80
88.93
95.76
96.77
90.74
78.42
62.13
45.05
30.55
20.79
16.00
13.84
11.97
8.77
4.12
-1.24
-6.06
-8.43
-6.82
-0.54
8.95
20.42
32.91
46.32
60.68
72.10
77.01
74.31
72.17
72.84
76.67
80.43
83.07
84.11
83.00
79.52
73.34
64.32
51.66
36.32
20.34
6.31
-4.34
-11.72
-16.53
-20.73
-25.04
-30.04
-35.38
-41.06
-47.27
-54.24
-61.68
-68.18
-72.14
-72.54
-70.30
-66.96
-63.98
-62.29
-61.29
-60.20
-58.39
-55.78
-52.65
-49.84
-47.87
-46.91
-46.79
-47.24
-48.08
-48.87
-48.82
-46.87
-42.08
-33.96
-22.75
-9.34
5.10
19.39
32.68
44.49
54.52
62.51
68.20
71.50
72.65
72.30
71.20
70.04
69.25
68.98
69.20
69.85
70.92
72.40
74.08
75.37
75.25
72.56
66.42
56.71
44.30
30.87
18.31
8.19
1.24
-2.67
-4.38
-4.90
-5.01
-5.06
-5.03
-4.90
-4.68
-4.50
-4.50
-4.94
-6.06
-7.99
-10.67
-13.81
-17.06
-19.66
-20.58
-18.97
-15.02
-10.17
-6.62
-6.29
-9.90
-16.72
-24.43
-29.76
-29.87
-23.68
-12.22
1.89
15.23
24.25
25.53
17.25
0.03
-23.09
-47.77
-69.72
-85.81
-94.75
-94.45
-86.06
-74.28
-64.31
-58.10
-54.62
-51.93
-49.56
-46.99
-44.15
-41.33
-38.39
-34.45
-28.06
-18.84
-7.87
3.05
12.64
20.40
26.23
30.42
33.51
36.50
39.67
42.62
44.71
45.80
46.16
46.12
46.17
47.34
51.72
60.61
73.72
88.95
103.69
115.76
123.86
127.79
121.96
104.14
76.39
43.89
11.51
-17.21
-40.10
-56.08
-66.91
-74.45
-79.53
-82.58
-83.83
-84.12
-82.88
-79.44
-73.67
-66.30
-58.27
-49.67
-39.88
-28.18
-15.11
-1.13
13.50
28.15
41.88
53.90
61.36
61.86
59.51
56.34
51.28
44.47
36.53
28.29
20.57
14.09
9.44
6.59
3.09
-2.30
-8.81
-14.66
-18.44
-19.89
-19.69
-18.79
-17.48
-16.36
-15.32
-13.76
-11.37
-8.67
-6.73
-6.98
-10.14
-16.02
-24.06
-32.89
-41.06
-47.61
-52.42
-55.69
-56.98
-54.87
-47.83
-35.45
-18.61
0.47
19.12
34.94
45.45
49.11
46.94
41.97
36.83
33.43
30.33
26.07
20.15
13.18
6.19
0.92
-1.54
-1.26
0.89
3.62
6.21
8.35
9.91
10.77
10.73
9.17
5.25
-1.64
-11.64
-24.02
-37.51
-50.56
-61.36
-67.96
-68.93
-63.90
-53.76
-40.66
-27.06
-15.01
-5.57
1.53
7.58
13.91
21.12
28.76
35.70
40.96
44.19
45.61
45.80
45.38
44.68
43.62
42.03
39.96
37.99
36.85
36.72
36.94
36.26
33.33
27.18
17.73
5.62
-7.74
-19.54
-27.12
-29.55
-27.83
-23.86
-19.66
-16.95
-17.64
-21.99
-29.58
-39.77
-51.84
-64.94
-78.01
-89.90
-97.50
-98.54
-91.68
-77.23
-57.39
-35.33
-13.81
5.76
23.28
38.39
49.11
53.12
49.32
38.75
24.45
10.42
0.04
-5.09
-5.42
-2.70
1.21
5.39
9.52
13.60
17.65
21.55
25.07
28.11
30.82
32.41
32.83
31.94
29.52
25.37
19.57
12.45
4.51
-3.72
-11.71
-18.68
-23.79
-26.22
-25.32
-20.99
-13.86
-5.29
3.06
9.77
14.20
16.24
16.13
14.26
10.98
6.72
1.97
-2.65
-6.57
-9.31
-10.65
-10.59
-9.16
-6.46
-2.72
1.60
5.79
9.12
11.18
11.99
11.96
11.65
11.50
11.58
11.73
11.67
11.21
10.35
9.17
7.83
6.46
5.15
4.02
3.14
2.55
2.20
2.01
1.93
1.95
2.12
2.47
2.90
3.24
3.34
3.13
2.76
2.46
2.48
2.90
3.63
4.54
5.59
6.94
8.84
11.48
14.77
18.33
21.63
24.22
25.86
26.63
26.70
26.22
25.17
23.39
20.70
17.00
12.40
7.22
2.03
-2.43
-5.34
-6.03
-4.29
-0.56
3.96
7.70
9.18
7.60
3.13
-3.22
-10.09
-16.40
-21.65
-25.95
-29.62
-32.82
-35.40
-36.96
-37.20
-36.10
-34.05
-31.59
-29.20
-27.14
-25.44
-24.03
-22.87
-21.96
-21.33
-20.97
-20.81
-20.81
-21.02
-21.63
-22.87
-24.88
-27.50
-30.21
-32.10
-32.16
-29.70
-24.61
-17.50
-9.45
-1.64
5.07
10.39
14.62
18.33
22.01
25.85
29.71
33.21
35.87
37.24
36.95
35.02
31.72
27.45
22.63
17.63
12.72
8.00
3.35
-1.44
-6.08
-9.98
-12.51
-13.19
-11.80
-8.43
-3.74
0.99
4.15
4.91
3.29
-0.07
-4.20
-8.00
-10.50
-11.17
-9.95
-7.06
-1.84
6.57
18.52
33.48
50.34
67.94
85.37
101.97
112.51
112.77
102.04
83.47
61.49
39.26
18.43
0.12
-14.61
-24.80
-29.62
-29.44
-26.11
-22.54
-21.50
-24.19
-29.62
-35.11
-37.61
-34.81
-25.10
-10.21
6.00
19.64
28.38
31.95
31.54
28.80
25.17
21.53
18.16
15.71
15.46
18.46
24.53
32.02
38.60
42.01
40.77
34.14
22.67
9.79
-0.22
-4.39
-2.70
2.95
10.36
18.33
26.11
33.90
42.30
51.51
60.93
67.73
71.94
73.79
73.45
70.75
66.55
62.45
59.90
58.83
58.35
57.48
55.28
54.50
54.81
55.17
54.30
50.56
40.58
21.79
-6.08
-39.51
-75.01
-109.59
-140.48
-165.54
-184.40
-201.00
-219.24
-240.19
-259.17
-272.50
-278.56
-278.16
-273.50
-267.09
-262.85
-260.72
-256.54
-242.62
-219.25
-193.83
-176.32
-171.96
-158.80
-118.98
-47.30
25.94
90.23
138.01
168.41
179.85
176.54
166.44
153.52
138.40
119.35
97.76
72.96
45.50
17.23
-8.60
-29.92
-49.07
-69.03
-91.27
-112.46
-130.66
-144.56
-153.80
-158.34
-159.28
-159.98
-162.88
-167.42
-168.13
-159.94
-139.71
-108.19
-69.85
-31.61
-0.75
18.78
27.70
30.94
33.26
37.67
44.79
54.08
64.73
76.03
87.56
98.70
108.71
116.19
119.88
119.37
115.44
109.69
104.01
99.85
97.86
97.85
98.98
100.03
99.88
97.79
93.69
88.12
81.97
76.17
71.29
67.37
63.93
60.23
55.46
49.11
41.19
32.30
23.63
16.69
12.78
12.49
15.43
20.07
24.22
25.60
22.52
14.23
1.18
-15.14
-32.25
-47.10
-56.59
-58.39
-51.69
-37.61
-18.87
1.13
19.57
35.02
47.57
58.18
67.84
76.93
85.09
91.59
95.71
96.95
95.06
89.87
81.44
70.35
58.05
46.87
39.63
38.70
45.02
57.68
74.00
90.21
102.43
107.46
103.50
90.46
69.97
45.00
18.95
-5.51
-27.51
-48.35
-70.76
-97.38
-129.04
-163.98
-198.22
-226.98
-246.51
-255.25
-254.09
-245.70
-233.55
-220.82
-209.76
-201.33
-195.15
-189.81
-183.37
-173.97
-160.29
-141.77
-118.47
-90.77
-59.37
-25.26
10.05
44.67
76.67
104.60
127.85
146.64
161.70
173.63
182.61
188.47
190.97
190.17
186.47
180.41
172.48
163.00
152.30
140.87
129.48
118.88
109.47
100.94
92.33
82.38
70.01
54.81
37.20
18.32
-0.22
-16.68
-29.51
-37.67
-40.89
-39.78
-35.80
-30.73
-26.20
-23.13
-21.54
-20.78
-20.03
-18.77
-17.06
-15.47
-14.74
-15.43
-17.65
-21.16
-25.60
-30.75
-36.58
-43.12
-50.23
-57.39
-63.77
-68.45
-70.83
-70.83
-68.91
-65.76
-61.92
-57.55
-52.45
-46.35
-39.12
-30.97
-22.32
-13.59
-4.98
3.66
12.69
22.57
33.56
45.57
58.11
70.43
81.67
91.03
97.79
101.27
100.77
95.88
86.91
75.23
63.25
53.75
48.76
48.77
52.48
57.47
61.37
62.83
61.83
59.24
56.00
52.55
48.90
45.03
41.31
38.40
36.82
36.37
36.03
34.32
30.07
23.02
13.87
3.95
-5.41
-13.26
-19.04
-22.53
-23.72
-22.84
-20.58
-18.08
-16.59
-16.94
-19.11
-22.23
-24.95
-26.06
-24.95
-21.64
-16.57
-10.32
-3.49
3.33
9.75
15.85
22.48
31.15
43.55
60.69
82.30
106.67
131.28
153.66
172.12
185.95
195.27
200.62
202.78
202.57
200.82
198.23
195.02
190.70
184.23
174.66
161.88
147.17
133.22
123.25
119.48
121.71
126.88
130.01
126.29
113.33
92.37
67.76
44.94
28.16
18.82
15.52
15.12
14.33
10.74
3.30
-8.00
-22.54
-39.38
-57.38
-75.28
-91.90
-106.32
-118.04
-127.07
-133.99
-139.81
-145.72
-152.69
-161.03
-170.16
-178.72
-185.06
-187.76
-186.15
-180.44
-171.53
-160.61
-148.95
-137.62
-127.44
-118.83
-111.62
-105.13
-98.43
-90.70
-81.49
-70.90
-59.52
-48.28
-38.21
-30.04
-24.14
-20.51
-18.74
-18.01
-17.40
-16.44
-15.42
-15.45
-17.48
-22.13
-29.67
-40.12
-53.33
-68.95
-86.55
-105.60
-125.40
-144.20
-160.47
-173.97
-186.11
-198.85
-213.57
-230.44
-248.53
-266.13
-279.49
-284.69
-279.01
-261.66
-233.22
-195.10
-149.47
-99.17
-47.30
5.63
60.17
116.41
173.10
228.20
279.73
325.96
365.38
384.48
373.23
332.94
276.73
219.49
169.43
127.85
92.72
61.86
34.44
12.78
-0.70
-5.97
-6.19
-5.73
-7.73
-13.13
-21.16
-30.25
-37.37
-40.37
-38.98
-35.11
-31.41
-29.59
-30.06
-32.23
-34.96
-36.20
-34.45
-29.56
-23.09
-17.17
-13.11
-11.14
-10.84
-11.56
-12.33
-13.05
-13.54
-13.83
-13.85
-12.90
-10.19
-5.41
0.99
8.15
14.95
20.50
24.25
26.22
27.59
29.85
34.06
40.45
48.41
56.90
64.97
71.86
74.12
69.56
58.31
43.21
28.28
16.38
8.05
1.97
-4.01
-11.66
-20.98
-30.21
-37.22
-39.97
-37.25
-29.36
-18.17
-6.62
2.21
6.54
6.20
2.39
-3.62
-10.01
-15.38
-19.28
-22.20
-24.97
-27.78
-29.96
-30.32
-27.85
-22.36
-15.11
-8.51
-5.24
-7.29
-14.96
-26.92
-40.75
-53.71
-63.46
-68.54
-68.52
-63.80
-55.49
-45.21
-34.89
-26.55
-21.69
-20.89
-23.64
-28.52
-33.64
-37.21
-37.98
-35.53
-30.21
-22.93
-14.77
-6.76
0.41
6.40
11.25
15.25
18.73
21.93
24.93
27.68
30.04
31.91
33.24
34.02
34.27
34.05
33.47
32.74
32.09
31.69
31.47
31.16
30.37
28.78
26.36
23.42
20.50
18.08
16.33
15.06
13.77
12.01
9.59
6.66
3.62
0.87
-1.43
-3.37
-5.17
-6.95
-8.62
-9.88
-10.35
-9.84
-8.40
-6.32
-3.99
-1.74
0.25
1.95
3.36
4.48
5.24
5.55
5.37
4.76
3.87
2.89
1.97
1.19
0.60
0.22
0.06
0.15
0.45
0.90
1.38
1.81
2.15
2.43
2.73
3.09
3.51
3.93
4.24
4.34
4.20
3.82
3.29
2.71
2.18
1.78
1.52
1.35
1.17
0.89
0.42
-0.21
-0.92
-1.55
-1.89
-1.74
-0.91
0.66
2.82
5.16
7.09
8.03
7.69
6.20
4.10
2.10
0.81
0.43
0.75
1.28
1.58
1.49
1.12
0.77
0.65
0.77
0.92
0.86
0.49
-0.06
-0.56
-0.70
-0.41
0.18
0.80
1.15
1.11
0.76
0.33
0.09
0.17
0.54
1.04
1.48
1.72
1.76
1.64
1.43
1.17
0.87
0.52
0.14
-0.16
-0.25
-0.01
0.63
1.63
2.90
4.27
5.61
6.83
7.85
8.61
9.10
9.28
9.11
8.56
7.64
6.37
4.87
3.31
1.90
0.89
0.43
0.55
1.10
1.85
2.57
3.08
3.36
3.55
3.77
4.09
4.46
4.74
4.78
4.53
4.04
3.42
2.86
2.50
2.35
2.31
2.26
2.06
1.66
1.03
0.22
-0.63
-1.37
-2.00
-2.58
-3.22
-3.98
-4.84
-5.76
-6.71
-7.33
-7.41
-6.98
-6.29
-5.69
-5.42
-5.59
-6.24
-7.36
-8.27
-8.39
-7.56
-5.96
-3.77
-0.89
3.00
8.08
14.28
22.23
32.17
43.66
55.82
67.70
78.65
88.17
95.65
100.44
103.53
106.19
109.36
113.59
118.99
125.50
132.70
139.69
136.96
118.82
85.91
44.71
3.00
-34.68
-66.69
-92.74
-112.98
-127.80
-136.67
-139.78
-138.46
-134.11
-128.10
-121.03
-113.19
-105.10
-97.85
-91.81
-87.73
-87.93
-92.50
-100.68
-109.76
-115.15
-111.72
-95.80
-66.39
-25.24
18.42
55.17
78.49
86.97
83.71
73.97
62.43
51.89
42.92
34.62
26.91
20.29
15.75
14.00
14.88
17.29
19.87
21.77
22.72
23.82
26.08
29.89
34.75
39.49
42.90
44.35
44.43
44.10
44.89
47.64
52.34
58.15
63.70
67.42
68.14
65.43
59.21
51.15
43.15
36.84
33.23
32.66
34.97
39.83
46.96
54.06
61.15
67.91
73.95
79.16
83.77
88.25
93.10
98.69
104.23
109.20
112.81
114.51
114.09
111.49
106.28
96.99
86.62
75.18
62.25
47.12
29.53
9.93
-10.65
-30.96
-50.08
-67.58
-84.66
-102.74
-123.27
-146.98
-173.54
-201.69
-229.58
-255.51
-278.34
-298.63
-318.04
-339.41
-366.10
-400.59
-442.76
-488.35
-529.10
-554.46
-555.81
-529.57
-478.80
-411.72
-338.08
-265.63
-198.06
-135.87
-77.85
-23.58
26.26
70.89
110.33
144.93
173.36
192.23
196.92
185.66
161.07
129.84
100.50
80.09
71.63
72.93
79.96
88.85
99.60
113.53
130.15
145.99
155.74
155.31
143.01
122.73
101.51
89.43
94.07
117.04
154.18
198.38
243.16
283.00
317.26
331.93
318.24
279.52
228.95
178.05
130.01
89.52
49.22
6.87
-35.66
-72.20
-97.75
-112.08
-116.99
-115.50
-109.71
-102.04
-91.46
-77.02
-57.39
-34.05
-14.65
-7.42
-15.61
-30.34
-45.89
-56.80
-61.51
-58.27
-47.45
-31.49
-13.68
2.42
13.74
15.99
7.42
-11.50
-35.86
-58.51
-72.61
-74.12
-63.54
-44.58
-24.06
-7.25
2.80
7.50
9.91
12.67
16.76
21.66
27.89
35.51
44.87
54.99
65.87
76.96
87.58
96.85
104.42
112.19
121.18
130.89
138.44
142.91
144.50
144.52
144.06
132.54
105.11
64.21
28.91
4.02
-9.45
-15.70
-16.58
-14.05
-9.81
-3.25
6.00
11.83
7.63
-8.20
-32.75
-60.40
-86.33
-107.60
-122.03
-129.38
-131.80
-131.75
-129.56
-125.04
-118.20
-110.25
-102.72
-96.17
-90.51
-85.25
-79.84
-73.11
-64.52
-54.36
-43.81
-34.18
-25.96
-19.18
-13.74
-9.52
-6.08
-3.10
-0.44
1.77
3.38
4.55
5.63
6.92
8.65
10.92
13.53
16.13
18.28
19.71
20.34
20.42
20.18
19.85
19.49
19.12
18.82
18.69
18.89
19.58
21.24
24.11
27.96
32.21
36.14
39.30
41.38
42.44
42.61
42.88
43.91
45.65
47.54
48.98
49.73
49.67
49.16
48.53
49.40
52.81
58.57
65.52
72.19
77.76
81.61
84.12
85.80
88.97
95.25
104.70
116.13
127.81
138.61
147.33
154.01
147.16
121.61
80.95
35.84
-3.16
-31.57
-46.59
-53.95
-58.44
-63.18
-67.63
-70.49
-71.88
-70.79
-66.58
-58.65
-48.13
-36.84
-27.53
-21.46
-19.97
-24.66
-35.91
-54.50
-77.80
-101.08
-119.22
-129.93
-133.12
-131.56
-132.61
-137.16
-143.51
-147.91
-146.73
-137.55
-120.44
-93.40
-56.00
-15.09
20.71
45.19
57.67
60.68
57.07
48.44
36.01
20.93
5.15
-7.58
-14.15
-13.28
-6.22
4.08
14.27
21.89
25.32
24.01
19.31
13.30
8.22
5.61
5.97
8.81
12.81
16.18
17.34
16.04
13.02
9.57
6.74
5.06
4.43
4.43
4.55
4.48
4.50
4.99
6.18
7.84
9.59
11.01
11.90
12.39
12.83
13.64
15.05
16.93
18.14
17.83
15.47
11.00
4.81
-2.23
-9.12
-14.88
-18.78
-20.38
-19.45
-16.13
-11.10
-5.54
-0.81
1.76
1.08
-3.34
-11.47
-21.61
-30.48
-34.96
-33.65
-27.21
-17.53
-6.56
4.34
14.54
23.85
32.07
38.41
41.79
41.41
37.24
30.01
21.10
12.52
5.20
-0.15
-3.30
-4.49
-4.07
-2.38
0.27
3.51
6.93
9.58
10.72
9.68
6.04
0.07
-7.23
-14.40
-20.20
-23.75
-24.93
-24.20
-22.53
-21.00
-20.22
-20.17
-20.42
-20.39
-19.69
-18.33
-16.51
-14.31
-12.02
-9.91
-8.03
-6.37
-4.83
-3.35
-2.00
-0.88
-0.12
0.14
-0.07
-0.55
-1.10
-1.66
-2.38
-3.62
-5.65
-8.44
-11.59
-14.38
-16.06
-16.22
-14.87
-12.34
-9.04
-5.18
-0.82
4.02
9.15
14.20
18.62
21.98
24.04
24.85
24.67
23.76
22.33
20.51
18.41
16.18
13.98
11.96
10.23
8.82
7.72
6.91
6.40
6.17
6.17
6.32
6.49
6.65
6.81
7.03
7.42
8.02
8.85
9.88
11.12
12.50
13.94
15.26
16.18
16.45
15.91
14.56
12.57
10.18
7.60
4.97
2.34
-0.26
-2.82
-5.36
-7.91
-10.47
-12.98
-15.26
-17.05
-18.12
-18.35
-17.78
-16.61
-15.12
-13.56
-12.17
-11.12
-10.57
-10.62
-11.34
-12.63
-14.30
-16.05
-17.64
-18.95
-20.01
-20.95
-21.82
-22.57
-22.97
-22.78
-21.85
-20.25
-18.18
-15.92
-13.66
-11.49
-9.41
-7.42
-5.56
-3.90
-2.48
-1.31
-0.31
0.58
1.40
2.06
2.45
2.44
1.98
1.12
0.00
-1.11
-2.00
-2.49
-2.58
-2.43
-2.29
-2.37
-2.76
-3.37
-4.01
-4.53
-4.94
-5.37
-5.98
-6.85
-7.89
-8.86
-9.54
-9.81
-9.72
-9.43
-9.05
-8.56
-7.88
-6.87
-5.50
-3.85
-2.06
-0.24
1.65
3.80
6.46
9.82
13.87
18.42
23.06
27.41
31.14
34.08
36.19
37.50
38.04
37.84
36.99
35.67
34.10
32.47
30.85
29.15
27.23
25.02
22.61
20.27
18.34
17.07
16.46
16.32
16.22
15.70
14.33
11.91
8.46
4.29
-0.16
-4.43
-8.26
-11.61
-14.69
-17.79
-21.11
-24.65
-28.20
-31.40
-33.93
-35.57
-36.26
-36.07
-35.12
-33.49
-31.25
-28.53
-25.53
-22.52
-19.76
-17.37
-15.18
-12.81
-9.79
-5.83
-0.92
4.61
10.19
15.24
19.30
22.08
23.51
23.65
22.70
20.99
18.95
17.02
15.54
14.63
14.14
13.72
13.05
11.99
10.71
9.53
8.81
8.75
9.37
10.57
12.22
14.22
16.48
18.85
21.10
23.03
24.59
25.91
27.33
29.20
31.69
34.62
37.45
39.46
39.93
38.46
35.07
30.16
24.36
18.29
12.35
6.66
1.13
-4.40
-10.06
-15.80
-21.38
-26.47
-30.72
-33.84
-35.66
-36.19
-35.60
-34.19
-32.32
-30.38
-28.71
-27.56
-27.04
-27.12
-27.68
-28.53
-29.49
-30.40
-31.12
-31.48
-31.40
-30.88
-30.06
-29.18
-28.43
-27.83
-27.28
-26.66
-26.00
-25.60
-25.92
-27.32
-29.82
-33.01
-36.08
-38.18
-38.69
-37.42
-34.69
-31.09
-27.30
-23.85
-20.97
-18.54
-16.16
-13.30
-9.48
-4.45
1.72
8.69
15.96
23.02
29.42
34.85
39.07
42.00
43.57
43.76
42.49
39.76
35.61
30.17
23.65
16.48
9.26
2.67
-2.71
-6.55
-8.65
-9.02
-7.78
-5.22
-1.78
1.99
5.44
7.88
8.80
8.20
6.54
4.48
2.58
1.20
0.74
1.38
3.00
5.07
7.35
9.71
12.15
14.78
17.94
22.67
29.66
38.74
48.46
57.86
66.48
74.42
81.94
89.27
97.20
105.63
113.53
118.72
120.69
120.02
117.65
114.04
109.12
103.84
98.91
94.64
90.15
85.99
82.85
80.78
78.73
67.75
44.00
10.30
-19.90
-43.86
-62.14
-77.04
-89.10
-98.54
-105.35
-108.36
-107.14
-102.56
-97.44
-93.16
-90.06
-87.83
-86.10
-84.48
-81.72
-77.11
-70.94
-64.94
-59.89
-55.95
-53.00
-50.94
-49.63
-48.25
-46.19
-43.37
-40.60
-38.07
-35.66
-33.17
-30.62
-28.18
-25.84
-23.66
-21.80
-20.65
-20.07
-19.69
-19.19
-18.42
-17.45
-16.33
-15.13
-13.96
-13.00
-12.33
-12.05
-12.25
-13.01
-14.16
-15.34
-16.02
-15.82
-14.77
-13.35
-12.34
-12.34
-13.40
-15.01
-16.34
-16.75
-16.13
-14.89
-13.63
-12.74
-12.21
-11.73
-10.95
-9.72
-8.07
-6.01
-3.27
0.66
6.38
14.11
23.50
33.51
42.70
49.71
53.67
54.50
52.93
50.17
47.46
45.65
44.89
44.71
44.32
43.09
40.77
37.53
33.75
29.72
25.54
21.17
16.67
12.26
8.40
5.58
4.10
3.91
4.64
5.73
6.68
7.16
7.07
6.42
5.39
4.22
3.18
2.57
2.66
3.55
5.15
7.14
9.04
10.32
10.63
9.91
8.44
6.77
5.47
5.03
5.61
7.09
9.03
10.85
11.90
11.64
9.79
6.36
1.76
-3.35
-8.19
-12.18
-15.13
-17.25
-19.16
-21.48
-24.71
-28.87
-33.61
-38.22
-41.85
-43.79
-43.63
-41.40
-37.52
-32.76
-27.87
-23.38
-19.38
-15.57
-11.46
-6.64
-1.11
4.77
10.37
15.04
18.37
20.19
20.53
19.53
17.35
14.19
10.47
6.75
3.55
1.15
-0.58
-2.00
-3.58
-5.61
-8.06
-10.49
-12.26
-12.90
-12.35
-11.02
-9.51
-8.45
-8.27
-9.02
-10.24
-11.18
-11.15
-9.87
-7.61
-4.95
-2.57
-0.97
-0.17
0.44
1.84
4.93
10.16
17.42
26.39
36.62
47.61
56.54
60.02
55.76
44.49
29.63
15.24
4.43
-0.92
-1.50
1.26
5.93
11.27
16.34
20.48
22.39
21.23
15.86
6.67
-4.60
-15.38
-23.44
-28.20
-30.26
-30.54
-30.09
-29.71
-28.84
-26.83
-23.01
-17.01
-8.94
0.79
11.75
23.11
33.01
39.29
40.30
35.80
26.89
15.45
3.37
-7.80
-17.73
-26.85
-35.42
-43.14
-49.06
-52.29
-52.57
-51.78
-50.28
-48.33
-45.55
-40.75
-32.66
-20.68
-5.53
11.55
27.08
38.30
43.44
42.12
35.33
24.93
13.25
2.39
-6.10
-11.60
-13.97
-14.04
-12.99
-11.93
-11.75
-12.42
-13.58
-14.78
-15.61
-15.51
-14.15
-11.47
-7.73
-3.44
0.69
3.88
5.51
5.31
3.58
1.03
-1.44
-3.10
-3.51
-2.67
-0.92
1.28
3.46
5.07
5.74
5.42
4.17
2.48
0.92
0.26
1.29
4.52
10.19
18.17
28.10
39.19
50.78
60.38
65.60
65.40
60.81
53.99
46.58
40.76
35.35
29.14
21.66
13.36
5.07
-3.08
-10.91
-18.51
-25.96
-33.31
-40.07
-45.40
-48.38
-48.38
-45.41
-40.10
-33.54
-26.91
-20.49
-15.09
-11.65
-10.60
-11.41
-12.94
-13.99
-13.85
-12.39
-10.09
-7.97
-6.38
-5.48
-5.23
-5.50
-6.13
-6.91
-7.64
-8.24
-8.70
-8.75
-8.39
-7.76
-7.14
-6.78
-6.86
-7.33
-7.98
-8.48
-8.38
-7.45
-5.64
-3.12
-0.22
2.76
5.55
8.01
10.00
11.47
12.37
12.70
12.50
11.90
11.00
9.90
8.64
7.25
5.75
4.25
2.88
1.78
1.00
0.45
-0.09
-0.83
-1.87
-3.11
-4.21
-4.82
-4.75
-4.22
-3.79
-4.23
-6.07
-9.36
-13.47
-17.30
-19.68
-19.81
-17.57
-13.48
-8.41
-3.18
1.72
6.14
10.01
13.14
15.20
15.90
15.31
13.96
12.69
12.18
12.60
13.53
14.24
14.26
13.69
13.14
13.35
14.68
16.89
19.28
21.11
21.96
21.85
21.08
19.94
18.60
17.06
15.28
13.33
11.34
9.45
7.72
6.09
4.42
2.59
0.64
-1.29
-2.96
-4.19
-4.92
-5.26
-5.42
-5.69
-6.24
-7.17
-8.46
-10.05
-11.90
-14.00
-16.34
-18.79
-21.17
-23.24
-24.86
-26.00
-26.79
-27.41
-27.89
-28.13
-27.84
-26.73
-24.71
-21.98
-18.94
-16.02
-13.46
-11.23
-9.20
-7.24
-5.42
-3.95
-3.05
-2.79
-3.01
-3.42
-3.74
-3.89
-3.97
-4.19
-4.66
-5.25
-5.62
-5.30
-3.88
-1.18
2.69
7.37
12.43
17.51
22.42
27.11
31.60
35.84
39.68
42.82
44.99
45.96
45.68
44.26
41.90
38.79
35.04
30.72
25.90
20.80
15.81
11.36
7.76
5.10
3.24
1.99
1.19
0.75
0.57
0.42
-0.13
-1.46
-3.72
-6.68
-9.75
-12.31
-13.97
-14.73
-14.91
-14.88
-14.84
-14.73
-14.40
-13.77
-12.90
-12.00
-11.30
-10.87
-10.58
-10.23
-9.64
-8.75
-7.65
-6.45
-5.15
-3.64
-1.69
0.88
4.02
7.36
10.27
12.07
12.26
10.74
7.83
4.15
0.35
-3.11
-6.01
-8.34
-10.11
-11.28
-11.72
-11.35
-10.23
-8.56
-6.60
-4.52
-2.40
-0.25
1.84
3.64
4.88
5.45
5.50
5.48
5.90
7.05
8.84
10.87
12.66
13.94
14.74
15.27
15.65
15.77
15.21
13.34
9.61
3.72
-4.04
-12.79
-21.09
-27.39
-30.47
-29.92
-26.24
-20.65
-14.49
-8.62
-3.14
2.42
8.63
15.77
23.59
31.39
38.48
44.37
49.08
52.94
56.23
58.85
60.22
59.40
55.44
47.92
37.26
24.87
12.87
3.52
-1.32
-0.36
6.93
19.15
33.27
44.21
46.42
36.64
15.51
-12.70
-41.90
-66.37
-82.82
-91.07
-93.30
-92.32
-90.22
-87.85
-85.18
-81.76
-77.00
-70.36
-61.48
-50.51
-38.28
-26.34
-16.48
-9.97
-6.96
-6.39
-6.68
-6.60
-5.69
-4.15
-2.20
0.11
3.30
7.66
13.03
18.68
23.61
27.02
28.67
28.96
28.62
28.19
27.73
27.07
25.98
24.27
21.96
19.27
16.55
14.09
11.82
9.52
7.24
5.34
4.14
3.79
4.23
5.30
6.96
8.81
10.46
11.86
13.45
15.30
17.17
18.81
20.11
21.10
21.03
18.53
12.27
1.56
-13.41
-31.38
-49.98
-66.44
-75.30
-73.05
-61.65
-47.20
-34.86
-25.91
-18.67
-10.80
-1.26
9.20
18.55
25.20
29.14
31.66
33.99
36.17
38.00
38.42
36.70
32.44
25.46
15.54
2.56
-13.05
-30.00
-45.66
-57.30
-63.58
-65.17
-64.11
-62.46
-61.08
-57.55
-49.81
-36.56
-17.16
4.53
22.62
33.53
38.34
41.27
45.93
52.44
57.91
58.49
51.83
38.95
23.63
10.07
0.83
-3.88
-5.56
-5.92
-5.84
-5.69
-5.47
-5.16
-4.99
-5.23
-5.63
-5.41
-3.51
0.67
6.27
11.40
14.17
13.56
9.86
4.37
-1.35
-6.06
-9.25
-11.08
-11.96
-12.06
-11.56
-11.01
-11.17
-12.81
-16.26
-21.16
-26.30
-29.90
-29.95
-25.32
-16.43
-5.19
5.58
13.26
16.43
15.36
10.49
3.72
-2.89
-7.99
-11.22
-12.99
-13.87
-14.21
-14.12
-13.63
-12.78
-11.93
-11.57
-11.98
-12.98
-14.01
-14.36
-13.54
-11.49
-8.39
-4.73
-1.07
2.19
4.98
7.52
10.34
13.95
18.68
24.51
30.95
37.22
42.67
47.06
50.66
54.06
57.76
61.85
65.94
69.33
71.40
72.03
71.68
71.20
71.39
72.61
74.62
76.49
76.74
73.56
65.28
50.86
30.51
5.98
-19.49
-41.95
-57.93
-65.62
-65.42
-59.63
-51.39
-43.47
-37.51
-33.71
-31.44
-29.99
-29.17
-29.05
-29.65
-30.50
-30.74
-29.68
-27.00
-23.07
-19.01
-16.31
-16.09
-18.60
-23.38
-29.45
-36.19
-42.80
-48.21
-51.14
-50.40
-45.39
-36.90
-27.55
-21.05
-21.16
-28.89
-41.62
-54.23
-61.43
-59.98
-49.87
-34.08
-13.90
6.46
22.78
33.73
40.81
45.52
47.78
47.30
43.13
35.68
26.33
17.36
10.88
7.67
7.09
8.15
10.09
12.50
15.33
17.99
19.90
20.48
19.25
15.95
10.84
4.58
-2.24
-9.11
-15.90
-22.23
-27.36
-30.47
-31.01
-28.90
-24.60
-19.07
-13.41
-8.69
-5.42
-3.52
-2.62
-2.38
-2.66
-3.39
-4.57
-6.06
-7.71
-9.29
-10.61
-11.57
-12.16
-12.45
-12.46
-12.21
-11.71
-11.00
-10.11
-9.09
-8.02
-7.02
-6.19
-5.61
-5.25
-5.05
-4.89
-4.70
-4.51
-4.44
-4.63
-5.19
-6.11
-7.22
-8.19
-8.64
-8.14
-6.39
-3.27
1.04
6.13
11.42
16.34
20.49
23.74
26.24
28.29
30.11
31.71
32.86
33.20
32.48
30.74
28.36
26.02
24.35
23.76
24.23
25.34
26.53
27.24
27.04
25.71
23.14
19.21
13.79
6.78
-1.83
-11.73
-22.39
-33.01
-42.76
-50.88
-56.86
-60.47
-61.76
-60.92
-58.18
-53.77
-47.96
-41.05
-33.37
-25.29
-17.25
-9.72
-3.18
2.35
7.07
11.37
15.77
20.61
25.94
31.41
36.35
40.10
42.82
45.04
47.42
50.47
54.36
58.86
63.30
66.72
68.12
67.52
65.22
61.74
57.76
54.15
51.94
51.98
54.67
59.62
66.60
74.39
81.04
84.69
84.58
81.72
78.38
76.97
72.51
61.69
43.29
18.95
-7.97
-33.82
-55.49
-71.13
-80.71
-85.85
-87.99
-88.58
-88.51
-87.96
-87.03
-85.26
-82.64
-79.66
-76.98
-74.18
-70.53
-65.40
-58.68
-51.00
-43.49
-37.56
-34.27
-33.95
-35.54
-37.57
-38.72
-38.33
-36.44
-33.52
-30.21
-27.02
-24.22
-21.63
-19.07
-16.45
-13.79
-11.16
-8.58
-6.16
-4.11
-2.65
-1.85
-1.57
-1.50
-1.24
-0.43
1.08
3.14
5.39
7.50
9.24
10.58
11.58
12.39
13.12
13.83
14.47
14.96
15.52
16.40
17.81
19.80
22.12
24.33
25.85
26.11
24.74
22.17
19.08
16.11
13.56
11.45
9.67
8.17
7.13
6.88
8.58
13.17
20.87
30.95
42.03
52.65
61.70
68.57
73.17
76.70
80.39
84.95
90.28
95.80
100.97
105.66
109.89
108.05
96.21
73.43
42.51
7.92
-26.42
-57.69
-83.67
-103.08
-116.05
-122.98
-124.69
-121.37
-112.30
-96.25
-72.98
-44.21
-14.02
12.48
31.91
43.32
48.07
48.19
45.57
39.91
31.18
20.21
8.94
0.27
-3.76
-2.90
1.04
5.11
6.10
3.26
-1.79
-6.19
-7.22
-3.54
4.55
15.17
25.57
31.84
31.81
24.75
10.12
-11.61
-39.70
-72.27
-106.73
-140.39
-172.33
-200.33
-220.79
-229.86
-224.71
-204.55
-171.31
-129.93
-78.75
-26.77
14.55
39.97
52.78
59.28
63.46
65.76
64.79
59.71
50.17
38.98
29.60
24.11
21.97
20.99
19.15
15.73
11.53
7.16
4.31
4.58
8.68
15.23
21.96
27.01
29.70
30.47
29.75
28.73
28.61
29.90
32.14
34.49
36.37
37.63
38.48
38.90
39.09
39.34
39.76
40.17
40.31
40.10
39.51
38.58
37.19
35.21
32.51
28.94
24.37
19.00
13.39
8.41
4.78
2.78
2.01
1.49
0.14
-2.71
-6.95
-11.76
-15.98
-18.63
-19.17
-17.63
-14.58
-10.99
-7.82
-5.84
-5.47
-6.74
-9.41
-12.88
-16.61
-20.38
-24.43
-29.08
-34.43
-40.24
-46.12
-51.82
-57.01
-61.49
-65.14
-67.84
-69.21
-68.59
-65.42
-59.63
-51.77
-42.26
-31.25
-18.82
-5.10
9.78
25.86
43.47
63.31
83.13
99.95
111.95
118.93
120.68
116.04
103.94
84.84
61.08
36.09
13.47
-4.23
-16.21
-23.29
-27.02
-28.90
-29.92
-30.76
-31.57
-32.00
-31.53
-29.80
-26.88
-23.26
-19.57
-16.07
-12.81
-9.87
-7.32
-5.57
-5.11
-6.24
-8.72
-11.70
-13.70
-13.17
-9.22
-1.80
8.30
20.02
32.50
45.01
54.93
59.49
56.96
47.45
32.79
15.31
-2.52
-18.24
-29.83
-36.14
-36.83
-32.64
-25.96
-18.35
-11.14
-4.96
0.74
7.10
15.19
25.52
37.33
48.46
56.11
57.67
50.18
33.49
9.99
-16.21
-40.46
-59.08
-70.37
-74.45
-73.07
-68.59
-62.87
-57.20
-52.24
-48.02
-44.07
-39.65
-33.56
-25.37
-15.94
-7.23
-1.76
-1.50
-6.86
-16.51
-28.12
-38.45
-45.24
-47.62
-45.64
-39.55
-29.40
-15.31
1.85
20.08
37.79
53.49
66.26
76.11
84.00
91.42
99.73
109.63
115.71
114.26
104.50
88.93
71.08
53.66
38.26
25.53
16.59
9.35
2.60
-4.69
-13.16
-23.04
-33.77
-44.14
-52.36
-56.71
-56.68
-52.18
-44.41
-35.37
-27.24
-21.56
-18.93
-19.37
-22.46
-27.48
-32.82
-37.60
-40.93
-42.06
-40.68
-36.44
-30.04
-22.76
-15.97
-10.29
-5.75
-1.98
1.33
4.22
6.51
7.93
8.33
7.66
6.13
3.89
1.15
-1.87
-4.93
-7.77
-10.27
-12.38
-14.15
-15.55
-16.54
-16.95
-16.65
-15.70
-14.29
-12.78
-11.48
-10.58
-10.14
-10.18
-10.67
-11.56
-12.80
-14.26
-15.80
-17.24
-18.41
-19.23
-19.69
-19.79
-19.45
-18.54
-16.80
-13.97
-9.74
-4.00
3.11
11.07
19.06
26.21
31.78
35.51
37.53
38.34
38.47
38.27
37.83
37.04
35.78
34.03
31.85
29.29
26.41
23.15
19.53
15.73
12.19
9.60
8.61
9.64
12.64
17.25
22.72
28.10
32.47
35.24
36.35
36.16
35.25
34.16
33.52
33.48
33.68
33.34
31.72
28.43
23.64
17.93
12.22
8.07
6.68
8.58
13.44
20.33
28.03
35.28
40.92
44.17
45.45
45.54
45.16
44.71
44.32
44.10
44.11
44.34
40.32
29.94
14.17
-3.54
-19.96
-33.91
-45.78
-56.45
-66.50
-75.96
-83.62
-88.89
-91.61
-92.27
-91.78
-90.80
-89.62
-88.20
-86.34
-83.33
-78.85
-73.11
-66.31
-59.20
-52.38
-46.17
-40.72
-36.14
-32.15
-28.48
-24.91
-21.35
-17.84
-14.37
-10.93
-7.62
-4.48
-1.28
2.23
6.23
10.65
15.12
19.20
22.57
25.07
26.78
27.99
29.02
30.10
31.25
32.27
32.90
32.92
32.20
30.79
28.90
26.81
24.79
22.97
21.38
19.93
18.50
16.92
15.02
12.61
9.60
6.04
2.18
-1.64
-5.11
-8.03
-10.38
-12.29
-13.98
-15.69
-17.62
-19.93
-22.67
-25.72
-28.75
-31.32
-33.04
-33.71
-33.42
-32.53
-31.47
-30.56
-29.89
-29.33
-28.64
-27.57
-25.91
-23.50
-20.30
-16.41
-12.06
-7.55
-3.12
1.26
5.85
10.99
16.85
23.20
29.49
35.12
39.72
43.36
46.38
49.05
51.30
52.70
52.72
51.04
47.82
43.63
39.26
35.47
32.82
31.65
32.16
34.34
37.99
42.75
48.17
53.86
59.62
65.43
71.32
77.27
83.12
88.55
93.21
96.83
99.32
100.72
101.25
101.24
101.02
100.96
101.37
102.36
103.78
105.28
106.53
107.43
108.24
109.42
111.45
114.46
117.94
120.63
120.71
116.11
105.01
86.39
60.31
28.25
-7.01
-42.15
-74.21
-101.24
-122.56
-138.42
-149.55
-157.06
-161.61
-163.36
-162.44
-159.39
-155.15
-150.72
-146.82
-143.92
-143.14
-144.98
-149.01
-154.15
-159.23
-163.28
-165.60
-165.90
-164.39
-163.07
-163.13
-164.09
-164.33
-162.21
-156.86
-148.40
-137.58
-125.52
-115.11
-107.83
-102.87
-98.24
-92.28
-84.35
-74.82
-64.51
-43.26
-9.25
30.37
64.96
87.97
98.89
100.59
96.98
91.84
88.12
85.82
83.68
82.26
82.18
83.28
84.70
85.57
85.44
84.34
81.37
76.57
71.24
66.69
63.64
61.79
60.25
58.16
54.97
49.98
43.44
36.77
31.52
28.70
28.36
29.79
31.99
33.95
34.98
34.94
34.26
33.44
32.89
32.81
33.07
33.22
32.42
30.08
25.69
19.20
11.17
2.92
-3.63
-6.67
-4.82
2.45
15.63
34.40
57.51
82.70
107.07
127.65
141.45
146.08
137.04
113.89
82.00
50.57
27.21
15.03
13.46
19.32
29.10
35.85
38.41
37.69
35.21
31.70
26.78
19.86
9.18
-7.42
-29.88
-58.10
-90.48
-124.11
-155.93
-183.61
-204.72
-218.96
-226.78
-232.93
-241.73
-254.87
-271.42
-289.29
-306.84
-322.31
-336.55
-328.54
-289.14
-225.44
-154.78
-91.22
-39.51
-5.47
18.51
36.50
50.68
59.09
60.23
57.82
55.36
55.53
59.28
68.16
82.66
104.06
130.60
158.05
180.09
191.03
189.69
179.19
165.26
151.55
140.13
129.74
118.65
106.70
94.80
83.91
73.66
63.16
50.84
36.46
21.01
4.99
-9.67
-20.82
-27.00
-28.24
-25.49
-20.54
-14.84
-9.65
-6.16
-4.25
-3.01
-1.31
1.35
4.59
7.24
8.27
7.22
4.54
1.77
0.58
2.00
5.83
10.89
15.61
19.04
20.93
21.54
21.32
20.42
19.00
17.73
18.28
21.40
27.04
33.29
37.05
35.54
27.86
15.82
2.94
-7.28
-13.32
-15.60
-16.77
-19.31
-23.98
-29.68
-34.46
-37.19
-38.11
-38.74
-39.83
-41.37
-42.39
-41.58
-38.16
-32.13
-24.74
-17.82
-13.02
-11.10
-11.92
-14.30
-16.51
-16.80
-13.75
-7.19
1.94
11.96
21.26
28.65
33.83
37.14
37.61
35.75
31.91
26.04
17.98
8.03
-2.93
-13.51
-22.25
-28.35
-31.44
-31.78
-30.02
-26.92
-23.11
-19.05
-14.98
-11.06
-7.49
-4.30
-1.67
0.26
1.52
2.34
2.43
1.84
0.69
-0.84
-2.52
-4.26
-5.83
-7.09
-7.97
-8.55
-8.81
-8.81
-8.68
-8.64
-9.01
-9.69
-10.51
-11.47
-12.58
-13.58
-13.89
-12.83
-9.90
-5.04
2.09
11.25
21.47
31.40
40.01
46.92
52.33
56.82
61.09
66.82
75.12
85.86
97.74
109.10
118.68
125.97
131.27
129.04
116.67
95.53
69.64
42.18
14.27
-13.59
-40.25
-63.85
-82.50
-94.05
-97.29
-92.25
-80.00
-62.55
-42.77
-24.59
-12.16
-8.21
-12.11
-20.65
-29.63
-35.71
-37.65
-35.88
-32.07
-27.89
-24.10
-20.29
-15.83
-10.86
-6.36
-4.04
-4.13
-6.07
-8.39
-9.04
-6.73
-1.25
6.25
14.56
21.20
25.73
29.41
33.88
41.25
51.32
62.84
74.26
84.73
93.96
102.53
110.72
117.99
123.19
123.74
118.70
109.32
98.56
88.70
81.37
76.98
75.02
74.82
73.42
69.96
65.70
63.01
61.31
58.72
52.39
38.95
22.10
0.26
-25.47
-51.00
-70.80
-85.14
-96.44
-107.47
-119.89
-133.85
-154.26
-181.32
-210.21
-233.22
-250.95
-266.35
-282.41
-300.89
-322.96
-356.81
-404.50
-459.58
-507.72
-541.33
-554.13
-541.88
-503.65
-402.45
-244.10
-70.26
56.55
143.06
203.94
253.00
295.63
335.27
374.81
410.76
444.77
483.55
535.13
593.45
646.52
681.48
690.08
670.69
623.34
556.24
482.94
417.56
362.35
314.30
269.47
226.32
185.68
146.35
108.75
74.35
44.97
17.10
-12.89
-46.36
-81.52
-115.12
-145.61
-172.01
-194.09
-212.16
-229.36
-248.92
-273.06
-302.41
-335.87
-370.60
-400.66
-417.50
-412.34
-380.55
-323.72
-249.77
-170.29
-96.22
-34.00
15.81
56.91
93.94
129.32
162.22
189.63
208.27
216.24
213.39
200.62
179.06
149.80
113.98
73.49
31.22
-9.00
-43.28
-68.73
-84.79
-93.70
-100.14
-109.41
-125.06
-146.82
-170.25
-188.44
-195.02
-187.18
-167.14
-141.07
-116.51
-99.19
-91.27
-91.44
-96.67
-104.23
-112.79
-121.98
-130.90
-136.84
-135.30
-121.72
-93.84
-53.50
-6.44
39.82
78.93
107.72
126.45
137.41
142.97
144.60
143.00
139.13
134.79
132.07
132.15
134.11
134.85
130.14
116.53
93.11
62.02
27.98
-3.57
-28.59
-45.75
-56.23
-62.31
-65.33
-64.33
-56.15
-37.23
-6.05
35.15
80.53
122.48
154.28
172.26
176.20
168.40
152.01
129.50
102.15
70.40
34.96
-2.05
-36.62
-63.56
-78.25
-78.79
-67.38
-49.93
-33.98
-26.01
-29.22
-42.91
-63.63
-87.22
-110.36
-131.06
-148.04
-159.91
-164.70
-160.47
-146.27
-123.01
-93.38
-61.07
-29.66
-1.72
21.53
39.77
53.08
61.34
63.91
59.96
49.08
31.97
10.57
-12.28
-33.84
-52.30
-67.32
-79.72
-90.86
-102.06
-114.44
-129.00
-146.48
-167.03
-189.40
-210.83
-228.07
-239.32
-245.90
-252.25
-263.88
-284.26
-312.36
-342.29
-365.39
-373.69
-362.77
-333.15
-289.49
-238.64
-187.57
-141.82
-104.98
-78.62
-62.75
-56.11
-56.42
-60.73
-65.58
-67.40
-62.84
-49.22
-24.80
10.81
56.25
107.54
157.81
198.41
221.18
221.56
200.31
163.31
118.91
74.70
35.36
2.24
-25.67
-50.79
-76.25
-105.34
-140.28
-180.44
-221.16
-254.34
-271.32
-266.77
-241.32
-200.97
-153.84
-106.22
-60.45
-15.63
29.88
76.22
121.74
164.27
203.10
239.61
276.38
315.65
358.18
403.23
449.28
494.90
538.69
578.47
610.61
630.28
632.94
616.39
581.94
533.94
477.80
417.73
355.65
291.81
226.43
161.08
98.68
42.24
-6.79
-49.19
-87.17
-122.65
-155.71
-184.39
-205.75
-217.82
-221.04
-218.55
-215.23
-215.81
-223.30
-238.18
-258.67
-282.01
-305.55
-327.67
-347.86
-366.26
-383.16
-398.84
-413.65
-428.28
-443.38
-458.91
-473.26
-483.09
-484.12
-472.86
-448.22
-412.23
-369.40
-324.98
-283.23
-246.41
-214.85
-187.92
-164.97
-145.68
-129.97
-117.57
-107.72
-99.19
-90.70
-81.26
-70.29
-57.79
-44.05
-29.50
-14.50
0.71
16.13
31.93
48.43
65.95
84.69
104.59
125.30
146.23
166.80
186.52
205.19
222.91
239.99
257.00
274.97
295.46
320.28
350.52
385.32
421.17
452.40
472.98
478.73
468.89
446.14
415.09
380.32
344.82
309.75
275.15
240.82
206.87
173.58
140.96
108.58
75.62
41.42
5.83
-30.65
-66.93
-101.60
-133.13
-160.19
-181.85
-197.59
-207.09
-209.97
-205.77
-194.19
-175.58
-151.31
-123.72
-95.55
-69.25
-46.44
-27.71
-12.77
-0.73
9.61
19.50
30.12
42.59
57.81
76.29
97.95
121.61
144.83
163.77
173.97
171.60
155.12
126.20
89.52
51.21
16.86
-10.22
-29.43
-42.03
-49.64
-53.08
-52.18
-46.44
-36.08
-22.60
-8.61
3.13
10.79
14.06
14.04
12.66
11.87
12.94
16.30
21.64
28.02
34.06
38.03
38.11
32.99
22.52
8.09
-7.41
-20.26
-26.84
-24.53
-12.22
9.36
37.73
68.91
98.00
120.15
131.78
131.69
121.39
104.49
85.31
67.37
52.40
40.53
31.07
23.51
18.19
16.14
18.46
25.63
37.03
51.01
65.43
78.33
88.44
95.36
99.32
100.88
100.56
98.72
95.66
91.66
87.14
82.50
78.04
73.75
69.35
64.35
58.20
50.59
41.52
31.40
20.94
10.93
1.97
-5.71
-12.29
-18.24
-24.06
-29.98
-35.99
-41.81
-47.13
-51.69
-55.41
-58.27
-60.29
-61.46
-61.72
-61.05
-59.49
-57.14
-54.13
-50.56
-46.44
-41.64
-35.98
-29.27
-21.44
-12.62
-3.16
6.36
15.30
23.11
29.50
34.44
38.11
40.78
42.63
43.79
44.37
44.54
44.52
44.45
44.32
43.88
42.83
40.92
38.19
34.86
31.28
27.69
24.20
20.82
17.56
14.52
11.83
9.58
7.72
6.02
4.19
1.96
-0.82
-4.04
-7.43
-10.58
-13.09
-14.69
-15.33
-15.19
-14.59
-13.85
-13.16
-12.47
-11.53
-9.99
-7.58
-4.16
0.17
5.21
10.70
16.44
22.34
28.41
34.61
40.87
47.02
52.83
58.11
62.76
66.76
70.14
72.82
74.64
75.30
74.52
72.13
68.16
62.80
56.28
48.74
40.25
30.86
20.84
10.71
1.23
-6.81
-12.84
-16.72
-18.72
-19.38
-19.31
-19.09
-19.23
-20.14
-22.10
-25.23
-29.37
-34.13
-38.90
-43.09
-46.21
-48.05
-48.64
-48.14
-46.81
-44.86
-42.48
-39.87
-37.24
-34.88
-33.06
-32.00
-31.71
-31.95
-32.30
-32.29
-31.62
-30.28
-28.61
-27.08
-26.12
-25.87
-26.13
-26.47
-26.41
-25.62
-23.96
-21.49
-18.35
-14.73
-10.86
-6.98
-3.37
-0.23
2.32
4.29
5.78
6.90
7.72
8.20
8.31
8.00
7.26
6.10
4.62
2.93
1.17
-0.49
-1.89
-2.88
-3.38
-3.37
-2.94
-2.23
-1.46
-0.85
-0.57
-0.74
-1.40
-2.53
-4.11
-6.06
-8.25
-10.41
-12.18
-13.09
-12.80
-11.20
-8.48
-5.06
-1.47
1.84
4.58
6.95
9.16
11.21
12.83
13.67
13.40
11.89
9.16
5.47
1.51
-2.12
-5.12
-7.47
-9.34
-10.84
-12.00
-12.78
-13.05
-11.97
-8.91
-3.70
3.45
12.33
22.89
34.93
47.99
61.32
75.73
91.40
107.35
121.83
133.42
141.66
146.70
148.88
148.45
149.21
153.34
160.10
166.44
169.53
168.19
162.54
153.26
141.13
132.72
132.25
139.49
150.64
162.13
172.63
182.28
191.42
199.98
214.91
239.91
272.75
306.69
335.69
357.46
372.64
383.11
344.22
238.59
83.95
-79.15
-218.49
-322.52
-392.97
-436.21
-459.25
-468.91
-463.41
-444.32
-416.60
-387.81
-363.46
-344.53
-329.37
-316.08
-303.62
-286.06
-260.29
-228.01
-194.78
-165.77
-142.59
-124.36
-109.40
-96.32
-80.82
-60.96
-37.80
-15.04
0.79
6.24
1.81
-9.11
-22.82
-34.44
-43.63
-51.17
-58.35
-66.01
-72.70
-76.86
-77.91
-76.62
-74.00
-71.41
-69.56
-68.65
-68.15
-66.66
-63.13
-57.39
-50.19
-42.67
-35.78
-29.71
-24.23
-18.97
-13.50
-7.79
-2.32
2.23
5.29
6.66
6.73
6.04
5.01
3.89
2.50
0.45
-2.61
-6.71
-11.55
-16.53
-21.05
-24.75
-27.46
-29.14
-29.75
-29.27
-27.70
-25.22
-22.24
-19.26
-16.70
-14.73
-13.17
-11.67
-9.95
-7.91
-5.71
-3.53
-1.46
0.56
2.69
4.98
7.25
9.14
10.28
10.47
9.71
8.26
6.45
4.56
2.78
1.22
-0.04
-0.90
-1.27
-1.07
-0.36
0.74
2.02
3.29
4.37
5.20
5.78
6.16
6.40
6.55
6.62
6.62
6.54
6.35
6.04
5.66
5.27
5.05
5.17
5.82
7.11
9.05
11.53
14.35
17.26
19.97
22.26
23.93
24.90
25.15
24.74
23.80
22.47
20.91
19.28
17.68
16.16
14.76
13.48
12.29
11.15
10.04
8.97
7.95
7.05
6.26
5.57
4.90
4.12
3.18
2.01
0.67
-0.77
-2.17
-3.47
-4.66
-5.83
-7.07
-8.45
-9.89
-11.16
-11.92
-11.81
-10.63
-8.43
-5.48
-2.19
1.04
3.95
6.43
8.46
10.06
11.15
11.68
11.62
11.04
10.08
8.92
7.73
6.58
5.53
4.63
3.96
3.59
3.54
3.74
3.98
4.00
3.55
2.57
1.18
-0.35
-1.69
-2.65
-3.21
-3.52
-3.80
-4.20
-4.77
-5.50
-6.37
-7.39
-8.52
-9.62
-10.42
-10.55
-9.71
-7.80
-5.00
-1.76
1.43
4.11
6.04
7.17
7.69
7.89
8.04
8.30
8.65
8.97
9.04
8.70
7.91
6.77
5.48
4.26
3.32
2.79
2.66
2.84
3.09
3.14
2.73
1.76
0.30
-1.43
-3.15
-4.61
-5.65
-6.27
-6.54
-6.57
-6.47
-6.32
-6.22
-6.23
-6.44
-6.82
-7.26
-7.54
-7.38
-6.56
-5.04
-3.00
-0.76
1.28
2.85
3.81
4.20
4.12
3.66
2.84
1.66
0.13
-1.64
-3.50
-5.26
-6.84
-8.22
-9.49
-10.71
-11.92
-13.02
-13.88
-14.40
-14.51
-14.21
-13.55
-12.50
-11.06
-9.19
-6.96
-4.48
-1.94
0.47
2.61
4.41
5.88
7.01
7.83
8.36
8.65
8.83
9.04
9.39
9.95
10.64
11.34
11.93
12.35
12.60
12.67
12.53
12.05
11.12
9.67
7.75
5.50
3.10
0.67
-1.77
-4.23
-6.72
-9.15
-11.30
-12.91
-13.72
-13.61
-12.62
-10.93
-8.79
-6.43
-3.99
-1.51
1.03
3.60
6.15
8.56
10.68
12.42
13.74
14.63
15.10
15.19
14.98
14.66
14.45
14.59
15.20
16.18
17.23
17.99
18.13
17.50
16.14
14.18
11.78
9.00
5.87
2.42
-1.26
-5.00
-8.56
-11.73
-14.35
-16.37
-17.79
-18.71
-19.23
-19.47
-19.49
-19.36
-19.08
-18.72
-18.31
-17.89
-17.46
-16.99
-16.42
-15.69
-14.84
-13.94
-13.07
-12.29
-11.60
-10.92
-10.19
-9.33
-8.27
-6.93
-5.21
-3.07
-0.54
2.25
5.10
7.84
10.30
12.44
14.23
15.69
16.83
17.63
18.07
18.18
17.97
17.51
16.88
16.21
15.67
15.39
15.47
15.88
16.47
17.06
17.41
17.34
16.75
15.61
13.99
11.99
9.74
7.37
4.97
2.67
0.57
-1.21
-2.60
-3.60
-4.27
-4.73
-5.05
-5.19
-5.03
-4.36
-2.96
-0.74
2.28
5.85
9.57
12.89
15.21
16.13
15.55
13.76
11.35
8.98
7.08
5.67
4.39
2.68
-0.02
-4.06
-9.45
-15.88
-22.76
-29.32
-34.81
-38.60
-40.32
-39.91
-37.62
-33.83
-28.97
-23.44
-17.61
-11.91
-6.84
-2.95
-0.69
-0.26
-1.57
-4.25
-7.76
-11.49
-15.01
-18.04
-20.49
-22.39
-23.80
-24.73
-25.19
-25.16
-24.66
-23.81
-22.72
-21.44
-19.91
-17.90
-15.13
-11.39
-6.66
-1.15
4.75
10.60
16.03
20.77
24.63
27.45
29.06
29.31
28.18
25.82
22.55
18.75
14.85
11.15
7.90
5.26
3.39
2.38
2.25
2.93
4.27
6.05
8.12
10.33
12.60
14.82
16.94
18.87
20.56
21.99
23.08
23.74
23.81
23.15
21.70
19.55
16.89
13.92
10.78
7.49
3.99
0.28
-3.53
-7.19
-10.40
-12.87
-14.38
-14.86
-14.34
-12.96
-10.92
-8.50
-5.96
-3.55
-1.40
0.40
1.87
2.99
3.76
4.20
4.35
4.32
4.27
4.32
4.50
4.81
5.15
5.45
5.67
5.75
5.64
5.22
4.40
3.13
1.46
-0.48
-2.46
-4.24
-5.60
-6.42
-6.62
-6.20
-5.21
-3.70
-1.76
0.49
2.87
5.15
7.06
8.35
8.82
8.34
6.95
4.77
2.13
-0.60
-2.98
-4.71
-5.65
-5.85
-5.52
-4.85
-3.98
-2.91
-1.57
0.10
2.17
4.59
7.29
10.17
13.13
16.04
18.77
21.19
23.16
24.55
25.23
25.15
24.32
22.87
21.03
19.02
16.95
14.82
12.49
9.84
6.83
3.61
0.39
-2.59
-5.17
-7.25
-8.80
-9.74
-10.03
-9.68
-8.86
-7.88
-7.06
-6.64
-6.69
-7.09
-7.66
-8.31
-9.05
-9.97
-11.16
-12.58
-14.02
-15.19
-15.84
-15.82
-15.14
-13.94
-12.44
-10.86
-9.40
-8.20
-7.31
-6.76
-6.54
-6.70
-7.30
-8.39
-9.95
-11.89
-13.98
-16.00
-17.75
-19.12
-20.09
-20.68
-20.92
-20.84
-20.45
-19.76
-18.76
-17.35
-15.43
-12.90
-9.73
-6.03
-2.02
2.06
5.92
9.32
12.10
14.12
15.34
15.75
15.42
14.43
12.92
11.08
9.13
7.33
5.92
5.04
4.72
4.84
5.22
5.68
6.11
6.49
6.83
7.14
7.45
7.79
8.19
8.64
9.07
9.35
9.34
8.95
8.19
7.19
6.09
5.05
4.14
3.40
2.82
2.39
2.15
2.10
2.25
2.52
2.82
3.09
3.28
3.36
3.34
3.22
2.97
2.55
1.97
1.21
0.28
-0.83
-2.15
-3.71
-5.42
-7.11
-8.46
-9.16
-8.97
-7.84
-5.96
-3.63
-1.22
0.99
2.85
4.34
5.48
6.28
6.72
6.76
6.36
5.60
4.60
3.58
2.72
2.17
1.92
1.92
2.01
2.05
1.93
1.63
1.22
0.84
0.64
0.73
1.10
1.66
2.26
2.80
3.22
3.53
3.68
3.63
3.27
2.49
1.30
-0.15
-1.58
-2.69
-3.27
-3.29
-2.87
-2.16
-1.26
-0.09
1.45
3.43
5.75
8.11
10.13
11.54
12.28
12.50
12.49
12.46
12.42
12.16
11.43
9.99
7.79
5.01
1.95
-1.02
-3.58
-5.52
-6.72
-7.14
-6.86
-6.06
-4.97
-3.89
-3.05
-2.59
-2.48
-2.63
-2.91
-3.28
-3.76
-4.36
-5.12
-5.99
-6.89
-7.75
-8.56
-9.35
-10.14
-10.91
-11.55
-11.90
-11.81
-11.23
-10.19
-8.81
-7.25
-5.63
-4.07
-2.66
-1.50
-0.74
-0.51
-0.92
-2.00
-3.65
-5.73
-8.02
-10.27
-12.22
-13.70
-14.58
-14.89
-14.73
-14.30
-13.73
-13.14
-12.55
-11.96
-11.37
-10.77
-10.18
-9.61
-9.06
-8.51
-7.94
-7.33
-6.65
-5.92
-5.13
-4.30
-3.48
-2.71
-2.04
-1.50
-1.12
-0.87
-0.73
-0.64
-0.52
-0.32
-0.03
0.29
0.57
0.77
0.92
1.12
1.46
2.02
2.73
3.47
4.07
4.46
4.66
4.83
5.14
5.74
6.62
7.70
8.82
9.82
10.63
11.20
11.57
11.78
11.86
11.86
11.80
11.68
11.46
11.08
10.47
9.63
8.64
7.67
6.84
6.24
5.83
5.50
5.13
4.68
4.20
3.77
3.44
3.25
3.15
3.06
2.90
2.60
2.11
1.47
0.68
-0.16
-0.99
-1.79
-2.56
-3.37
-4.25
-5.18
-6.06
-6.81
-7.42
-7.94
-8.51
-9.21
-10.02
-10.77
-11.27
-11.36
-10.95
-10.14
-9.07
-7.89
-6.74
-5.69
-4.83
-4.25
-4.06
-4.29
-4.87
-5.56
-6.06
-6.08
-5.43
-4.07
-2.10
0.37
3.18
6.18
9.19
11.96
14.24
15.80
16.54
16.46
15.74
14.58
13.25
11.92
10.65
9.35
7.85
5.89
3.35
0.25
-3.15
-6.50
-9.38
-11.53
-12.85
-13.41
-13.34
-12.77
-11.77
-10.33
-8.40
-5.98
-3.14
-0.07
2.99
5.85
8.42
10.70
12.76
14.64
16.31
17.62
18.45
18.74
18.54
18.05
17.49
17.05
16.83
16.85
17.02
17.25
17.41
17.46
17.42
17.39
17.48
17.75
18.12
18.38
18.24
17.49
15.99
13.79
11.03
7.91
4.62
1.31
-1.85
-4.71
-7.16
-9.14
-10.69
-11.87
-12.71
-13.21
-13.39
-13.30
-13.10
-13.01
-13.20
-13.68
-14.28
-14.70
-14.70
-14.22
-13.34
-12.26
-11.14
-10.02
-8.84
-7.53
-6.11
-4.65
-3.28
-2.12
-1.21
-0.53
-0.03
0.25
0.22
-0.27
-1.29
-2.81
-4.69
-6.75
-8.82
-10.87
-12.94
-15.12
-17.39
-19.66
-21.74
-23.42
-24.57
-25.15
-25.16
-24.63
-23.58
-22.01
-19.99
-17.65
-15.17
-12.78
-10.70
-9.04
-7.86
-7.06
-6.45
-5.87
-5.22
-4.51
-3.82
-3.24
-2.75
-2.23
-1.50
-0.46
0.88
2.38
3.84
5.14
6.24
7.17
7.98
8.68
9.22
9.57
9.76
9.88
10.00
10.16
10.36
10.57
10.83
11.18
11.67
12.30
12.96
13.50
13.74
13.62
13.19
12.64
12.15
11.84
11.72
11.65
11.48
11.06
10.31
9.20
7.74
5.99
4.03
2.02
0.15
-1.40
-2.52
-3.28
-3.85
-4.48
-5.29
-6.22
-6.99
-7.28
-6.85
-5.66
-3.91
-1.90
0.09
1.82
3.16
4.02
4.37
4.19
3.52
2.46
1.18
-0.11
-1.16
-1.83
-2.09
-2.06
-2.01
-2.21
-2.81
-3.75
-4.81
-5.68
-6.17
-6.26
-6.05
-5.69
-5.22
-4.63
-3.83
-2.82
-1.63
-0.35
0.97
2.30
3.55
4.60
5.22
5.19
4.42
3.06
1.41
-0.17
-1.42
-2.24
-2.64
-2.67
-2.39
-1.89
-1.18
-0.33
0.60
1.47
2.15
2.49
2.41
1.77
0.58
-0.93
-2.37
-3.30
-3.50
-2.91
-1.70
-0.00
1.78
3.48
5.32
7.74
11.03
15.04
19.28
23.04
25.79
26.61
25.02
21.22
16.14
10.84
6.07
2.12
-1.21
-4.34
-8.79
-15.74
-25.21
-35.86
-45.98
-54.39
-60.73
-65.65
-70.12
-76.46
-86.48
-100.35
-116.39
-132.11
-145.20
-153.70
-156.44
-144.17
-112.57
-65.43
-13.67
31.93
65.72
86.93
99.78
107.34
111.41
111.66
107.80
100.00
90.34
80.92
73.03
67.27
63.64
62.48
63.68
66.85
71.04
75.18
77.57
77.12
74.16
69.88
65.81
62.20
58.24
53.52
48.91
45.01
42.66
43.02
46.55
52.59
59.00
63.81
64.81
60.80
50.16
32.34
8.70
-18.26
-45.90
-72.01
-95.10
-114.45
-120.51
-108.01
-79.17
-42.12
-5.35
26.37
52.46
74.39
93.75
111.66
127.03
136.68
141.80
144.54
146.43
148.55
151.20
153.97
156.03
155.22
149.34
136.84
121.49
105.16
89.08
73.73
59.06
44.75
29.70
13.05
-5.11
-24.26
-44.35
-64.94
-85.26
-104.08
-119.81
-131.33
-138.12
-140.16
-138.17
-133.74
-128.11
-122.04
-115.79
-109.37
-102.95
-96.82
-91.13
-85.89
-81.27
-77.12
-73.22
-69.28
-65.08
-60.52
-55.77
-51.26
-47.57
-45.42
-45.04
-46.09
-47.74
-49.00
-49.14
-47.91
-45.61
-42.79
-40.08
-37.81
-35.95
-34.31
-32.64
-30.91
-29.28
-28.01
-27.32
-27.18
-27.32
-27.35
-26.87
-25.56
-23.25
-19.90
-15.60
-10.62
-5.40
-0.49
3.69
6.98
9.70
12.40
15.67
19.76
24.55
29.68
34.75
39.53
43.92
47.82
51.03
53.30
54.60
55.13
55.38
55.83
56.64
57.58
58.16
57.98
56.96
55.41
53.73
52.19
50.79
49.25
47.20
44.35
40.63
36.18
31.39
26.70
22.60
19.36
16.95
15.04
13.12
10.73
7.63
3.92
-0.10
-4.07
-7.82
-11.39
-14.91
-18.48
-21.98
-25.15
-27.67
-29.50
-30.89
-32.40
-34.58
-37.67
-41.45
-45.40
-48.97
-51.83
-54.10
-56.16
-58.39
-60.88
-63.23
-64.71
-64.44
-61.87
-56.94
-50.17
-42.54
-35.07
-28.62
-23.61
-20.08
-17.86
-16.72
-16.62
-17.60
-19.63
-22.52
-25.88
-29.13
-31.76
-33.49
-34.29
-34.38
-33.99
-33.29
-32.28
-30.95
-29.34
-27.71
-26.38
-25.66
-25.75
-26.59
-28.07
-30.00
-32.31
-34.85
-37.37
-39.45
-40.59
-40.55
-39.43
-37.78
-36.38
-35.98
-37.08
-39.71
-43.39
-47.16
-49.87
-50.40
-48.06
-42.80
-35.29
-26.68
-18.18
-10.73
-4.78
-0.44
2.25
3.12
1.89
-1.71
-7.58
-15.17
-23.56
-31.75
-39.10
-45.49
-51.36
-57.37
-64.00
-71.23
-78.66
-85.72
-92.14
-98.13
-104.35
-111.69
-120.89
-132.27
-145.70
-160.52
-175.70
-189.99
-202.15
-211.40
-217.71
-221.96
-225.59
-229.87
-235.15
-240.51
-244.03
-243.61
-237.85
-226.51
-210.38
-190.71
-168.51
-144.23
-117.85
-89.11
-57.69
-23.25
14.40
54.68
95.64
133.40
162.82
179.07
179.87
166.88
145.52
123.09
106.09
98.03
98.97
106.37
117.02
128.49
139.62
150.13
159.77
167.89
173.71
176.80
177.43
176.64
175.78
175.87
177.07
178.70
179.73
179.58
178.57
177.82
178.58
181.53
186.31
191.80
196.75
200.51
203.82
208.50
216.60
229.50
247.23
268.44
290.83
311.99
330.02
344.45
355.76
364.08
368.34
366.36
355.74
335.21
305.46
268.62
228.52
188.96
151.64
115.66
78.83
38.98
-5.36
-54.69
-109.07
-165.43
-217.85
-259.61
-285.58
-294.38
-289.62
-279.65
-274.66
-283.31
-306.15
-335.54
-359.91
-368.99
-357.55
-326.45
-281.23
-223.14
-164.60
-120.25
-94.87
-82.96
-77.52
-75.64
-77.78
-84.69
-95.41
-108.00
-116.60
-117.64
-110.72
-98.66
-86.23
-77.43
-73.85
-74.37
-76.54
-75.62
-66.23
-48.80
-24.24
5.40
37.77
70.42
100.56
124.83
141.26
149.57
150.85
147.41
141.37
134.21
126.38
117.57
107.15
95.45
83.50
72.16
61.79
51.60
40.48
27.88
14.41
1.68
-8.24
-13.92
-15.38
-13.93
-11.83
-11.14
-12.84
-16.66
-21.39
-25.68
-28.66
-30.27
-31.02
-31.60
-32.35
-32.97
-32.82
-31.33
-28.34
-24.11
-19.39
-15.01
-11.59
-9.21
-7.47
-5.79
-3.84
-1.69
0.54
2.46
3.62
3.79
3.22
2.50
2.27
2.84
4.14
6.77
10.79
15.47
19.76
23.04
25.49
27.85
30.78
34.78
41.89
52.93
66.95
81.83
95.74
107.89
118.17
126.37
132.62
140.17
151.12
165.17
180.05
193.59
204.74
213.39
219.32
223.06
229.27
240.99
257.89
276.84
294.61
309.48
321.29
330.10
309.08
246.43
150.64
44.88
-50.48
-126.46
-182.71
-219.39
-244.27
-261.97
-270.94
-269.96
-260.40
-245.92
-229.20
-211.83
-194.31
-177.40
-160.51
-141.73
-121.59
-102.71
-88.02
-78.70
-74.45
-74.46
-78.83
-87.42
-97.83
-107.21
-113.00
-113.73
-108.85
-99.26
-86.93
-74.76
-65.30
-59.52
-57.57
-58.86
-62.31
-64.27
-60.50
-47.11
-22.54
11.18
48.83
83.14
107.05
116.00
109.33
89.96
63.16
34.67
8.60
-13.00
-30.08
-43.78
-55.51
-66.29
-76.90
-88.19
-98.79
-108.68
-118.09
-126.96
-134.50
-139.09
-138.79
-132.18
-118.87
-99.69
-76.56
-51.37
-25.66
-0.66
22.58
43.09
60.16
73.61
83.92
91.65
97.32
100.97
102.20
100.57
96.19
90.03
83.71
78.86
76.31
75.96
77.03
78.57
79.99
81.20
82.53
84.25
86.17
87.43
86.83
83.23
76.00
65.18
51.49
36.41
21.71
8.77
-1.97
-11.08
-19.79
-29.58
-41.62
-56.71
-74.57
-94.38
-115.11
-135.74
-154.84
-170.27
-179.65
-181.08
-173.95
-158.37
-135.51
-107.59
-77.77
-49.33
-24.75
-5.65
7.29
14.07
16.50
17.44
19.86
26.02
37.56
55.95
81.99
115.49
147.89
168.85
172.28
160.42
140.06
117.14
95.49
76.99
62.42
51.38
43.36
37.13
30.37
19.93
3.33
-18.25
-43.14
-67.62
-87.71
-99.97
-102.81
-97.00
-84.22
-69.26
-56.31
-47.88
-44.28
-44.19
-44.48
-41.17
-30.43
-10.69
16.46
46.47
72.39
87.13
85.91
68.36
38.82
5.04
-25.40
-47.43
-59.17
-61.45
-56.17
-44.98
-28.13
-7.72
14.76
36.38
53.69
64.15
67.09
64.04
57.90
51.36
46.08
42.68
39.96
35.95
29.11
19.35
8.23
-1.60
-8.27
-10.91
-9.79
-7.20
-6.21
-9.61
-18.66
-32.94
-50.78
-71.00
-92.19
-108.71
-113.43
-101.48
-74.33
-38.35
-2.90
29.60
57.93
82.20
104.17
122.62
136.61
145.21
147.90
144.85
137.12
125.75
112.37
98.59
84.69
70.04
53.51
34.61
13.85
-7.55
-28.43
-47.14
-61.53
-69.72
-70.15
-62.42
-47.64
-28.46
-9.10
7.09
19.55
30.30
41.87
55.69
70.94
85.03
94.99
97.21
91.07
79.29
65.59
51.90
37.78
21.29
0.55
-25.23
-58.48
-98.68
-142.01
-183.54
-219.81
-249.40
-272.26
-289.23
-301.79
-315.54
-333.07
-352.07
-367.14
-373.36
-368.07
-351.25
-325.20
-269.04
-182.21
-83.44
4.10
69.07
111.61
135.76
145.45
144.50
137.74
125.44
109.58
94.26
83.34
78.19
78.10
82.06
89.60
99.89
108.45
112.07
110.39
105.60
100.82
99.17
103.10
113.36
128.52
143.43
153.77
158.28
158.64
157.29
155.43
152.02
144.06
128.40
103.06
70.32
36.75
10.36
-3.70
-5.74
-0.90
2.72
-0.41
-10.41
-22.98
-33.90
-42.10
-48.99
-55.41
-59.53
-57.61
-48.21
-32.49
-15.39
-3.55
-1.77
-10.19
-24.32
-37.67
-43.99
-40.46
-31.40
-25.61
-30.06
-45.29
-65.43
-81.98
-88.56
-83.56
-69.77
-51.90
-33.53
-15.55
3.02
22.98
43.40
61.62
74.53
79.91
77.29
68.14
54.88
40.08
25.99
14.36
6.08
0.92
-2.73
-7.01
-13.30
-21.10
-28.27
-32.19
-31.33
-26.59
-20.22
-15.11
-13.14
-14.21
-16.69
-18.45
-18.06
-15.22
-10.73
-5.81
-1.74
0.66
1.19
0.35
-0.91
-1.60
-1.27
-0.11
1.15
1.79
1.58
1.00
0.99
2.27
4.94
8.28
11.12
12.48
11.98
10.01
7.41
5.12
3.76
3.54
4.26
5.57
6.75
6.97
6.00
4.25
2.44
1.00
-0.12
-1.13
-2.01
-2.21
-0.98
1.99
6.06
9.73
11.35
10.20
7.63
5.50
5.79
9.53
16.10
23.45
29.00
30.61
27.76
21.86
15.50
11.22
10.48
13.26
18.38
23.65
27.08
27.44
24.46
18.40
9.61
-1.31
-13.19
-23.65
-28.59
-25.94
-18.35
-11.54
-10.68
-17.69
-30.21
-43.43
-52.84
-56.52
-56.10
-54.82
-54.68
-54.87
-52.48
-43.80
-27.19
-4.91
19.20
39.83
52.56
55.24
48.03
32.37
11.37
-11.09
-30.93
-44.53
-50.01
-47.56
-39.23
-25.99
-12.49
-1.24
8.35
18.19
29.09
39.50
46.51
47.92
43.66
35.66
27.42
21.73
19.29
18.89
18.45
16.46
12.79
8.46
4.61
2.23
1.32
0.84
-0.58
-3.85
-8.97
-14.91
-20.21
-23.70
-24.72
-23.57
-21.44
-19.85
-19.59
-20.64
-22.15
-22.94
-22.14
-19.41
-15.11
-10.16
-5.60
-2.09
0.07
1.06
1.32
1.27
1.28
1.52
1.95
2.31
2.47
2.21
1.41
0.13
-1.35
-2.59
-3.12
-2.55
-0.85
1.90
5.25
8.61
11.53
13.70
15.01
15.52
15.48
14.08
11.45
8.00
4.37
1.16
-1.23
-2.65
-3.22
-3.11
-2.51
-1.38
0.05
1.28
1.56
0.09
-3.61
-9.47
-16.85
-24.62
-31.43
-36.30
-38.85
-39.34
-38.44
-36.91
-35.29
-33.75
-32.17
-30.24
-27.84
-25.13
-22.55
-20.51
-19.24
-18.63
-18.32
-17.96
-17.23
-16.06
-14.41
-12.19
-9.19
-5.15
0.07
6.29
13.01
19.53
25.15
29.35
31.88
32.75
32.21
30.63
28.47
26.13
23.89
21.81
19.82
17.85
15.98
14.47
13.71
13.92
15.11
16.97
19.06
20.92
22.31
23.19
23.72
24.12
24.60
25.30
26.27
27.50
28.84
30.07
30.91
31.12
30.53
29.13
27.05
24.47
21.55
18.38
14.91
11.08
6.89
2.46
-1.90
-5.78
-8.83
-10.82
-11.73
-11.72
-11.00
-9.85
-8.52
-7.26
-6.31
-5.82
-5.75
-5.94
-6.12
-6.10
-5.91
-5.72
-5.75
-6.10
-6.60
-6.96
-6.84
-6.08
-4.68
-2.80
-0.64
1.68
4.06
6.32
8.24
9.57
10.12
9.92
9.13
8.04
6.94
6.01
5.28
4.73
4.23
3.66
2.92
1.93
0.73
-0.59
-1.86
-2.91
-3.63
-4.02
-4.14
-4.11
-4.03
-3.94
-3.86
-3.79
-3.67
-3.38
-2.76
-1.66
-0.05
1.94
4.05
6.03
7.77
9.41
11.19
13.30
15.67
17.98
19.75
20.60
20.48
19.51
17.73
14.87
10.46
4.27
-3.35
-11.31
-18.16
-22.73
-24.79
-25.15
-25.33
-26.63
-29.32
-32.49
-34.50
-33.92
-30.31
-24.53
-18.51
-14.45
-14.01
-17.83
-25.47
-35.67
-46.59
-55.82
-60.67
-58.91
-49.59
-33.47
-12.96
8.33
26.63
39.25
45.55
47.01
46.00
44.59
44.35
46.62
52.48
62.62
77.32
96.57
119.99
146.03
171.70
193.81
210.15
219.27
219.89
210.86
191.82
163.92
129.07
89.20
46.60
3.64
-38.53
-80.71
-125.03
-173.07
-218.89
-250.59
-259.43
-247.07
-222.29
-193.55
-165.56
-140.01
-117.12
-99.84
-89.36
-88.68
-99.35
-118.82
-140.17
-154.15
-153.06
-133.61
-93.68
-40.01
15.28
60.04
86.77
94.44
87.76
73.31
57.03
42.65
31.61
22.89
17.16
15.59
19.13
28.77
43.82
64.01
86.07
106.05
121.39
131.10
136.17
133.46
123.03
105.87
84.18
61.40
38.63
21.10
11.90
8.74
5.76
-1.89
-16.68
-37.99
-63.28
-89.38
-112.78
-130.64
-140.14
-138.12
-121.65
-91.21
-52.26
-14.77
10.39
16.42
3.33
-21.28
-45.31
-57.12
-51.33
-30.34
-2.32
23.33
40.98
48.51
47.15
40.05
30.79
21.91
14.80
9.92
7.17
5.88
5.13
4.30
3.48
3.17
3.41
3.59
3.02
1.21
-1.06
-2.33
-1.17
2.77
8.48
13.79
16.49
15.39
10.73
4.04
-2.85
-8.60
-12.92
-16.50
-20.44
-25.43
-31.26
-36.84
-40.65
-41.49
-38.92
-33.37
-26.14
-19.14
-14.20
-12.62
-14.69
-19.80
-26.81
-34.48
-41.95
-48.84
-55.25
-61.54
-68.00
-74.41
-80.32
-85.18
-88.43
-89.52
-87.65
-82.08
-72.33
-58.41
-40.40
-19.19
3.53
25.63
45.04
60.80
72.62
80.61
85.09
87.52
89.07
90.11
90.46
89.57
88.17
86.95
85.98
84.93
84.88
86.34
88.63
90.21
89.05
85.66
81.38
77.74
76.44
81.09
93.86
114.03
138.23
161.24
180.42
194.14
201.46
188.47
150.25
94.18
35.28
-7.48
-36.65
-57.27
-73.11
-87.61
-100.99
-110.01
-111.92
-106.63
-96.73
-86.69
-78.21
-71.95
-68.08
-66.30
-64.71
-62.08
-58.75
-55.82
-54.48
-53.28
-50.59
-46.05
-40.57
-34.92
-30.10
-27.27
-27.23
-30.49
-35.87
-42.30
-49.23
-56.15
-61.71
-63.02
-58.12
-47.45
-34.05
-21.03
-10.68
-3.87
-0.19
1.32
1.72
1.84
2.49
4.00
7.41
13.59
22.53
32.83
41.86
46.46
44.11
34.32
19.06
2.39
-11.28
-18.91
-20.05
-16.60
-11.73
-8.03
-6.33
-5.75
-4.53
-1.45
3.48
8.98
13.48
15.92
16.41
16.03
15.84
16.49
17.93
19.98
22.52
26.10
31.62
38.24
44.61
48.82
49.12
44.21
33.83
18.70
2.17
-13.92
-27.65
-37.60
-43.76
-47.47
-51.15
-56.30
-63.39
-71.53
-78.05
-79.25
-72.64
-58.65
-40.20
-22.22
-6.35
6.88
17.82
27.05
35.02
41.66
45.21
44.65
39.88
32.10
22.91
14.15
7.22
2.81
0.74
0.31
1.07
2.87
5.99
10.41
15.75
21.14
25.33
26.95
24.91
19.08
10.18
-0.27
-10.66
-19.61
-26.34
-30.84
-33.79
-36.19
-38.79
-41.88
-45.10
-47.68
-48.52
-46.55
-41.06
-32.00
-20.04
-6.36
7.66
20.75
31.96
40.74
46.90
50.41
51.34
49.83
46.23
41.19
35.61
30.41
26.28
23.42
21.53
20.01
18.23
15.89
13.04
10.10
7.59
5.90
5.12
4.93
4.82
4.17
2.53
-0.32
-4.29
-9.06
-14.19
-19.28
-24.00
-28.16
-31.72
-34.80
-37.70
-40.69
-43.89
-47.08
-49.78
-51.42
-51.61
-50.34
-47.90
-44.74
-41.13
-37.18
-32.83
-28.06
-22.98
-17.72
-12.34
-6.74
-0.72
5.80
12.58
19.19
25.18
30.36
34.93
39.34
44.03
49.23
54.89
60.76
66.49
71.61
75.50
77.58
77.52
75.44
72.01
68.08
64.25
60.41
55.80
49.42
40.64
29.57
17.15
4.75
-6.24
-14.67
-19.77
-21.19
-19.00
-13.83
-6.80
0.72
7.55
12.95
16.77
19.15
20.20
19.79
17.59
13.40
7.32
-0.12
-8.29
-16.65
-24.89
-32.87
-40.43
-47.23
-52.79
-56.67
-58.67
-58.85
-57.45
-54.74
-50.91
-46.17
-40.81
-35.36
-30.46
-26.68
-24.36
-23.49
-23.82
-25.10
-27.19
-30.13
-33.97
-38.61
-43.60
-48.19
-51.53
-52.91
-52.05
-49.22
-45.14
-40.80
-37.22
-35.15
-34.86
-36.08
-38.08
-39.99
-41.13
-41.26
-40.51
-39.22
-37.55
-35.34
-32.19
-27.64
-21.54
-14.15
-6.05
2.10
9.83
16.92
23.35
29.12
34.14
38.29
41.47
43.77
45.52
47.13
48.99
51.25
53.84
56.52
59.05
61.31
63.29
65.01
66.48
67.70
68.66
69.35
69.75
69.83
69.51
68.67
67.26
65.34
63.06
60.61
58.08
55.39
52.31
48.56
43.90
38.23
31.60
24.07
15.71
6.58
-3.29
-13.66
-24.11
-33.97
-42.50
-49.21
-54.01
-57.21
-59.41
-61.14
-62.65
-63.76
-64.08
-63.23
-61.17
-58.21
-54.94
-51.89
-49.33
-47.15
-44.98
-42.42
-39.28
-35.61
-31.62
-27.49
-23.22
-18.59
-13.30
-7.21
-0.51
6.28
12.50
17.60
21.29
23.61
24.83
25.25
25.18
24.83
24.39
24.07
24.01
24.31
24.92
25.75
26.68
27.72
28.97
30.62
32.75
35.17
37.27
38.12
36.73
32.36
24.89
14.98
3.94
-6.57
-15.07
-20.60
-22.94
-22.48
-19.98
-16.26
-12.01
-7.73
-3.76
-0.37
2.18
3.67
3.92
2.89
0.71
-2.36
-5.93
-9.62
-13.04
-15.91
-18.05
-19.41
-20.10
-20.32
-20.34
-20.43
-20.82
-21.56
-22.54
-23.43
-23.87
-23.57
-22.52
-21.06
-19.79
-19.38
-20.25
-22.40
-25.34
-28.30
-30.49
-31.36
-30.62
-28.20
-24.16
-18.72
-12.31
-5.60
0.49
5.16
7.95
8.95
8.73
8.03
7.51
7.49
7.98
8.75
9.52
10.07
10.24
9.93
9.06
7.63
5.79
3.86
2.25
1.31
1.22
1.91
3.18
4.70
6.24
7.61
8.70
9.46
9.91
10.18
10.50
11.19
12.48
14.43
16.93
19.73
22.66
25.63
28.64
31.56
34.13
35.93
36.60
35.97
34.13
31.39
28.04
24.27
20.12
15.59
10.83
6.19
2.20
-0.64
-2.06
-2.14
-1.30
-0.08
1.04
1.84
2.35
2.73
3.13
3.54
3.86
3.96
3.81
3.55
3.35
3.34
3.53
3.79
3.93
3.83
3.53
3.17
2.95
2.97
3.21
3.55
3.85
4.03
4.11
4.20
4.39
4.67
4.94
5.04
4.84
4.32
3.55
2.67
1.81
1.05
0.37
-0.25
-0.86
-1.43
-1.93
-2.29
-2.46
-2.42
-2.20
-1.90
-1.62
-1.45
-1.43
-1.57
-1.82
-2.09
-2.32
-2.49
-2.62
-2.76
-2.95
-3.21
-3.56
-3.98
-4.43
-4.89
-5.29
-5.58
-5.74
-5.84
-6.00
-6.33
-6.91
-7.66
-8.39
-8.90
-9.06
-8.88
-8.54
-8.22
-8.03
-7.97
-7.91
-7.70
-7.27
-6.61
-5.77
-4.87
-4.02
-3.34
-2.91
-2.76
-2.86
-3.10
-3.34
-3.45
-3.40
-3.29
-3.41
-4.13
-5.80
-8.59
-12.38
-16.78
-21.20
-25.09
-28.05
-29.95
-30.86
-30.98
-30.54
-29.75
-28.70
-27.33
-25.52
-23.10
-19.95
-16.08
-11.57
-6.53
-1.11
4.54
10.31
15.99
21.26
25.75
29.07
30.98
31.44
30.62
28.88
26.80
24.91
23.51
22.69
22.31
22.23
22.38
22.88
23.94
26.06
29.45
33.92
39.06
44.35
49.41
53.99
57.85
60.53
61.99
62.13
60.92
58.86
56.69
55.24
54.90
55.33
55.13
53.43
49.69
43.94
37.20
30.53
24.87
20.80
18.54
13.78
5.19
-5.87
-16.84
-25.46
-31.44
-35.40
-37.98
-39.70
-41.96
-45.70
-52.41
-63.45
-78.67
-97.40
-117.72
-136.92
-148.14
-147.77
-135.44
-114.10
-90.98
-66.75
-41.18
-14.09
13.91
41.25
65.32
83.40
93.78
93.66
83.54
66.16
46.00
27.11
12.34
0.14
-10.67
-20.30
-28.43
-33.04
-33.63
-30.96
-26.72
-22.76
-20.88
-21.48
-23.90
-26.94
-28.91
-29.16
-27.91
-25.84
-23.61
-21.78
-20.26
-18.70
-16.77
-14.02
-10.51
-6.52
-2.50
1.19
4.15
6.30
7.75
8.66
9.35
9.90
10.22
10.21
9.86
9.19
8.41
7.77
7.35
7.04
6.57
5.64
4.17
2.34
0.27
-1.90
-3.98
-5.95
-7.94
-10.08
-12.43
-14.78
-16.77
-18.42
-19.90
-21.27
-22.68
-24.30
-26.16
-28.09
-29.54
-29.73
-28.41
-25.53
-21.03
-15.07
-8.06
-0.55
5.70
8.63
9.39
9.29
8.26
6.87
5.82
5.60
6.29
7.48
8.72
9.66
9.79
9.15
8.68
9.66
13.14
19.45
27.98
37.69
47.35
55.66
61.97
66.49
69.73
71.74
72.06
69.76
64.35
55.93
44.99
32.57
20.11
9.00
0.08
-6.28
-10.17
-11.46
-10.16
-6.77
-2.30
1.82
4.04
2.99
-1.72
-11.02
-23.18
-34.38
-40.94
-41.44
-36.94
-29.51
-20.91
-11.77
-2.44
7.07
16.48
25.41
33.78
40.52
45.61
47.28
44.67
37.62
27.09
14.50
1.26
-11.43
-22.59
-31.61
-38.55
-43.13
-45.23
-44.84
-42.24
-38.06
-33.23
-28.20
-23.77
-20.74
-19.32
-19.30
-19.92
-20.28
-19.73
-18.21
-16.16
-14.31
-13.25
-13.04
-13.48
-14.08
-14.39
-14.14
-13.26
-11.80
-9.90
-7.65
-5.06
-2.19
0.89
4.17
7.60
11.15
14.73
18.18
21.28
23.81
24.92
24.16
21.93
19.26
17.10
15.64
14.44
12.86
10.60
7.67
4.42
1.14
-2.06
-5.14
-7.90
-9.89
-10.63
-9.97
-8.33
-6.52
-5.53
-6.14
-8.71
-12.87
-17.65
-21.80
-23.92
-23.01
-18.78
-11.66
-2.65
7.22
17.20
26.57
34.84
41.34
45.08
45.09
41.02
33.65
24.68
16.12
9.38
4.85
1.98
-0.19
-2.49
-5.17
-7.90
-10.15
-11.54
-12.07
-11.99
-11.64
-10.82
-9.26
-6.76
-3.35
0.69
4.83
8.54
11.51
13.93
16.41
19.44
23.21
27.60
32.24
36.50
39.98
42.43
44.22
46.23
49.02
52.76
57.20
61.74
65.43
67.51
67.31
64.90
61.02
56.44
52.26
49.86
50.70
55.28
64.70
76.16
84.30
85.66
77.81
59.78
31.97
-2.12
-38.56
-73.64
-105.50
-133.94
-160.17
-186.55
-215.66
-249.67
-289.67
-334.99
-381.55
-422.34
-448.39
-451.48
-427.63
-378.55
-311.40
-236.26
-162.67
-95.62
-35.52
20.32
74.53
127.31
175.97
215.94
242.73
253.81
250.81
238.35
222.35
208.01
198.42
194.74
196.45
202.11
203.58
194.58
173.45
144.25
112.67
82.20
53.92
27.86
4.19
-16.44
-32.19
-42.00
-46.03
-46.11
-44.87
-44.45
-45.81
-48.73
-52.24
-54.43
-53.77
-49.89
-43.54
-36.57
-30.63
-26.56
-24.25
-22.93
-21.03
-17.16
-10.69
-2.06
7.53
16.84
24.96
31.37
35.84
38.46
39.28
38.13
34.62
28.41
19.63
8.92
-2.69
-14.07
-24.17
-32.27
-38.09
-41.70
-43.41
-43.42
-41.83
-38.65
-33.94
-28.00
-21.36
-14.72
-8.75
-3.87
-0.09
2.84
5.28
7.51
9.64
11.63
13.44
15.13
16.82
18.70
20.90
23.42
26.14
28.85
31.27
33.14
34.27
34.55
33.97
32.52
30.20
26.90
22.58
17.31
11.43
5.46
-0.03
-4.69
-8.50
-11.69
-14.52
-17.05
-19.07
-20.31
-20.61
-20.10
-19.10
-17.96
-16.87
-15.79
-14.54
-12.98
-11.19
-9.44
-8.12
-7.59
-8.04
-9.48
-11.75
-14.48
-17.27
-19.80
-21.93
-23.66
-25.04
-26.16
-27.10
-27.89
-28.27
-27.94
-26.76
-24.66
-21.64
-17.67
-12.70
-6.77
-0.02
7.84
16.92
27.04
37.64
48.05
57.76
66.55
74.32
81.00
87.28
93.54
99.60
104.74
108.19
109.56
108.86
106.21
101.71
96.52
91.69
87.88
85.28
83.96
84.05
85.69
88.81
86.08
72.95
49.30
19.93
-8.85
-32.60
-49.86
-61.23
-68.38
-73.30
-76.43
-77.68
-77.12
-75.54
-74.25
-74.60
-77.18
-81.40
-85.96
-88.56
-87.75
-83.59
-77.87
-71.73
-65.65
-59.07
-51.01
-41.16
-29.75
-17.83
-6.72
2.67
10.26
16.37
20.63
23.17
23.53
21.24
16.14
8.90
0.87
-6.17
-11.49
-14.79
-16.22
-16.43
-16.12
-15.74
-15.26
-14.20
-12.12
-9.05
-5.40
-1.84
0.77
1.92
1.62
0.72
0.63
2.52
7.04
14.32
24.15
35.82
48.24
58.49
63.21
60.41
50.40
35.58
19.10
3.59
-9.40
-19.41
-26.76
-32.63
-37.10
-40.20
-42.04
-42.99
-43.63
-44.56
-46.15
-48.37
-50.64
-50.57
-46.89
-39.41
-29.03
-17.41
-6.34
2.92
9.85
14.61
17.76
19.36
19.18
16.94
12.64
6.77
0.19
-6.19
-11.62
-15.63
-18.21
-19.46
-19.35
-17.76
-14.54
-9.69
-3.46
3.58
10.72
17.03
21.79
24.62
25.40
24.23
21.33
17.07
11.89
6.35
1.05
-3.30
-6.02
-6.71
-5.28
-1.95
2.83
8.43
14.21
19.76
25.09
30.63
36.61
42.88
48.67
52.75
53.76
50.79
43.78
33.61
21.75
9.31
-3.12
-15.41
-27.60
-39.49
-50.54
-59.85
-66.54
-68.33
-63.83
-53.30
-38.59
-22.05
-5.68
8.82
19.80
25.89
26.59
22.53
15.66
8.61
3.59
1.46
1.58
2.53
3.27
3.73
4.44
5.96
8.54
11.58
14.31
16.17
17.07
17.34
17.34
16.98
15.79
13.29
9.32
4.27
-1.01
-5.62
-8.82
-10.27
-10.19
-9.10
-7.64
-6.29
-5.29
-4.51
-3.80
-3.01
-2.11
-1.19
-0.38
0.24
0.68
0.99
1.20
1.24
1.08
0.75
0.38
0.26
0.67
1.76
3.53
5.79
8.28
10.81
13.38
16.00
18.72
21.45
23.98
26.01
27.33
27.85
27.66
26.94
25.80
24.22
22.12
19.41
16.08
12.26
8.17
4.08
0.20
-3.55
-7.35
-11.30
-15.33
-19.26
-22.84
-25.92
-28.46
-30.58
-32.79
-35.38
-38.26
-40.87
-42.51
-42.70
-41.37
-38.79
-35.56
-32.78
-31.34
-31.37
-32.37
-33.64
-34.64
-35.33
-35.83
-36.50
-38.24
-41.53
-45.81
-49.69
-51.63
-50.51
-45.92
-37.81
-23.87
-4.48
16.92
35.60
48.12
53.70
54.38
53.04
