1699541687.00
64.000000
-0.00
-0.00
-0.00
-0.00
-0.00
-0.00
-0.00
-0.00
-0.00
-0.00
0.00
0.01
0.01
-0.00
-0.03
-0.05
-0.05
0.00
0.13
0.36
0.66
1.01
1.37
1.72
2.06
2.40
2.79
3.24
3.80
4.42
5.06
5.66
6.20
6.68
7.15
7.68
8.31
9.14
10.09
11.04
11.88
12.56
13.14
13.76
14.65
15.96
17.91
20.32
22.90
25.38
27.58
29.57
31.68
34.32
37.81
42.54
48.15
54.10
59.83
64.97
69.58
74.14
79.34
85.71
93.76
103.00
112.62
121.73
129.77
136.75
143.30
150.75
157.77
166.64
177.95
191.79
206.97
220.57
228.25
225.36
208.53
176.87
132.76
80.05
23.07
-34.95
-92.44
-149.15
-205.21
-260.33
-313.70
-363.85
-409.88
-451.05
-486.77
-516.11
-537.68
-549.71
-550.44
-538.83
-514.67
-479.20
-434.51
-383.21
-327.90
-270.80
-213.61
-157.60
-103.85
-53.29
-6.95
34.30
69.84
99.50
123.50
142.38
156.80
167.34
174.47
178.48
179.64
178.31
174.98
170.23
164.55
158.24
151.39
143.88
135.63
126.70
117.37
108.13
99.48
91.67
84.61
77.87
70.90
63.27
54.95
46.36
38.17
31.01
25.21
20.61
16.71
12.86
8.47
3.12
-3.43
-11.04
-18.88
-25.29
-28.00
-24.95
-15.35
-0.36
17.01
32.99
44.50
50.33
51.29
49.42
46.88
44.96
43.94
43.45
43.01
42.42
41.71
40.82
39.55
37.56
34.62
30.73
26.19
21.63
17.73
15.00
13.58
13.12
12.92
12.26
10.82
8.91
7.24
6.65
7.53
9.69
12.35
14.51
15.23
13.92
10.30
4.44
-3.24
-11.95
-20.56
-27.79
-32.64
-34.72
-34.39
-32.62
-30.58
-29.12
-28.56
-28.56
-28.41
-27.42
-25.26
-22.10
-18.56
-15.41
-13.19
-12.15
-12.17
-12.98
-14.15
-14.99
-14.56
-11.66
-5.28
4.76
17.36
30.07
39.83
44.10
41.94
34.39
23.86
12.95
3.42
-4.18
-9.96
-13.80
-14.78
-11.42
-2.71
10.84
26.89
41.96
52.85
57.85
57.07
51.91
44.06
34.74
24.64
14.28
3.97
-5.66
-13.99
-20.66
-25.55
-28.55
-29.40
-27.77
-23.63
-17.60
-10.94
-5.26
-1.81
-1.00
-2.36
-4.90
-7.65
-10.12
-12.35
-14.60
-16.92
-18.94
-20.02
-19.69
-18.02
-15.74
-13.99
-13.66
-14.91
-16.90
-18.39
-18.28
-16.37
-13.37
-10.48
-8.77
-8.79
-10.38
-12.79
-15.07
-15.90
-14.03
-8.32
1.97
17.12
36.77
59.12
81.79
101.57
115.02
118.75
110.78
91.66
64.67
34.74
6.55
-16.72
-34.12
-45.88
-52.08
-52.57
-47.67
-39.01
-29.74
-23.58
-22.65
-27.35
-35.36
-43.06
-47.43
-47.35
-43.73
-38.35
-32.96
-28.91
-26.01
-23.80
-21.83
-19.69
-17.03
-13.72
-9.58
-4.57
1.15
7.36
13.55
18.96
22.86
24.79
24.77
23.49
21.94
21.01
21.04
21.47
21.08
18.77
14.24
8.27
2.52
-1.31
-2.21
-0.29
3.96
9.17
14.02
17.65
19.79
20.56
20.09
18.48
15.90
12.70
9.33
6.32
3.87
1.89
0.05
-1.91
-3.87
-5.34
-5.66
-4.46
-1.76
1.96
6.00
9.71
12.67
14.80
16.23
17.11
17.45
17.12
15.81
13.22
9.14
3.54
-3.31
-10.98
-18.90
-26.64
-33.94
-40.81
-47.42
-53.96
-60.42
-66.41
-71.25
-74.23
-74.96
-73.60
-70.87
-67.73
-64.90
-62.54
-60.10
-56.69
-51.44
-44.00
-34.65
-24.16
-13.50
-3.53
5.13
12.12
17.25
20.51
22.02
22.04
20.96
19.26
17.46
15.99
15.11
14.75
14.51
13.81
12.12
9.29
5.65
1.91
-1.16
-3.13
-4.09
-4.59
-5.36
-6.92
-9.45
-12.76
-16.55
-20.46
-24.15
-27.17
-28.93
-28.72
-25.94
-20.39
-12.34
-2.56
7.94
18.14
27.21
34.59
40.00
43.34
44.73
44.48
43.01
40.80
38.21
35.42
32.41
29.07
25.34
21.28
17.11
13.11
9.55
6.60
4.36
2.82
1.95
1.72
1.99
2.52
2.88
2.54
1.03
-1.93
-6.25
-11.36
-16.34
-20.15
-21.99
-21.50
-18.89
-14.78
-9.90
-4.94
-0.33
3.67
6.78
8.73
9.27
8.36
6.34
3.94
1.97
1.02
1.15
1.98
2.92
3.53
3.76
3.87
4.09
4.38
4.35
3.51
1.62
-1.05
-3.91
-6.30
-7.99
-9.21
-10.55
-12.47
-14.99
-17.57
-19.37
-19.64
-18.05
-14.78
-10.29
-5.10
0.45
6.20
12.01
17.62
22.58
26.39
28.69
29.45
29.00
27.88
26.61
25.52
24.68
23.96
23.19
22.24
21.06
19.68
18.11
16.36
14.41
12.31
10.12
7.93
5.78
3.65
1.41
-1.12
-4.07
-7.44
-10.92
-13.94
-15.75
-15.68
-13.30
-8.69
-2.36
4.86
12.11
18.69
24.18
28.44
31.50
33.49
34.54
34.71
34.02
32.43
29.98
26.82
23.25
19.68
16.50
13.91
11.94
10.39
9.06
7.79
6.58
5.50
4.62
3.87
3.01
1.67
-0.53
-3.78
-7.97
-12.54
-16.54
-18.88
-18.63
-15.40
-9.49
-1.85
6.30
13.84
20.14
25.06
28.81
31.61
33.45
34.09
33.27
30.92
27.40
23.42
19.81
17.27
16.27
16.99
19.40
23.26
27.94
32.26
34.55
33.09
26.83
15.98
2.18
-11.97
-23.85
-31.78
-35.52
-36.08
-34.97
-33.44
-31.99
-30.40
-28.11
-24.65
-19.87
-13.93
-7.19
-0.06
6.97
13.27
18.16
20.97
21.26
18.97
14.48
8.50
1.98
-4.09
-8.77
-11.55
-12.51
-12.42
-12.52
-14.00
-17.43
-22.43
-27.79
-32.06
-34.22
-34.07
-32.22
-29.65
-27.22
-25.31
-23.87
-22.64
-21.30
-19.64
-17.50
-14.74
-11.29
-7.15
-2.55
2.12
6.33
9.63
11.70
12.50
12.24
11.23
9.71
7.75
5.22
1.98
-1.95
-6.15
-10.00
-12.87
-14.47
-15.00
-15.02
-15.16
-15.71
-16.54
-17.19
-17.24
-16.62
-15.67
-14.97
-15.04
-16.02
-17.59
-19.11
-19.81
-19.09
-16.65
-12.54
-7.10
-0.81
5.84
12.41
18.54
23.94
28.31
31.44
33.20
33.64
33.01
31.72
30.21
28.86
27.95
27.58
27.61
27.79
27.78
27.33
26.41
25.18
23.89
22.64
21.30
19.56
17.11
13.84
9.82
5.22
0.14
-5.50
-11.76
-18.50
-25.18
-31.05
-35.40
-37.97
-39.05
-39.34
-39.54
-40.07
-40.94
-41.85
-42.44
-42.46
-41.77
-40.39
-38.35
-35.68
-32.48
-28.87
-24.98
-20.92
-16.73
-12.46
-8.15
-3.93
-0.03
3.36
6.13
8.28
9.87
11.01
11.70
11.95
11.76
11.21
10.45
9.74
9.39
9.64
10.74
12.83
15.94
19.97
24.65
29.53
34.08
37.77
40.17
41.14
40.72
39.16
36.83
34.05
31.15
28.37
25.95
24.01
22.52
21.24
19.76
17.64
14.62
10.68
6.03
0.94
-4.40
-9.86
-15.39
-20.85
-26.08
-30.93
-35.45
-39.85
-44.37
-48.95
-53.11
-55.94
-56.46
-54.02
-48.64
-41.04
-32.41
-23.95
-16.53
-10.59
-6.18
-3.18
-1.48
-0.99
-1.58
-3.02
-4.91
-6.81
-8.25
-8.97
-8.87
-8.05
-6.75
-5.25
-3.85
-2.80
-2.29
-2.39
-2.98
-3.82
-4.62
-5.23
-5.66
-6.12
-6.86
-8.02
-9.47
-10.81
-11.46
-10.93
-9.01
-5.84
-1.80
2.63
7.06
11.27
15.14
18.57
21.28
22.86
22.89
21.13
17.75
13.38
8.95
5.40
3.31
2.79
3.46
4.74
6.07
7.06
7.52
7.34
6.45
4.78
2.34
-0.69
-3.98
-7.12
-9.74
-11.48
-12.07
-11.30
-9.15
-5.81
-1.79
2.23
5.57
7.82
8.97
9.27
9.12
8.74
8.18
7.30
5.99
4.36
2.69
1.39
0.76
0.95
1.81
3.05
4.33
5.39
6.14
6.64
7.09
7.74
8.80
10.37
12.40
14.67
16.87
18.69
19.90
20.41
20.20
19.38
18.11
16.72
15.59
15.10
15.43
16.45
17.74
18.74
18.96
18.22
16.61
14.44
11.97
9.30
6.43
3.38
0.34
-2.37
-4.47
-6.01
-7.35
-9.07
-11.60
-14.95
-18.65
-21.99
-24.41
-25.71
-26.14
-26.11
-25.98
-25.88
-25.74
-25.51
-25.29
-25.26
-25.60
-26.30
-27.00
-27.10
-25.91
-22.94
-18.12
-11.95
-5.30
0.78
5.51
8.56
10.13
10.64
10.54
10.07
9.28
8.17
6.84
5.49
4.37
3.57
2.95
2.20
0.99
-0.77
-2.88
-4.90
-6.39
-7.17
-7.41
-7.60
-8.24
-9.67
-11.84
-14.35
-16.64
-18.14
-18.41
-17.25
-14.65
-10.83
-6.17
-1.21
3.49
7.44
10.37
12.34
13.58
14.44
15.19
15.87
16.30
16.19
15.35
13.82
11.92
10.13
8.84
8.17
7.92
7.70
7.16
6.22
4.99
3.77
2.78
2.17
1.88
1.71
1.39
0.65
-0.63
-2.33
-4.06
-5.27
-5.37
-4.08
-1.47
2.01
5.76
9.26
12.19
14.41
15.87
16.50
16.32
15.42
14.11
12.88
12.20
12.41
13.64
15.74
18.36
21.03
23.19
24.39
24.38
23.21
21.20
18.79
16.28
13.77
11.09
7.99
4.31
-0.04
-4.99
-10.40
-15.99
-21.34
-25.89
-29.12
-30.70
-30.59
-29.11
-26.70
-23.80
-20.67
-17.49
-14.43
-11.69
-9.48
-7.81
-6.44
-4.81
-2.21
1.89
7.58
14.30
20.87
25.79
27.82
26.43
22.02
15.80
9.30
3.71
-0.44
-3.36
-5.71
-8.15
-11.02
-14.31
-17.80
-21.29
-24.69
-27.97
-31.02
-33.52
-34.98
-34.88
-32.95
-29.30
-24.44
-19.13
-14.14
-10.02
-6.93
-4.65
-2.82
-1.13
0.48
1.88
2.86
3.40
3.69
4.16
5.26
7.23
10.04
13.35
16.72
19.74
22.13
23.70
24.32
23.80
22.01
18.94
14.86
10.34
6.15
3.06
1.57
1.69
3.05
4.98
6.84
8.21
8.93
9.11
9.01
8.84
8.73
8.57
8.09
6.88
4.64
1.34
-2.63
-6.55
-9.68
-11.60
-12.36
-12.49
-12.70
-13.58
-15.36
-17.87
-20.67
-23.29
-25.40
-26.87
-27.76
-28.22
-28.44
-28.54
-28.57
-28.50
-28.22
-27.56
-26.29
-24.17
-20.97
-16.55
-10.90
-4.19
3.20
10.74
17.74
23.52
27.47
29.29
29.10
27.46
25.23
23.33
22.45
22.88
24.46
26.73
29.12
31.21
32.73
33.59
33.75
33.18
31.90
29.97
27.62
25.15
22.87
20.94
19.28
17.67
15.76
13.37
10.55
7.64
5.21
3.85
4.03
5.87
9.12
13.14
17.11
20.20
21.76
21.53
19.58
16.28
12.14
7.68
3.28
-0.79
-4.40
-7.45
-9.86
-11.58
-12.68
-13.37
-13.96
-14.82
-16.10
-17.74
-19.44
-20.82
-21.63
-21.95
-22.16
-22.82
-24.40
-27.05
-30.45
-33.90
-36.49
-37.39
-36.12
-32.64
-27.35
-20.89
-14.03
-7.51
-1.95
2.15
4.49
5.07
4.19
2.45
0.55
-0.92
-1.66
-1.71
-1.41
-1.19
-1.39
-2.16
-3.41
-4.85
-6.19
-7.29
-8.28
-9.57
-11.75
-15.35
-20.70
-27.73
-36.00
-44.67
-52.67
-58.76
-61.77
-60.90
-55.92
-47.43
-36.66
-25.17
-14.38
-5.09
2.59
9.10
14.94
20.36
25.17
28.88
31.06
31.65
31.05
29.88
28.74
27.85
27.06
26.00
24.44
22.41
20.29
18.56
17.58
17.39
17.69
18.00
17.82
16.80
14.81
11.92
8.41
4.68
1.33
-1.02
-1.77
-0.53
2.67
7.39
12.84
18.10
22.35
25.09
26.16
25.65
23.77
20.72
16.69
11.80
6.18
-0.07
-6.73
-13.44
-19.71
-24.96
-28.65
-30.45
-30.30
-28.48
-25.56
-22.23
-19.21
-17.03
-16.01
-16.14
-17.19
-18.77
-20.53
-22.24
-23.83
-25.25
-26.29
-26.51
-25.26
-21.95
-16.27
-8.35
1.13
11.17
20.63
28.51
34.15
37.30
38.04
36.75
33.93
30.17
26.04
22.07
18.64
15.95
13.97
12.46
11.11
9.61
7.80
5.73
3.60
1.62
-0.06
-1.46
-2.78
-4.28
-6.23
-8.85
-12.20
-16.09
-20.04
-23.24
-24.79
-23.86
-20.08
-13.71
-5.62
2.99
10.95
17.47
22.22
25.26
26.83
27.15
26.30
24.39
21.59
18.31
15.09
12.39
10.46
9.15
8.09
6.93
5.52
4.01
2.66
1.58
0.66
-0.43
-2.00
-4.14
-6.62
-9.15
-11.57
-13.98
-16.60
-19.45
-22.14
-23.93
-24.03
-21.94
-17.72
-11.91
-5.30
1.28
7.12
11.64
14.45
15.33
14.42
12.19
9.37
6.71
4.73
3.53
2.89
2.44
1.90
1.19
0.41
-0.25
-0.64
-0.75
-0.68
-0.60
-0.67
-0.99
-1.52
-2.21
-2.97
-3.80
-4.81
-6.22
-8.23
-10.85
-13.82
-16.52
-18.15
-17.91
-15.27
-10.17
-3.01
5.39
14.07
22.03
28.53
33.13
35.77
36.69
36.29
34.98
33.03
30.60
27.77
24.66
21.52
18.61
16.07
13.87
11.81
9.64
7.25
4.71
2.22
-0.03
-1.99
-3.74
-5.48
-7.40
-9.62
-12.15
-15.00
-18.14
-21.55
-25.06
-28.27
-30.52
-30.99
-29.03
-24.43
-17.65
-9.77
-2.18
3.83
7.48
8.65
7.70
5.26
1.90
-1.98
-6.02
-9.91
-13.30
-15.85
-17.33
-17.69
-17.04
-15.59
-13.56
-11.13
-8.45
-5.67
-2.98
-0.55
1.47
2.97
3.89
4.16
3.77
2.82
1.51
0.16
-0.96
-1.75
-2.34
-3.02
-4.00
-5.24
-6.34
-6.76
-6.03
-4.01
-0.93
2.75
6.58
10.22
13.52
16.32
18.41
19.52
19.38
17.90
15.24
11.92
8.67
6.30
5.46
6.37
8.73
11.70
14.20
15.28
14.50
12.07
8.60
4.77
0.92
-3.08
-7.72
-13.48
-20.57
-28.71
-37.23
-45.26
-51.92
-56.51
-58.53
-57.80
-54.46
-49.03
-42.21
-34.69
-26.90
-18.95
-10.67
-1.95
6.99
15.54
22.92
28.58
32.42
34.84
36.44
37.64
38.49
38.82
38.44
37.36
35.63
33.15
29.56
24.42
17.55
9.43
1.21
-5.78
-10.58
-13.21
-14.57
-15.89
-18.02
-20.86
-23.40
-24.20
-22.12
-16.82
-9.00
-0.04
8.55
15.65
20.82
24.17
26.01
26.52
25.63
23.13
19.06
13.79
8.09
2.72
-1.79
-5.28
-7.91
-9.86
-11.19
-11.78
-11.51
-10.37
-8.58
-6.49
-4.40
-2.41
-0.52
1.41
3.46
5.60
7.73
9.70
11.39
12.67
13.49
13.79
13.59
12.95
11.88
10.37
8.38
5.95
3.29
0.81
-0.99
-1.80
-1.71
-1.24
-1.08
-1.71
-3.21
-5.26
-7.46
-9.56
-11.58
-13.59
-15.44
-16.63
-16.51
-14.58
-10.82
-5.73
-0.09
5.31
9.94
13.47
15.74
16.60
15.90
13.64
10.00
5.34
0.09
-5.37
-10.65
-15.37
-19.11
-21.43
-21.93
-20.50
-17.34
-13.04
-8.36
-4.05
-0.65
1.59
2.72
2.97
2.70
2.39
2.60
3.77
6.08
9.27
12.71
15.59
17.28
17.51
16.47
14.61
12.29
9.64
6.57
2.97
-1.07
-5.24
-9.15
-12.59
-15.68
-18.81
-22.31
-26.21
-30.03
-32.91
-33.96
-32.66
-29.17
-24.25
-19.05
-14.59
-11.36
-9.22
-7.53
-5.60
-2.93
0.51
4.41
8.29
11.71
14.44
16.41
17.80
18.89
20.10
21.87
24.48
27.77
30.96
32.80
31.94
27.51
19.60
9.30
-1.66
-11.55
-19.31
-24.78
-28.59
-31.62
-34.40
-36.82
-38.18
-37.66
-34.81
-29.83
-23.51
-16.80
-10.49
-4.86
0.09
4.50
8.33
11.29
12.97
13.12
11.79
9.41
6.65
4.16
2.47
1.78
2.00
2.86
3.98
5.02
5.72
5.98
5.77
5.16
4.22
3.02
1.62
0.08
-1.57
-3.30
-5.07
-6.78
-8.25
-9.19
-9.28
-8.23
-5.85
-2.11
2.83
8.64
14.90
21.08
26.63
31.01
33.75
34.52
33.24
30.12
25.71
20.76
16.07
12.20
9.27
6.92
4.52
1.49
-2.38
-6.73
-10.87
-14.04
-15.93
-16.82
-17.58
-19.30
-22.80
-28.31
-35.42
-43.24
-50.72
-56.82
-60.66
-61.48
-58.63
-51.76
-41.01
-27.22
-11.93
2.91
15.49
24.65
30.17
32.71
33.49
33.75
34.39
35.80
37.90
40.34
42.73
44.73
46.17
46.85
46.52
44.81
41.34
35.93
28.79
20.58
12.29
4.89
-0.94
-5.06
-7.90
-10.26
-12.99
-16.74
-21.72
-27.68
-33.87
-39.27
-42.86
-43.88
-42.05
-37.61
-31.18
-23.63
-15.91
-8.90
-3.41
-0.07
0.86
-0.46
-3.39
-7.00
-10.34
-12.70
-13.78
-13.66
-12.63
-11.06
-9.24
-7.36
-5.48
-3.58
-1.58
0.61
3.01
5.52
7.94
9.97
11.36
11.93
11.61
10.45
8.56
6.20
3.80
2.02
1.61
3.22
7.12
13.03
20.21
27.69
34.57
40.26
44.48
47.18
48.35
48.01
46.21
43.16
39.27
35.13
31.32
28.32
26.36
25.40
25.21
25.38
25.53
25.36
24.73
23.72
22.51
21.21
19.81
18.12
15.82
12.63
8.36
2.96
-3.39
-10.31
-17.17
-23.15
-27.40
-29.33
-28.75
-26.02
-21.86
-17.08
-12.45
-8.52
-5.78
-4.65
-5.49
-8.47
-13.42
-19.77
-26.62
-32.97
-37.88
-40.72
-41.25
-39.68
-36.58
-32.71
-28.73
-25.02
-21.58
-18.19
-14.61
-10.81
-6.96
-3.30
-0.05
2.70
4.89
6.44
7.25
7.31
6.78
6.09
5.85
6.69
9.00
12.76
17.50
22.32
26.14
27.98
27.16
23.50
17.27
9.11
-0.18
-9.79
-18.91
-26.85
-33.07
-37.40
-40.01
-41.42
-42.25
-42.90
-43.39
-43.28
-42.02
-39.26
-35.15
-30.39
-25.99
-22.90
-21.65
-22.32
-24.60
-28.06
-32.09
-35.91
-38.45
-38.57
-35.40
-28.85
-19.83
-10.04
-1.41
4.73
8.09
9.37
9.79
10.39
11.62
13.31
15.05
16.46
17.49
18.36
19.35
20.68
22.36
24.24
26.08
27.65
28.79
29.41
29.54
29.28
28.76
28.07
27.22
26.08
24.48
22.28
19.46
16.12
12.52
9.01
6.08
4.29
4.19
6.09
9.98
15.50
21.99
28.76
35.19
40.81
45.28
48.36
49.97
50.34
49.98
49.52
49.42
49.58
49.37
47.86
44.43
39.18
33.02
27.22
22.82
20.06
18.27
16.22
12.70
6.99
-0.97
-10.63
-21.10
-31.33
-40.31
-47.06
-50.74
-50.71
-46.73
-38.97
-28.15
-15.37
-2.02
10.50
21.01
28.82
33.77
36.15
36.43
35.02
32.17
27.99
22.67
16.55
10.16
4.05
-1.35
-5.82
-9.46
-12.54
-15.41
-18.43
-21.82
-25.68
-29.94
-34.43
-38.92
-43.23
-47.18
-50.59
-53.30
-55.17
-56.17
-56.32
-55.66
-54.13
-51.47
-47.32
-41.38
-33.58
-24.26
-14.06
-3.78
5.82
14.14
20.79
25.60
28.57
29.91
30.02
29.42
28.65
28.16
28.21
28.83
29.81
30.75
31.20
30.75
29.20
26.62
23.35
19.84
16.53
13.67
11.27
9.07
6.75
4.05
1.02
-1.86
-3.68
-3.33
0.21
7.49
18.36
31.95
46.67
60.52
71.46
77.76
78.42
73.47
63.92
51.58
38.63
27.06
18.34
13.16
11.57
13.03
16.66
21.31
25.65
28.39
28.41
24.94
17.61
6.54
-7.72
-24.19
-41.62
-58.68
-74.28
-87.89
-99.60
-109.84
-118.93
-126.65
-132.13
-134.22
-132.08
-125.81
-116.55
-106.14
-96.43
-88.61
-83.00
-79.16
-76.42
-74.26
-72.49
-71.02
-69.53
-67.41
-63.84
-58.19
-50.39
-41.07
-31.34
-22.37
-14.83
-8.80
-3.80
0.70
4.99
8.94
12.12
14.15
14.94
14.74
14.02
13.27
12.87
13.11
14.28
16.70
20.69
26.36
33.50
41.47
49.34
56.10
60.85
63.05
62.60
59.75
55.04
49.15
42.71
36.28
30.26
24.87
20.18
16.08
12.37
8.78
5.14
1.50
-1.90
-4.71
-6.70
-7.85
-8.37
-8.60
-8.80
-9.05
-9.24
-9.17
-8.74
-7.94
-6.82
-5.37
-3.44
-0.79
2.67
6.67
10.66
13.95
16.10
17.10
17.19
16.57
15.10
12.34
7.92
2.11
-3.97
-8.62
-10.33
-8.57
-4.21
0.78
4.18
4.43
1.22
-4.54
-11.22
-17.21
-21.37
-23.30
-23.14
-21.41
-18.84
-16.27
-14.47
-13.88
-14.37
-15.19
-15.19
-13.30
-9.02
-2.54
5.42
14.06
22.85
31.55
39.89
47.31
52.89
55.70
55.26
51.86
46.58
40.79
35.67
31.75
28.87
26.44
23.77
20.45
16.43
12.01
7.56
3.40
-0.38
-3.85
-7.19
-10.62
-14.32
-18.45
-23.06
-28.04
-32.96
-37.06
-39.33
-38.89
-35.25
-28.65
-20.00
-10.57
-1.60
6.06
12.07
16.37
18.97
19.75
18.51
15.14
9.89
3.45
-3.23
-9.20
-13.82
-16.95
-18.91
-20.22
-21.34
-22.47
-23.43
-23.83
-23.30
-21.66
-19.14
-16.22
-13.53
-11.57
-10.53
-10.32
-10.63
-11.01
-10.96
-9.92
-7.28
-2.56
4.39
13.24
23.10
32.66
40.59
45.86
48.01
47.23
44.20
39.84
35.05
30.51
26.57
23.26
20.37
17.65
14.91
12.12
9.33
6.58
3.78
0.69
-2.98
-7.48
-12.83
-18.73
-24.68
-30.05
-34.30
-37.17
-38.72
-39.20
-38.89
-37.91
-36.19
-33.60
-30.13
-26.10
-22.04
-18.52
-15.79
-13.76
-12.18
-10.99
-10.59
-11.69
-14.76
-19.49
-24.56
-28.11
-28.43
-24.73
-17.25
-7.07
4.48
16.21
27.28
37.03
44.71
49.47
50.53
47.69
41.35
32.53
22.68
13.50
6.69
3.66
5.17
11.09
20.69
32.42
44.41
54.92
62.94
68.33
71.52
73.05
73.24
72.86
72.52
72.52
72.75
72.82
72.26
70.57
67.36
62.60
57.78
54.51
53.75
55.41
58.69
62.55
65.95
67.88
67.53
65.96
64.61
64.53
66.02
68.92
73.01
77.97
83.35
79.78
61.99
31.07
-5.74
-40.17
-67.37
-86.36
-98.20
-104.48
-106.64
-104.39
-97.83
-88.26
-78.18
-70.12
-65.48
-64.05
-64.42
-64.54
-62.13
-56.09
-47.06
-37.12
-28.60
-23.11
-21.18
-22.46
-26.56
-31.53
-35.68
-38.29
-39.72
-40.75
-42.31
-44.88
-48.36
-52.09
-54.89
-55.89
-54.90
-53.08
-50.78
-48.21
-45.17
-41.23
-36.10
-29.86
-23.12
-16.60
-10.71
-5.27
0.03
5.38
10.58
15.21
18.91
21.60
23.70
25.48
26.68
26.25
23.13
16.05
5.50
-6.59
-17.57
-24.79
-27.11
-25.39
-22.01
-19.41
-18.90
-20.18
-22.08
-23.49
-23.49
-22.25
-21.02
-21.09
-22.66
-24.45
-24.22
-20.16
-11.74
1.01
17.01
34.43
51.60
67.69
82.52
96.00
107.42
110.13
99.91
78.46
53.14
32.31
20.72
18.32
21.76
26.39
28.37
26.78
24.22
21.52
19.02
16.56
13.75
10.23
5.76
0.43
-4.67
-8.35
-10.42
-11.94
-14.33
-18.30
-23.79
-30.09
-36.01
-39.95
-40.95
-39.50
-36.95
-34.69
-33.42
-32.95
-32.59
-31.73
-29.95
-27.28
-24.29
-21.38
-18.58
-16.01
-13.22
-10.03
-6.36
-1.93
3.67
10.50
18.42
27.17
36.26
45.01
52.56
57.94
60.26
58.93
53.22
43.04
29.49
14.56
0.25
-11.03
-17.94
-20.66
-20.85
-21.30
-24.31
-30.12
-37.22
-43.62
-48.18
-51.14
-53.63
-53.06
-48.39
-41.02
-33.13
-26.04
-20.11
-15.63
-13.19
-13.44
-16.58
-23.73
-34.78
-48.04
-60.91
-70.88
-76.24
-76.02
-69.60
-56.61
-32.76
-1.30
31.00
57.52
74.52
81.83
81.92
78.28
73.89
70.00
65.98
61.57
57.27
54.05
52.63
53.20
55.09
57.08
57.48
54.30
46.94
36.09
23.38
10.61
-0.78
-10.12
-17.53
-23.67
-29.37
-34.49
-38.16
-39.48
-38.33
-35.66
-33.09
-32.09
-33.46
-36.53
-39.64
-40.95
-39.16
-34.06
-26.42
-17.55
-8.75
-1.09
4.66
8.06
8.75
6.75
2.49
-2.81
-7.15
-7.98
-3.12
8.37
25.26
43.39
57.18
61.72
54.89
38.46
17.48
-1.90
-15.52
-21.60
-21.02
-16.10
-9.09
-1.33
6.54
13.80
18.74
19.39
14.87
6.36
-2.83
-8.67
-8.43
-2.24
7.42
15.11
16.16
8.80
-5.61
-23.71
-41.61
-55.95
-65.43
-68.17
-63.57
-52.62
-38.09
-23.80
-13.40
-9.00
-10.37
-15.07
-18.60
-17.45
-9.70
3.79
20.44
36.28
47.04
49.18
38.96
16.73
-12.58
-40.61
-58.82
-61.80
-49.39
-26.49
-0.89
19.90
32.03
35.98
35.87
36.94
42.76
53.20
64.52
71.43
69.93
59.70
44.07
28.11
15.96
9.03
5.97
4.33
2.79
2.17
4.90
12.73
24.89
37.60
45.50
44.31
33.19
15.29
-3.68
-18.43
-26.41
-28.92
-30.08
-34.13
-42.82
-54.27
-64.03
-66.38
-59.77
-46.38
-30.70
-17.00
-7.24
-0.74
4.51
10.08
15.94
20.58
22.80
22.39
20.39
18.37
17.55
18.12
19.42
20.39
20.15
18.75
16.93
15.58
15.41
16.65
19.10
22.30
25.54
28.08
29.72
30.59
31.08
31.66
32.81
34.72
37.15
39.47
40.82
40.90
39.86
38.03
35.64
32.67
28.79
23.53
15.62
4.82
-7.43
-18.87
-27.83
-33.84
-37.43
-39.72
-41.94
-46.69
-55.21
-66.81
-79.77
-92.71
-104.89
-115.85
-125.17
-132.58
-140.10
-148.80
-157.80
-165.28
-169.82
-170.47
-166.08
-155.12
-123.77
-70.18
-6.30
51.25
92.57
116.21
125.47
125.18
119.66
111.74
100.70
86.24
70.05
55.01
43.30
35.76
32.19
31.84
33.75
35.22
34.74
32.41
28.98
24.73
19.57
13.68
7.87
3.18
-0.56
-3.58
-5.71
-6.59
-6.17
-4.67
-2.51
-0.39
0.67
-0.99
-6.54
-15.63
-26.53
-36.94
-44.98
-49.78
-51.56
-51.28
-49.97
-47.92
-44.47
-38.59
-29.62
-17.87
-4.47
9.06
21.37
31.61
39.43
44.84
47.98
48.96
47.89
45.05
41.06
36.78
33.06
30.45
28.92
28.14
27.44
26.03
23.37
19.42
14.71
10.23
7.03
5.88
7.43
11.57
17.21
22.60
25.88
25.72
21.56
13.70
3.15
-7.96
-17.46
-23.83
-26.44
-25.35
-20.93
-13.85
-5.07
4.32
14.04
23.85
33.29
41.82
49.13
55.57
61.75
68.24
70.11
64.29
51.42
35.48
20.54
8.34
-1.25
-9.16
-16.33
-23.04
-28.33
-31.18
-31.23
-28.51
-24.22
-19.30
-14.56
-10.65
-7.80
-5.44
-2.99
-0.32
2.18
4.01
5.01
5.41
4.51
2.59
0.44
-1.47
-3.41
-6.02
-9.72
-14.19
-18.77
-22.73
-25.41
-26.67
-27.04
-27.49
-28.67
-30.30
-31.43
-31.26
-29.61
-26.79
-23.66
-21.38
-21.00
-22.72
-25.36
-26.82
-25.04
-18.55
-6.57
10.63
31.74
53.12
69.28
76.24
73.74
63.57
47.53
27.13
4.42
-17.55
-35.09
-44.93
-46.04
-38.69
-25.19
-9.04
6.39
18.82
27.29
31.74
31.15
26.37
18.95
10.04
0.66
-7.92
-14.17
-17.20
-16.92
-13.99
-9.31
-3.70
2.03
7.49
12.44
16.73
20.29
22.69
23.61
23.20
21.92
19.77
16.35
10.87
2.81
-6.40
-13.95
-17.85
-18.19
-16.35
-15.14
-14.66
-13.83
-11.57
-7.34
-2.05
2.61
3.84
-0.14
-9.15
-20.94
-32.38
-41.23
-46.94
-48.16
-45.62
-41.65
-37.84
-34.02
-30.85
-27.04
-22.67
-18.94
-17.39
-18.14
-21.13
-25.37
-29.49
-32.38
-33.44
-33.09
-31.91
-30.16
-27.35
-22.97
-16.82
-9.42
-1.88
4.81
9.78
12.78
14.01
14.40
14.26
13.20
10.70
7.05
3.83
2.98
6.12
13.88
27.02
45.36
67.44
90.73
112.13
128.57
137.21
136.45
120.68
91.23
56.97
28.99
13.16
8.05
8.14
7.84
4.49
-2.23
-9.13
-12.56
-10.67
-4.06
5.18
14.63
21.87
24.78
21.73
13.62
3.10
-6.46
-11.52
-8.75
4.15
26.95
56.08
81.33
90.08
74.28
35.20
-17.21
-68.84
-106.15
-120.69
-111.41
-84.14
-47.61
-10.35
21.00
42.25
50.74
45.48
27.36
-0.41
-32.26
-61.18
-80.83
-89.93
-88.71
-80.89
-71.38
-64.46
-62.67
-66.54
-74.30
-82.28
-85.96
-81.12
-65.98
-41.86
-12.91
15.15
37.37
51.18
56.88
56.54
52.50
45.49
34.67
19.38
-0.68
-22.31
-40.66
-50.93
-51.03
-42.29
-28.56
-13.95
-1.07
9.25
17.61
24.68
30.73
35.43
38.50
39.95
40.31
40.49
41.26
43.02
45.45
47.86
49.33
49.63
49.17
48.87
49.55
51.32
53.53
54.98
54.62
51.54
46.48
40.94
36.57
34.42
34.32
34.93
34.49
31.89
26.81
20.73
16.20
15.70
20.53
29.98
41.88
53.30
61.75
64.15
59.43
49.44
39.26
36.21
47.65
77.97
126.03
184.29
237.50
271.56
279.11
259.87
219.64
167.91
114.01
63.92
19.44
-25.73
-75.89
-129.83
-181.97
-227.13
-263.89
-294.56
-322.98
-351.99
-389.04
-436.10
-488.10
-536.18
-573.37
-597.49
-610.24
-614.46
-571.55
-467.18
-317.66
-158.92
-19.69
88.98
167.61
220.68
253.35
270.85
269.81
251.33
220.95
186.64
154.09
124.44
95.50
63.57
33.61
1.93
-33.06
-67.25
-91.43
-96.31
-77.64
-38.23
13.05
64.60
102.17
118.90
117.47
106.68
95.52
88.77
86.65
86.78
87.20
85.29
81.64
79.58
82.45
91.71
106.74
126.03
148.25
172.08
194.14
207.65
208.49
194.56
167.38
132.05
96.28
67.22
48.71
40.06
37.74
38.15
38.69
38.53
37.28
34.58
29.31
20.21
6.75
-10.16
-28.07
-44.57
-56.23
-63.36
-67.32
-70.00
-73.02
-77.05
-81.55
-84.98
-85.82
-83.32
-78.15
-71.75
-65.95
-62.20
-60.96
-61.49
-62.11
-61.18
-57.78
-52.46
-46.64
-42.13
-40.34
-41.62
-45.07
-48.97
-51.82
-52.82
-52.48
-52.08
-53.04
-56.47
-62.89
-72.29
-84.04
-96.36
-106.18
-109.52
-102.87
-85.01
-58.31
-28.22
-1.35
17.32
26.07
26.91
23.37
18.43
13.43
8.26
2.81
-1.98
-3.84
-0.30
9.80
25.71
44.82
64.24
81.65
96.61
110.16
124.01
139.55
156.60
175.12
193.95
210.73
221.81
223.12
211.33
186.05
150.70
112.18
77.54
51.90
36.53
28.67
23.67
17.30
7.83
-4.25
-17.42
-30.57
-43.80
-58.01
-73.94
-90.73
-107.51
-122.59
-134.39
-142.07
-145.58
-145.52
-142.79
-138.61
-133.12
-126.78
-118.67
-108.02
-94.15
-76.73
-56.30
-34.06
-11.89
8.60
25.02
35.98
40.25
36.92
25.82
8.03
-13.20
-32.71
-45.01
-46.76
-37.80
-23.03
-9.29
-2.38
-4.71
-14.66
-27.94
-40.13
-48.84
-53.66
-55.70
-55.97
-54.26
-49.63
-41.20
-28.35
-11.40
8.59
30.22
52.18
73.54
93.74
112.65
129.40
144.17
156.78
166.58
173.04
176.30
177.71
179.22
182.03
185.55
185.98
178.34
158.87
127.24
87.46
46.45
11.17
-14.23
-29.67
-38.14
-43.74
-49.95
-58.86
-71.35
-88.05
-109.39
-134.22
-159.99
-181.18
-190.47
-181.67
-152.76
-108.56
-60.00
-20.75
-1.35
-4.87
-26.04
-53.32
-74.45
-81.44
-73.29
-55.01
-33.44
-15.20
-3.59
0.82
-1.18
-8.59
-20.18
-33.62
-45.15
-50.83
-48.66
-39.53
-27.91
-19.02
-16.65
-21.79
-32.52
-45.41
-56.95
-64.63
-66.77
-62.63
-51.99
-35.35
-14.46
8.15
30.00
49.64
66.84
82.60
97.44
112.35
126.98
139.84
149.24
153.98
154.07
150.74
146.39
142.68
141.39
143.66
149.55
157.48
163.97
164.22
153.94
131.35
98.55
61.40
27.03
1.00
-15.00
-23.06
-27.48
-32.18
-39.14
-48.50
-59.44
-71.51
-84.89
-99.95
-115.69
-130.68
-142.62
-149.61
-150.84
-146.98
-140.42
-132.25
-123.11
-112.63
-99.94
-84.15
-65.42
-45.18
-25.87
-10.34
-1.21
-0.38
-8.40
-24.00
-43.61
-62.05
-73.88
-75.48
-66.02
-49.66
-32.79
-21.25
-18.01
-22.20
-30.60
-39.51
-46.52
-51.16
-53.84
-54.62
-52.55
-46.32
-34.63
-17.93
1.86
22.28
41.34
58.30
73.80
89.05
104.17
119.39
133.48
144.60
151.24
152.90
150.41
145.58
140.42
136.86
136.31
139.20
144.71
150.36
152.17
145.73
128.56
100.56
65.80
30.99
2.47
-16.14
-25.30
-28.71
-30.84
-34.85
-41.37
-49.19
-57.17
-65.90
-77.57
-94.34
-115.84
-137.53
-152.81
-154.98
-140.67
-112.05
-75.94
-40.84
-13.40
3.31
9.60
6.96
-3.12
-19.49
-40.21
-61.67
-78.97
-87.60
-85.80
-75.64
-62.41
-51.69
-46.45
-45.58
-44.65
-38.60
-24.82
-4.78
16.44
32.45
38.36
32.94
19.06
1.52
-15.29
-29.09
-39.56
-47.34
-52.69
-54.97
-53.17
-46.76
-36.30
-23.02
-8.27
7.05
22.87
39.63
57.58
76.22
93.76
108.78
120.05
126.97
129.98
130.50
130.74
132.97
138.34
145.83
151.78
150.72
137.76
111.77
75.69
36.86
3.87
-17.38
-25.94
-25.63
-22.58
-21.83
-24.90
-30.03
-34.12
-35.29
-34.33
-34.29
-38.59
-49.45
-66.97
-89.39
-113.65
-136.14
-152.68
-160.21
-156.75
-142.38
-119.59
-92.97
-67.41
-46.25
-30.06
-16.68
-2.73
14.46
35.35
57.46
76.07
85.83
82.11
63.63
33.79
0.27
-27.17
-40.47
-36.81
-19.73
2.60
21.17
30.14
28.15
18.43
5.65
-7.03
-18.73
-30.00
-41.00
-50.49
-56.22
-55.92
-48.96
-36.54
-21.38
-6.12
7.48
19.34
30.55
42.53
56.25
70.92
85.58
98.36
107.60
112.60
114.26
115.05
117.58
122.92
129.07
131.26
123.65
102.68
69.70
30.18
-7.52
-35.98
-51.98
-57.03
-56.05
-54.69
-56.45
-62.38
-72.16
-85.29
-101.70
-120.81
-140.07
-154.18
-158.04
-148.44
-126.21
-96.83
-68.00
-46.59
-35.84
-34.51
-38.39
-43.04
-45.47
-44.93
-42.07
-37.43
-31.01
-22.29
-10.93
2.67
17.22
31.34
43.80
53.68
61.71
68.68
75.24
81.42
86.64
89.91
90.53
88.81
85.25
81.33
78.35
76.97
76.85
76.81
75.57
71.76
65.06
56.23
46.92
38.45
31.50
25.72
20.08
13.19
5.07
-3.56
-11.16
-15.54
-15.41
-9.81
1.62
18.25
37.82
56.34
68.47
68.92
56.23
32.95
5.48
-18.53
-33.42
-37.86
-34.61
-28.63
-23.80
-21.14
-19.16
-15.59
-9.32
-1.42
5.27
7.97
5.05
-2.80
-13.11
-22.73
-29.35
-32.53
-33.57
-35.09
-38.86
-46.28
-56.86
-68.95
-80.91
-91.27
-98.17
-98.88
-90.65
-71.58
-43.89
-14.19
8.21
15.47
5.18
-18.04
-44.69
-65.44
-74.80
-73.42
-66.01
-57.62
-50.54
-43.68
-34.18
-20.08
-2.77
14.47
27.84
34.87
35.25
30.13
21.13
9.58
-3.12
-14.94
-22.72
-23.34
-15.15
0.60
19.85
36.52
45.96
46.79
40.95
32.58
25.21
20.40
17.49
14.99
12.13
9.42
8.51
10.93
17.40
27.43
40.17
54.90
71.35
88.75
104.89
116.06
117.59
107.45
87.02
61.23
36.78
19.27
10.86
9.96
12.99
16.74
19.96
23.05
26.95
31.69
35.88
37.31
34.16
26.33
15.36
3.72
-6.21
-13.37
-18.38
-23.08
-28.93
-37.48
-48.31
-59.61
-69.29
-75.98
-79.44
-79.83
-77.26
-70.74
-59.95
-45.67
-30.70
-19.00
-13.83
-15.99
-23.57
-32.60
-39.58
-43.29
-44.27
-44.08
-43.97
-44.00
-43.65
-42.89
-42.74
-44.41
-50.45
-61.82
-77.69
-95.39
-110.26
-117.17
-112.08
-93.92
-65.64
-33.54
-4.96
15.22
25.43
27.63
25.44
21.98
18.36
13.90
7.63
0.15
-6.33
-8.91
-5.61
3.35
15.85
29.14
40.91
50.73
60.17
71.57
86.92
107.04
130.63
155.78
179.00
195.67
201.15
192.38
169.44
136.36
100.38
68.39
45.15
31.36
24.10
19.12
13.30
5.84
-2.30
-9.91
-17.24
-25.84
-37.78
-54.24
-74.84
-97.48
-120.23
-140.49
-155.04
-160.61
-154.53
-136.42
-109.10
-78.23
-49.07
-25.07
-6.45
8.32
20.31
27.98
27.56
15.68
-7.47
-37.07
-65.52
-85.69
-93.79
-89.88
-76.36
-55.81
-30.39
-2.25
25.37
47.82
60.49
60.43
48.52
28.66
5.88
-15.73
-33.76
-47.28
-56.16
-60.43
-60.26
-56.19
-49.25
-40.52
-30.24
-18.27
-3.81
13.74
34.25
56.61
79.04
99.10
115.59
128.18
137.10
143.07
146.84
149.31
151.61
154.84
159.07
162.59
162.15
152.86
131.71
99.27
60.10
21.28
-10.40
-31.01
-40.61
-42.38
-41.04
-40.42
-42.98
-50.12
-62.76
-81.52
-105.91
-133.16
-157.40
-172.28
-172.56
-156.85
-129.14
-97.25
-69.84
-52.58
-46.36
-47.43
-50.50
-51.01
-46.94
-39.34
-31.51
-27.88
-32.36
-46.51
-67.78
-89.57
-102.70
-99.17
-76.29
-38.05
6.38
47.07
77.55
96.77
107.56
113.42
115.77
113.44
104.67
89.55
70.83
52.81
39.10
30.80
26.02
21.39
13.82
2.69
-9.64
-19.14
-21.73
-15.16
-0.11
20.17
41.44
60.03
73.26
82.10
88.88
96.02
105.19
116.92
130.26
142.66
150.12
148.23
133.82
106.52
69.93
30.81
-3.38
-27.46
-40.40
-44.97
-45.30
-44.17
-41.98
-37.46
-29.65
-19.70
-11.02
-7.71
-12.40
-24.38
-39.92
-54.36
-63.95
-67.94
-68.70
-70.46
-76.83
-90.17
-110.06
-133.36
-155.27
-170.29
-173.50
-161.81
-135.00
-96.81
-55.21
-20.85
-3.68
-8.82
-33.61
-67.91
-98.36
-113.88
-110.35
-91.69
-66.90
-44.90
-30.32
-22.31
-16.51
-8.86
1.85
13.81
24.19
31.67
37.42
44.22
53.90
67.25
82.45
96.30
105.56
108.62
105.96
99.73
93.10
88.03
85.53
85.19
85.71
85.65
84.14
81.04
76.97
72.94
69.63
67.46
66.18
65.12
63.74
62.34
62.16
64.56
69.66
75.03
75.98
67.17
45.41
12.02
-26.97
-63.02
-88.72
-100.83
-101.03
-94.29
-86.03
-79.78
-76.47
-75.53
-76.20
-78.03
-80.06
-80.08
-74.58
-60.47
-37.07
-7.05
23.97
49.70
65.81
71.41
68.70
60.72
50.98
41.12
31.36
21.82
13.32
7.22
4.87
7.07
13.65
23.70
35.07
44.62
48.67
44.11
29.91
8.21
-16.17
-36.92
-49.48
-52.79
-48.93
-41.50
-33.44
-26.03
-18.95
-11.85
-5.29
-0.69
0.58
-1.40
-4.96
-7.42
-6.72
-2.30
4.27
10.20
12.88
11.13
5.84
-0.95
-6.53
-9.38
-9.70
-9.41
-11.29
-17.81
-30.43
-48.08
-67.92
-84.70
-92.20
-85.17
-61.62
-24.39
18.83
57.39
82.08
87.40
74.16
48.88
20.98
-1.10
-12.58
-13.68
-7.98
0.40
8.62
16.15
23.64
31.35
38.30
41.94
40.01
31.68
18.35
2.84
-11.65
-22.83
-30.56
-35.85
-41.25
-48.56
-58.23
-69.23
-80.11
-89.82
-97.92
-104.27
-107.28
-104.72
-94.30
-75.47
-50.35
-23.49
0.09
17.07
26.93
31.68
33.83
35.03
35.35
33.99
30.50
25.58
20.80
17.56
16.32
16.26
16.15
15.05
12.63
9.29
5.67
2.45
-0.24
-2.46
-4.48
-6.43
-8.28
-9.84
-11.02
-12.01
-13.10
-14.67
-16.65
-18.35
-18.56
-15.95
-9.71
-0.04
11.80
24.03
35.23
44.85
53.50
62.44
72.11
82.87
94.16
104.99
114.23
120.54
122.07
116.53
101.95
78.31
47.32
13.32
-18.46
-43.91
-61.42
-72.20
-79.02
-84.51
-89.49
-92.97
-93.16
-89.20
-82.51
-76.84
-76.76
-85.12
-100.70
-117.61
-127.09
-121.40
-97.67
-60.01
-17.60
19.26
43.64
54.32
55.07
51.52
47.90
45.73
43.89
41.17
37.42
34.43
34.53
39.21
48.05
57.84
66.49
71.86
73.57
72.62
70.91
70.01
70.69
72.48
74.25
75.80
75.47
73.22
69.96
67.12
65.88
66.39
67.37
66.23
60.18
47.16
27.56
4.17
-18.78
-37.29
-49.13
-54.43
-55.17
-53.70
-51.77
-49.61
-46.68
-42.35
-36.73
-30.55
-24.82
-20.22
-16.70
-13.81
-10.81
-7.43
-3.94
-0.99
0.75
1.03
-0.08
-2.06
-4.36
-6.62
-8.87
-11.48
-14.93
-19.66
-24.66
-29.23
-32.73
-34.92
-35.98
-36.55
-37.56
-39.72
-43.19
-47.21
-50.66
-52.14
-50.74
-46.40
-39.91
-32.60
-25.60
-19.33
-13.29
-7.07
-0.62
5.35
9.69
11.40
9.99
5.80
-0.31
-7.39
-15.46
-23.52
-30.52
-35.46
-37.79
-37.91
-36.65
-36.61
-37.83
-40.17
-43.53
-47.70
-52.56
-56.68
-59.54
-60.85
-60.00
-56.08
-48.90
-39.52
-29.36
-20.02
-12.77
-8.55
-7.16
-6.51
-3.87
2.32
10.65
19.16
25.75
29.13
28.63
24.82
20.47
18.69
21.00
25.17
29.41
32.67
35.06
36.66
37.84
40.76
47.97
61.26
79.07
101.46
128.99
161.47
195.69
216.60
211.01
175.34
132.42
93.84
65.89
47.24
37.74
35.01
35.28
36.32
37.15
37.27
33.70
25.77
14.54
2.03
-10.56
-22.47
-31.90
-37.29
-38.41
-38.66
-42.02
-50.35
-63.04
-78.21
-93.28
-104.79
-109.73
-106.60
-97.30
-84.59
-71.44
-60.30
-52.78
-48.80
-46.32
-42.47
-35.24
-25.08
-13.66
-3.02
5.40
11.04
14.40
16.76
19.34
22.54
25.75
28.36
30.52
33.10
37.20
43.88
52.35
60.70
66.09
65.80
58.47
44.80
27.24
8.83
-7.79
-21.16
-30.81
-36.93
-39.89
-39.75
-36.58
-30.80
-23.78
-17.26
-12.49
-9.53
-7.33
-4.27
1.26
10.12
21.95
34.60
45.19
51.47
52.76
49.81
43.61
35.86
28.42
22.75
18.48
14.37
9.54
4.03
-1.59
-6.85
-11.39
-14.94
-17.26
-19.79
-24.48
-32.83
-45.52
-62.99
-85.81
-114.16
-147.26
-173.49
-181.85
-169.26
-142.49
-111.26
-81.83
-56.38
-35.09
-17.60
-3.73
5.08
7.64
4.58
-1.71
-7.80
-10.83
-9.91
-5.89
-0.79
1.84
-1.79
-12.96
-30.51
-50.03
-64.67
-68.41
-57.84
-33.59
-0.84
32.96
61.18
80.13
90.74
97.69
105.02
114.96
127.81
142.85
160.34
182.90
207.47
223.69
225.51
211.19
183.91
148.13
108.08
68.29
33.89
8.78
-5.12
-8.17
-6.16
-6.18
-13.28
-29.21
-52.46
-79.09
-104.70
-124.81
-127.79
-110.36
-76.28
-34.29
5.07
33.14
46.62
47.42
41.42
36.42
34.80
34.70
33.59
29.48
21.58
11.56
1.36
-7.72
-14.50
-22.01
-33.47
-50.14
-72.05
-99.29
-131.59
-161.49
-184.72
-184.97
-157.15
-108.61
-53.09
-2.91
27.60
40.59
39.10
25.85
4.41
-18.61
-35.70
-37.16
-16.28
25.65
80.23
133.37
170.96
184.51
172.05
138.82
98.10
69.59
65.06
81.05
105.53
129.63
151.40
172.06
190.68
208.19
222.39
229.33
226.93
216.14
200.22
182.19
167.10
155.67
146.85
137.75
124.73
105.91
82.17
56.75
33.41
14.78
0.96
-9.15
-18.12
-29.08
-44.09
-63.15
-84.41
-105.37
-123.88
-139.35
-152.11
-163.78
-176.77
-193.33
-214.59
-240.05
-267.54
-293.30
-312.70
-320.57
-312.45
-285.96
-241.71
-183.81
-119.43
-57.29
-5.57
29.98
47.42
48.47
37.39
19.57
0.31
-15.78
-25.20
-25.74
-17.18
-1.50
17.10
33.16
41.53
39.03
25.62
4.45
-19.29
-39.72
-51.86
-53.15
-43.95
-26.94
-5.78
16.41
37.84
57.89
76.75
94.62
110.77
123.20
129.10
125.72
111.38
86.14
51.35
10.43
-31.49
-69.07
-98.50
-118.55
-131.30
-141.24
-154.05
-176.38
-211.26
-256.44
-305.70
-351.58
-386.85
-406.69
-408.77
-393.53
-367.44
-335.91
-300.27
-259.06
-210.68
-153.90
-90.19
-23.09
41.30
89.70
113.11
111.55
91.22
59.16
22.22
-15.62
-51.03
-81.57
-113.02
-147.41
-179.50
-202.21
-212.84
-212.01
-204.31
-193.64
-135.83
-25.31
101.12
201.27
260.78
280.47
282.73
280.64
280.92
285.64
290.80
292.18
291.22
291.02
291.26
289.94
283.01
269.14
249.81
222.52
188.32
153.64
125.05
104.32
89.59
75.90
59.95
41.03
17.04
-11.06
-38.34
-59.43
-71.68
-74.44
-69.19
-57.26
-40.06
-21.55
-5.92
3.95
6.23
-0.24
-15.01
-36.19
-59.73
-80.23
-92.67
-92.81
-78.05
-48.86
-9.45
33.34
71.95
100.78
117.62
123.77
122.57
117.55
110.84
102.88
93.19
81.74
69.92
60.39
56.05
58.57
67.47
80.01
92.32
100.76
103.09
98.93
89.43
76.74
63.59
52.87
47.06
47.41
52.93
59.99
63.25
57.65
40.81
14.42
-16.08
-43.90
-63.82
-74.39
-78.14
-79.80
-83.79
-92.14
-104.12
-117.26
-129.08
-138.34
-145.38
-151.40
-157.43
-163.60
-168.82
-170.99
-167.57
-155.42
-130.93
-91.02
-34.66
35.68
113.05
186.60
243.85
274.07
272.34
241.55
191.32
134.39
82.22
41.65
13.88
-4.29
-18.50
-33.25
-50.22
-68.71
-87.42
-105.38
-122.14
-137.25
-149.57
-158.76
-162.55
-156.75
-137.71
-104.74
-60.18
-7.81
48.60
105.84
156.90
196.51
223.01
236.39
236.11
222.06
196.16
162.29
124.74
80.08
26.56
-32.06
-89.42
-141.37
-186.21
-223.36
-252.84
-275.44
-301.08
-335.52
-375.45
-413.47
-445.39
-470.68
-489.61
-501.56
-452.14
-326.47
-163.70
-17.69
86.36
149.82
184.30
202.29
213.17
221.86
221.13
206.14
181.34
156.71
139.56
132.54
135.11
144.95
159.00
168.13
166.96
158.47
150.70
149.15
155.47
169.77
191.41
218.81
244.80
260.94
262.40
249.39
222.79
184.32
138.16
89.45
41.20
-3.31
-43.03
-76.26
-98.34
-107.41
-105.40
-95.52
-81.50
-66.76
-54.19
-47.33
-47.27
-50.05
-53.80
-60.30
-71.01
-85.58
-101.70
-103.96
-84.41
-64.14
-52.44
-46.80
-49.30
-60.02
-75.07
-87.83
-92.35
-88.20
-78.47
-64.97
-52.18
-47.11
-53.40
-68.85
-86.82
-99.48
-101.72
-90.26
-61.91
-19.11
27.44
64.43
81.70
75.06
46.35
1.87
-47.97
-90.37
-105.34
-83.70
-38.46
7.40
40.48
60.04
70.46
75.82
78.33
77.59
70.91
57.64
42.36
31.82
30.03
36.30
46.65
56.53
62.39
61.84
54.34
43.97
36.62
36.47
44.34
58.13
74.16
88.68
98.34
101.74
101.35
101.31
105.15
114.75
130.71
152.67
179.67
209.99
236.52
253.65
256.77
243.66
215.64
177.43
135.17
93.58
54.08
15.45
-22.63
-58.01
-85.75
-100.49
-99.87
-86.71
-68.43
-53.64
-48.38
-53.15
-64.17
-75.89
-84.38
-89.06
-92.37
-97.89
-108.37
-124.86
-146.28
-170.42
-194.47
-215.26
-229.51
-234.26
-227.78
-210.34
-184.73
-155.42
-127.24
-103.89
-86.85
-75.03
-65.56
-54.83
-39.66
-18.48
8.47
38.81
67.85
89.33
97.06
87.07
59.30
17.99
-30.24
-77.45
-116.72
-143.96
-158.38
-161.30
-154.84
-141.05
-121.86
-101.16
-81.75
-65.04
-51.24
-39.70
-28.64
-15.38
3.32
30.12
63.23
99.98
136.35
166.05
181.04
174.30
142.39
87.21
15.54
-66.82
-150.52
-224.70
-280.25
-312.04
-319.43
-306.15
-278.59
-225.78
-156.66
-90.60
-43.44
-17.93
-8.84
-7.08
-7.81
-8.49
-5.50
-4.43
-6.07
-8.88
-11.06
-11.66
-10.73
-9.27
-7.88
-3.44
-1.27
-0.44
1.71
7.59
19.63
38.09
60.56
83.49
107.96
126.13
138.48
147.12
154.09
163.90
178.36
194.85
182.85
171.82
153.66
130.86
107.41
86.93
77.41
82.79
99.86
120.89
143.44
159.56
173.07
188.62
209.69
245.77
302.04
375.39
456.14
537.09
604.90
655.33
684.07
640.32
504.50
304.36
97.07
-73.78
-183.11
-256.41
-310.30
-352.00
-381.54
-387.29
-360.19
-302.56
-227.61
-150.57
-86.79
-40.94
-13.82
-3.45
-0.93
1.03
4.07
5.18
1.85
-7.43
-18.41
-27.20
-31.55
-28.39
-17.18
-1.17
13.81
22.57
21.81
12.79
-2.42
-22.05
-44.88
-69.67
-95.28
-121.00
-146.59
-172.25
-197.04
-220.04
-240.24
-258.48
-274.72
-287.84
-296.39
-299.65
-297.12
-287.79
-270.60
-230.34
-165.47
-89.59
-21.71
27.04
55.72
69.37
73.63
72.63
68.74
60.98
49.58
37.31
28.01
23.75
24.83
29.59
35.66
41.60
45.75
48.93
54.26
65.16
83.21
108.79
140.21
174.62
208.45
236.57
254.88
261.74
258.70
241.92
213.67
178.43
140.88
104.07
68.30
33.21
-0.21
-28.47
-46.84
-50.79
-40.08
-19.65
2.14
16.66
19.29
11.17
-1.79
-12.74
-17.60
-17.16
-14.81
-12.88
-10.36
-2.88
13.57
39.64
70.46
95.58
103.93
89.76
55.58
10.12
-35.44
-73.90
-102.98
-125.02
-146.97
-175.15
-211.03
-250.71
-288.04
-316.54
-333.71
-338.59
-331.46
-317.48
-303.68
-295.77
-296.80
-308.03
-328.10
-356.48
-390.55
-404.84
-382.25
-325.93
-257.51
-198.65
-167.38
-152.42
-141.94
-127.10
-102.85
-68.18
-27.82
13.14
51.76
86.72
118.95
147.46
172.09
193.18
208.26
214.82
213.67
209.46
208.29
215.89
233.16
258.28
287.56
314.60
332.99
339.07
332.62
315.65
291.81
263.64
233.68
204.12
175.72
148.73
124.58
106.51
98.75
105.09
126.11
158.62
195.80
228.38
247.48
247.44
227.13
189.44
139.94
85.34
32.73
-11.21
-41.42
-55.58
-54.80
-43.70
-29.20
-18.44
-16.15
-23.16
-36.61
-51.87
-64.55
-71.87
-72.90
-68.30
-59.52
-47.84
-33.93
-18.07
-0.94
16.03
30.92
41.33
44.42
37.30
18.52
-10.57
-45.25
-78.66
-103.63
-114.40
-108.11
-85.57
-53.62
-22.97
-3.79
1.03
-4.19
-13.50
-23.03
-31.56
-39.43
-47.25
-54.63
-59.96
-61.18
-57.41
-49.62
-39.94
-30.85
-24.31
-21.32
-21.23
-22.01
-21.05
-16.87
-10.09
-3.32
-0.09
-3.38
-14.33
-30.91
-49.53
-65.57
-75.56
-78.54
-76.04
-70.89
-65.48
-60.72
-55.62
-48.17
-36.89
-22.44
-7.93
1.98
3.18
-5.43
-21.57
-40.24
-55.57
-62.77
-60.26
-49.06
-32.17
-13.49
3.62
16.66
24.23
25.99
22.49
14.92
4.87
-5.88
-15.41
-21.40
-21.97
-16.16
-4.25
12.11
30.42
48.06
63.03
71.49
71.88
64.31
50.27
32.14
12.47
-6.42
-22.69
-35.20
-43.62
-47.85
-48.49
-46.57
-43.33
-39.96
-36.92
-33.84
-29.65
-23.22
-13.68
-1.24
13.06
27.50
40.27
50.49
58.32
64.45
69.43
73.36
75.80
76.52
75.27
71.32
64.17
53.50
39.21
21.85
3.05
-14.62
-27.64
-33.70
-33.52
-29.51
-24.78
-21.87
-21.94
-24.45
-27.57
-27.91
-23.29
-14.77
-4.75
3.87
9.06
9.67
5.46
-6.97
-26.88
-45.11
-56.72
-59.93
-52.13
-30.63
4.16
47.15
89.80
125.03
148.24
157.93
157.10
150.74
143.99
138.71
133.16
116.80
85.92
45.24
4.67
-23.17
-38.61
-44.85
-45.50
-43.45
-40.20
-34.99
-27.39
-18.71
-11.12
-8.09
-10.14
-16.05
-23.99
-32.43
-39.13
-41.94
-40.21
-34.41
-26.89
-19.68
-14.58
-12.59
-13.32
-14.49
-13.70
-9.89
-3.66
2.86
7.95
9.91
7.23
-1.07
-14.78
-32.69
-52.83
-72.86
-90.69
-104.46
-113.19
-116.83
-115.94
-111.21
-103.48
-93.83
-83.47
-73.58
-64.74
-56.86
-49.30
-41.19
-31.87
-21.37
-10.44
-0.28
7.76
12.63
13.93
12.11
8.18
3.24
-1.93
-7.10
-12.02
-16.81
-21.82
-27.33
-33.17
-38.67
-42.83
-44.71
-43.82
-39.54
-32.50
-24.56
-17.86
-13.57
-11.29
-9.37
-5.72
1.38
14.12
32.84
55.51
78.62
98.79
113.95
123.94
130.50
136.57
146.91
163.54
184.25
203.53
215.79
218.09
211.11
198.12
171.99
132.38
85.46
40.37
3.34
-23.35
-39.44
-45.80
-44.51
-38.81
-29.23
-16.36
-2.14
9.41
12.68
2.30
-24.04
-65.34
-116.14
-165.28
-202.18
-221.26
-223.50
-214.67
-201.67
-189.98
-177.63
-165.46
-151.72
-134.62
-114.25
-92.63
-72.33
-54.61
-39.65
-26.59
-13.76
0.98
18.67
38.97
60.37
80.69
98.25
111.32
118.64
119.25
113.58
102.70
87.97
71.19
51.35
31.05
13.54
1.46
-4.45
-5.13
-3.09
-1.35
-2.28
-6.81
-13.86
-21.83
-28.92
-33.59
-34.52
-31.08
-23.68
-14.02
-4.76
1.63
3.21
-0.51
-8.46
-18.55
-28.60
-36.86
-41.87
-42.21
-36.29
-23.18
-3.26
21.45
47.35
69.95
85.76
93.77
95.78
95.61
97.05
102.42
111.70
122.86
132.11
136.75
136.80
135.20
136.07
142.80
156.81
177.32
201.68
224.47
239.94
243.44
232.40
206.00
165.21
113.06
53.86
-7.93
-70.90
-134.61
-197.88
-257.56
-309.89
-351.95
-382.73
-404.22
-407.54
-388.65
-350.82
-303.49
-255.23
-210.32
-170.02
-134.05
-102.20
-73.72
-49.12
-28.34
-11.62
3.03
16.30
27.98
39.22
51.77
67.24
84.50
100.92
113.36
120.37
122.01
116.84
107.97
100.24
97.90
101.94
110.97
121.96
132.73
141.45
142.12
132.65
114.98
94.01
74.50
62.77
57.89
57.75
58.88
57.09
47.93
28.57
-2.38
-43.86
-91.46
-135.47
-164.28
-172.34
-162.62
-142.61
-120.08
-100.47
-85.01
-71.50
-57.92
-40.50
-18.93
3.35
21.22
29.72
25.17
7.28
-21.54
-58.14
-97.28
-131.44
-153.17
-156.42
-137.49
-97.05
-39.76
24.70
83.54
125.39
143.86
139.91
120.81
99.16
80.10
66.02
56.83
51.60
50.24
53.27
60.83
69.06
75.45
76.53
70.04
55.63
35.67
14.83
-2.04
-11.92
-14.71
-12.84
-11.16
-14.03
-24.43
-42.40
-64.82
-86.45
-101.64
-105.99
-97.76
-78.87
-53.47
-26.97
-4.76
10.56
17.91
18.03
14.08
10.92
13.13
22.85
37.71
51.13
55.73
47.28
27.41
4.16
-12.14
-13.77
1.27
27.49
54.64
73.74
80.26
73.67
57.51
33.35
2.17
-34.13
-72.08
-106.86
-133.06
-144.06
-140.10
-125.37
-105.78
-85.79
-67.67
-48.66
-25.63
3.45
38.03
73.86
105.47
127.38
133.25
123.46
103.16
78.43
53.72
31.44
8.93
-15.21
-40.10
-62.31
-76.91
-80.45
-73.20
-59.07
-44.25
-35.28
-35.91
-46.54
-64.21
-84.10
-101.63
-113.85
-119.59
-119.07
-113.91
-106.44
-99.93
-97.85
-102.13
-111.61
-121.38
-123.61
-110.59
-78.45
-29.20
29.50
87.40
136.00
171.45
194.95
210.84
223.40
234.19
241.68
242.51
233.88
215.44
189.81
161.26
133.86
109.96
89.76
72.38
56.94
43.29
32.05
23.93
18.89
15.70
12.18
5.78
-5.46
-21.96
-42.00
-61.79
-76.32
-81.08
-73.97
-56.48
-33.49
-11.51
3.56
8.79
4.64
-5.57
-17.65
-28.20
-35.74
-40.92
-45.84
-52.91
-63.66
-78.19
-95.52
-113.88
-130.88
-143.69
-149.57
-147.23
-138.41
-128.61
-125.90
-137.75
-167.04
-209.82
-256.13
-293.98
-314.31
-314.26
-297.31
-270.24
-238.99
-206.32
-172.25
-135.71
-96.73
-56.63
-16.96
22.13
62.96
109.89
167.08
235.88
313.12
391.25
460.13
509.77
533.18
528.06
497.46
447.80
386.52
319.81
251.40
182.63
113.41
43.49
-26.86
-95.79
-161.29
-221.34
-273.57
-314.72
-340.98
-349.63
-340.85
-318.19
-285.31
-245.95
-202.58
-156.00
-105.89
-52.43
2.25
54.03
98.37
135.45
167.23
195.43
220.08
239.98
253.97
261.87
264.92
265.72
271.58
288.08
316.25
352.01
388.72
420.37
443.24
456.35
436.28
373.78
277.73
171.55
77.75
6.84
-42.51
-77.90
-108.19
-140.06
-172.31
-200.71
-221.02
-231.00
-230.48
-221.09
-206.10
-190.33
-179.44
-173.73
-171.99
-173.49
-178.28
-186.01
-194.93
-201.82
-203.54
-198.70
-186.97
-170.46
-153.94
-141.98
-135.97
-133.30
-128.91
-119.31
-103.90
-86.80
-74.63
-74.44
-90.08
-120.44
-159.86
-198.72
-227.47
-239.65
-239.13
-227.04
-202.43
-163.69
-108.33
-40.03
34.03
104.95
166.25
214.83
252.10
280.38
300.46
310.35
305.74
285.26
252.32
216.23
187.01
171.40
168.78
172.60
175.13
171.59
164.84
153.60
140.22
124.84
103.58
69.94
20.80
-34.94
-89.89
-135.15
-164.23
-174.51
-168.63
-151.42
-127.97
-101.61
-73.25
-43.20
-12.67
15.52
38.94
55.56
64.60
66.44
62.45
54.67
44.60
34.21
25.23
19.17
16.00
14.10
11.07
4.88
-5.44
-19.98
-37.22
-54.56
-68.52
-76.09
-75.48
-66.79
-52.19
-35.38
-20.67
-11.07
-7.25
-7.52
-9.19
-10.12
-9.79
-9.12
-9.48
-11.69
-15.28
-18.97
-21.53
-22.53
-22.60
-22.96
-24.59
-27.42
-30.24
-31.20
-28.71
-22.43
-13.54
-4.29
2.91
6.58
6.62
3.97
-0.11
-4.81
-9.92
-15.44
-21.00
-25.62
-28.07
-27.49
-23.98
-18.59
-12.79
-7.66
-3.63
-0.47
2.25
4.75
6.89
8.37
9.10
9.50
10.34
12.29
15.56
19.65
23.59
26.42
27.50
26.80
24.67
21.56
17.76
13.42
8.70
3.97
-0.12
-2.97
-4.28
-4.28
-3.68
-3.31
-3.68
-4.92
-6.76
-8.77
-10.60
-11.98
-12.68
-12.38
-10.74
-7.50
-2.87
2.52
7.65
11.52
13.48
13.42
11.68
8.73
5.23
1.57
-2.05
-5.53
-8.85
-11.98
-15.00
-17.95
-20.78
-23.26
-24.92
-25.18
-23.72
-20.68
-16.61
-12.25
-8.10
-4.28
-0.59
3.35
7.89
13.03
18.32
23.00
26.14
26.88
24.57
19.09
11.14
2.32
-5.63
-11.54
-15.17
-17.37
-19.39
-22.34
-26.60
-31.25
-34.36
-33.97
-28.96
-18.21
-2.15
17.84
39.79
59.70
72.61
75.78
70.06
58.23
43.07
26.35
9.51
-6.08
-19.12
-28.40
-33.14
-33.66
-31.72
-28.81
-26.38
-25.32
-25.85
-27.65
-29.75
-30.81
-29.70
-25.67
-18.66
-9.32
1.37
12.40
22.52
30.84
36.87
40.29
40.87
38.21
31.85
21.82
9.16
-4.10
-15.40
-22.55
-24.38
-20.79
-12.73
-2.01
9.35
19.68
27.82
33.15
35.54
33.47
27.02
18.53
11.26
7.09
5.68
5.23
3.63
-0.58
-7.57
-15.77
-22.93
-27.20
-28.05
-26.32
-23.77
-22.18
-22.53
-24.63
-27.21
-29.00
-29.47
-28.80
-27.34
-25.05
-21.48
-16.08
-8.85
-0.33
8.26
15.53
20.61
23.47
24.87
25.75
26.76
27.99
29.09
29.83
29.65
28.61
27.06
25.37
23.52
21.33
18.67
15.98
14.24
14.39
16.87
20.84
24.48
25.73
23.48
18.10
11.03
3.66
-3.63
-11.41
-20.75
-31.74
-43.06
-52.11
-56.39
-54.88
-48.68
-40.34
-32.15
-25.24
-18.94
-11.88
-2.99
7.82
19.78
32.01
42.62
50.56
55.01
55.05
49.31
37.29
20.36
1.71
-15.10
-27.44
-35.00
-41.25
-48.08
-56.20
-64.59
-71.25
-74.26
-73.04
-67.76
-60.12
-52.71
-47.38
-45.03
-45.48
-48.43
-51.55
-53.86
-53.48
-49.42
-41.85
-31.14
-17.74
-2.18
14.76
32.97
52.93
76.44
102.84
128.15
147.00
154.41
147.55
126.42
94.64
52.23
10.38
-16.96
-25.05
-19.29
-9.04
1.97
13.22
25.53
39.48
53.75
65.09
69.47
64.67
51.46
32.70
11.90
-7.28
-22.17
-31.03
-34.68
-35.86
-37.02
-39.29
-42.98
-47.92
-53.58
-59.58
-65.50
-71.54
-78.12
-84.85
-90.51
-94.12
-94.88
-92.27
-86.48
-78.28
-68.74
-58.43
-46.69
-28.78
-4.40
22.36
46.58
65.09
76.52
80.83
79.24
74.03
67.64
61.45
56.15
52.02
48.90
46.36
44.18
42.45
41.45
41.21
41.24
41.19
41.15
41.37
41.82
42.02
41.13
38.21
32.46
23.66
12.49
0.28
-11.66
-22.60
-32.53
-41.83
-50.82
-59.91
-68.57
-76.03
-81.42
-83.90
-83.27
-80.04
-75.21
-69.01
-62.36
-54.54
-44.01
-29.64
-11.55
8.24
26.57
40.61
49.26
53.40
55.48
58.21
62.08
66.58
70.43
72.51
72.52
70.88
67.99
64.02
58.19
48.93
35.22
16.99
-4.41
-26.42
-45.91
-60.08
-67.01
-65.48
-57.04
-44.27
-30.45
-18.76
-11.58
-9.72
-12.39
-17.32
-21.81
-23.82
-22.23
-17.46
-11.15
-5.47
-2.13
-1.57
-2.62
-3.17
-1.22
4.08
11.64
18.92
23.19
23.21
19.79
15.65
14.01
16.83
23.85
32.44
38.73
39.25
32.61
19.80
3.97
-11.11
-22.13
-26.86
-24.32
-14.12
2.40
22.80
43.03
58.12
63.15
55.28
35.29
7.65
-21.09
-44.91
-60.27
-67.60
-68.83
-66.84
-63.79
-60.33
-56.03
-50.18
-42.68
-33.50
-24.08
-15.08
-6.64
1.49
9.62
17.66
25.05
30.98
34.83
36.31
35.85
34.00
31.46
28.87
26.84
25.78
25.72
26.19
26.39
25.83
24.43
22.74
21.53
21.10
20.77
18.89
13.70
4.22
-9.07
-24.28
-38.92
-50.70
-58.25
-61.00
-59.09
-52.94
-43.19
-30.79
-17.13
-3.87
7.64
16.69
23.40
28.16
31.38
33.16
33.45
32.30
30.11
27.68
25.90
25.51
26.47
28.22
30.03
31.44
32.57
34.01
36.56
40.80
46.72
53.11
58.13
59.91
57.11
49.41
37.41
22.18
4.30
-13.85
-30.67
-45.07
-56.56
-65.16
-71.16
-74.84
-76.34
-75.60
-72.61
-67.69
-61.30
-53.90
-45.90
-37.42
-28.34
-18.38
-7.32
4.62
16.74
28.31
38.75
47.64
54.92
60.90
66.01
70.50
73.72
74.99
74.16
71.49
67.31
61.85
55.32
47.75
38.93
27.28
12.16
-5.47
-23.65
-40.66
-55.45
-67.54
-76.95
-84.09
-91.80
-101.70
-113.40
-125.37
-136.52
-146.37
-154.57
-160.50
-163.30
-164.71
-165.00
-162.70
-156.40
-146.95
-136.92
-128.53
-122.03
-98.32
-50.81
11.10
71.58
120.88
156.14
178.22
189.83
193.80
191.82
181.29
160.68
131.63
99.14
69.10
46.50
34.23
32.32
38.42
45.93
52.15
56.85
61.57
67.29
73.59
79.08
82.26
82.43
78.82
72.79
67.08
64.73
67.33
74.59
84.99
96.38
107.07
115.24
121.52
125.82
128.31
129.06
128.15
125.92
122.80
119.59
116.93
115.36
114.56
113.85
112.21
108.74
103.10
95.36
86.85
79.65
75.42
73.91
73.34
70.73
63.24
49.43
28.51
2.76
-23.58
-47.18
-67.83
-87.52
-109.22
-134.73
-163.54
-195.97
-228.83
-256.81
-276.84
-290.42
-301.78
-316.26
-337.72
-367.51
-408.77
-457.90
-504.48
-537.09
-548.51
-535.91
-502.18
-454.18
-401.14
-357.68
-329.66
-311.22
-291.67
-262.86
-220.64
-167.54
-110.78
-21.72
88.72
184.59
243.36
271.10
279.25
282.82
284.85
282.55
271.82
249.25
216.52
183.31
160.16
152.21
161.30
185.26
219.43
256.30
282.21
288.33
274.81
246.28
206.91
162.21
117.50
77.48
44.47
15.17
-12.89
-38.67
-49.27
-38.82
-10.63
25.40
60.38
89.15
108.59
117.62
123.04
129.75
137.38
143.21
143.90
137.09
122.81
102.36
78.87
57.08
40.31
28.58
20.36
13.68
7.09
-0.13
-7.95
-15.51
-21.21
-24.12
-24.82
-24.37
-23.85
-24.18
-26.15
-30.39
-37.02
-45.37
-54.39
-63.02
-69.92
-73.78
-73.75
-69.70
-62.26
-52.36
-40.95
-29.08
-17.80
-8.06
-0.53
4.40
6.60
6.11
3.14
-2.00
-9.00
-17.49
-26.91
-36.57
-45.62
-53.13
-58.25
-60.33
-59.16
-55.10
-49.17
-42.69
-36.83
-31.94
-27.28
-20.99
-10.82
4.91
26.30
51.49
76.88
98.04
110.97
113.12
103.86
84.53
57.93
27.70
-2.41
-29.30
-51.21
-68.44
-83.47
-100.00
-121.14
-147.85
-178.25
-208.44
-234.38
-253.67
-266.53
-275.31
-282.70
-289.99
-296.43
-299.90
-298.49
-291.57
-279.68
-264.08
-245.73
-224.57
-199.37
-168.73
-132.24
-91.24
-48.66
-6.99
31.68
66.06
95.75
121.40
143.99
163.91
180.54
192.70
201.21
207.15
210.73
211.22
208.07
201.11
190.35
176.05
159.15
144.38
136.21
135.87
140.67
146.54
149.58
146.86
137.06
121.00
105.30
96.75
98.87
111.14
131.89
159.68
192.65
228.25
239.70
210.59
148.89
78.63
16.99
-30.89
-66.31
-92.46
-112.48
-128.80
-137.94
-138.54
-131.68
-121.48
-111.53
-102.96
-95.21
-87.02
-76.84
-60.16
-36.49
-8.08
19.14
39.34
49.89
50.96
44.64
33.87
22.67
15.59
14.08
16.20
19.64
24.46
31.89
43.27
59.72
81.82
111.69
148.69
188.35
224.28
251.90
268.53
274.41
272.73
246.81
192.12
118.12
40.75
-28.66
-84.54
-125.48
-157.68
-185.51
-212.38
-237.42
-259.65
-274.16
-278.64
-264.52
-230.34
-183.60
-136.60
-99.27
-72.02
-50.12
-28.24
-3.68
24.07
52.19
76.58
93.09
97.53
88.35
65.87
33.16
-4.05
-36.68
-59.80
-69.77
-65.97
-51.64
-31.85
-12.43
2.06
9.27
9.94
6.57
2.48
0.24
0.99
5.01
11.91
21.26
32.34
41.40
46.18
46.15
42.39
37.69
35.91
40.25
51.99
68.84
86.21
99.27
104.34
99.67
85.98
65.93
42.52
18.10
-7.17
-33.81
-61.28
-87.99
-111.64
-129.76
-140.50
-143.48
-134.33
-113.45
-86.41
-59.98
-38.87
-26.31
-24.41
-32.23
-48.38
-69.71
-92.59
-113.50
-130.32
-143.56
-153.04
-158.22
-158.22
-152.04
-138.37
-116.65
-86.88
-50.05
-8.74
33.05
72.70
107.46
134.44
151.99
160.67
163.40
163.72
164.08
165.10
168.98
176.68
187.34
199.02
210.30
221.00
231.55
242.35
233.71
196.95
138.95
76.18
20.96
-22.20
-53.39
-74.44
-87.83
-96.31
-98.67
-95.74
-89.31
-82.12
-75.87
-70.86
-66.70
-63.00
-59.50
-53.40
-44.83
-34.45
-23.61
-12.91
-2.09
9.05
20.10
29.97
38.84
45.51
49.15
49.90
49.31
49.40
51.57
56.02
61.83
68.21
71.86
70.50
64.12
54.71
44.63
35.89
30.39
30.03
36.32
45.85
54.13
57.47
53.12
38.76
13.44
-21.08
-60.67
-100.64
-141.79
-185.31
-230.06
-272.98
-311.47
-343.74
-368.06
-382.55
-360.41
-292.15
-194.53
-96.28
-16.06
41.16
77.40
96.98
104.55
104.13
95.23
78.83
59.58
43.83
35.59
35.21
40.69
49.23
58.02
62.24
59.82
52.63
44.83
39.66
38.24
40.57
46.74
55.76
64.53
70.27
71.54
68.02
59.73
47.51
32.90
20.06
11.55
6.36
1.45
-5.97
-16.63
-28.91
-39.65
-45.83
-46.52
-43.67
-40.87
-40.94
-44.05
-47.58
-47.58
-40.73
-25.41
-3.17
21.67
44.05
59.92
67.53
67.69
63.03
54.27
45.16
37.87
31.94
25.56
17.21
6.67
-4.92
-15.61
-23.38
-27.38
-28.25
-27.94
-28.68
-31.80
-37.17
-43.74
-49.50
-52.42
-50.02
-41.04
-26.28
-8.02
11.05
28.99
44.34
57.53
70.21
82.83
95.58
107.42
116.59
121.83
123.16
120.53
115.22
104.57
90.26
77.61
71.99
74.35
79.81
79.94
65.24
33.44
-13.89
-69.38
-123.50
-168.42
-200.14
-218.69
-216.29
-194.29
-160.06
-123.37
-90.68
-64.32
-43.84
-27.80
-14.99
-5.03
0.09
-0.34
-4.88
-9.53
-10.30
-5.69
2.26
9.42
12.54
10.48
6.83
7.42
16.52
33.10
50.59
60.47
57.26
41.69
19.35
-1.78
-15.73
-20.90
-19.88
-16.88
-14.96
-14.68
-14.88
-14.59
-13.64
-12.69
-12.34
-12.52
-12.38
-10.80
-7.03
-1.52
4.54
9.42
11.67
10.62
6.49
0.30
-6.38
-11.72
-14.34
-13.60
-10.06
-5.18
-0.64
2.40
4.08
5.29
7.08
9.81
12.87
14.94
14.59
11.02
4.40
-4.34
-13.37
-20.21
-22.25
-17.67
-6.72
7.89
21.77
30.66
32.35
27.39
18.49
8.80
0.63
-5.45
-9.27
-11.06
-10.71
-8.01
-3.32
2.23
6.58
8.03
5.81
0.34
-6.84
-13.43
-16.82
-14.75
-6.34
6.85
21.70
34.15
41.20
42.19
38.86
34.12
30.31
28.15
26.84
25.21
22.72
20.00
18.26
18.65
21.41
25.65
29.80
32.36
32.64
30.99
28.52
26.54
26.32
28.66
33.54
39.81
45.10
46.06
39.25
22.59
-3.43
-35.76
-69.16
-97.85
-117.33
-125.47
-122.64
-110.94
-92.36
-70.76
-48.90
-28.84
-12.07
0.57
9.03
14.10
17.19
19.84
23.27
28.18
34.21
40.14
44.30
45.26
42.58
37.11
30.29
23.58
17.95
13.10
7.84
0.91
-8.22
-18.94
-29.58
-38.19
-43.33
-44.10
-41.58
-37.38
-33.07
-29.61
-27.19
-25.32
-23.69
-21.87
-20.05
-19.11
-19.91
-23.05
-28.78
-37.13
-47.90
-60.21
-71.89
-79.31
-78.55
-66.79
-44.08
-14.02
17.37
43.89
61.44
68.79
68.41
63.92
58.24
52.66
47.11
41.22
35.05
29.23
24.56
21.58
20.12
19.68
19.65
19.50
18.94
17.73
15.79
13.31
10.60
7.95
5.58
3.62
2.31
2.36
4.27
8.28
13.50
17.86
18.66
14.01
4.27
-7.82
-17.56
-21.13
-17.10
-6.95
6.28
19.72
31.85
42.60
52.23
60.33
65.16
64.48
56.79
41.98
22.70
2.68
-14.02
-24.01
-25.52
-19.14
-7.74
4.11
11.58
11.09
1.46
-15.81
-37.24
-58.65
-76.50
-88.53
-93.87
-92.14
-84.89
-73.94
-61.16
-48.38
-36.87
-27.19
-19.14
-12.01
-5.09
1.91
8.96
15.61
21.24
25.23
27.15
26.86
24.61
21.02
16.88
13.20
10.84
10.17
11.18
13.43
16.29
19.15
21.60
23.38
24.49
25.09
25.40
25.67
25.99
26.27
26.23
25.35
23.17
19.55
14.67
8.98
3.10
-2.44
-7.22
-10.98
-13.51
-14.69
-14.54
-13.28
-11.21
-8.58
-5.40
-1.52
3.09
7.98
12.17
14.53
14.45
12.33
9.57
7.82
7.94
9.23
9.74
7.34
1.13
-7.87
-17.24
-24.38
-27.76
-27.39
-24.47
-20.31
-15.68
-10.66
-5.00
0.92
6.11
9.56
11.04
11.48
12.17
13.92
16.37
18.04
17.28
13.62
8.48
4.60
4.60
9.05
16.40
24.01
29.47
31.26
29.01
23.17
14.07
1.17
-16.42
-38.30
-61.92
-83.14
-98.02
-103.83
-99.80
-87.29
-69.43
-51.48
-38.61
-33.85
-37.44
-47.49
-60.53
-72.25
-78.43
-70.15
-44.42
-8.17
26.76
51.81
64.14
65.24
59.01
50.11
42.55
37.63
34.85
33.21
31.89
30.37
28.98
28.88
31.29
36.43
42.24
45.93
45.85
42.39
37.50
33.85
33.75
38.04
45.58
52.92
56.00
51.83
39.40
19.83
-3.92
-27.78
-47.67
-60.70
-66.01
-64.45
-57.80
-48.20
-37.77
-28.27
-21.01
-16.67
-15.36
-16.61
-19.44
-22.43
-24.16
-23.56
-20.14
-14.20
-6.84
0.28
5.21
6.43
3.48
-2.71
-9.86
-14.89
-15.00
-8.62
3.87
20.11
36.40
49.23
56.49
58.08
55.78
52.05
48.65
45.68
41.61
34.30
22.34
6.28
-12.24
-30.42
-45.43
-55.39
-59.68
-58.67
-53.23
-44.30
-32.90
-20.31
-8.02
2.37
9.40
12.26
11.11
7.02
1.70
-3.00
-5.62
-5.34
-2.04
3.66
10.59
17.42
22.82
25.76
25.78
23.07
18.62
13.99
10.74
9.82
11.32
14.51
18.27
21.58
23.93
24.37
22.86
19.83
15.93
11.77
7.81
4.19
0.83
-2.60
-6.47
-10.94
-16.04
-21.72
-27.84
-34.25
-40.70
-46.70
-51.52
-54.17
-53.67
-49.60
-42.37
-33.13
-23.29
-13.96
-5.48
2.43
10.21
18.08
25.58
31.84
35.95
37.58
37.11
35.46
33.63
32.21
31.27
30.34
28.76
25.99
21.90
16.87
11.58
6.67
2.53
-0.86
-3.81
-6.79
-10.18
-13.93
-17.44
-19.87
-20.46
-18.87
-15.23
-10.15
-4.48
0.61
4.16
5.65
4.94
2.31
-1.53
-5.28
-7.40
-6.41
-1.90
5.61
14.81
23.79
30.51
33.35
31.53
25.06
14.69
1.08
-14.73
-30.15
-40.89
-43.19
-36.17
-21.59
-3.49
16.97
38.60
59.81
79.03
93.59
101.17
100.81
93.43
81.57
68.60
56.93
47.59
40.09
32.57
22.64
8.30
-11.17
-34.97
-61.11
-87.40
-111.67
-131.93
-146.48
-153.80
-152.72
-142.70
-124.42
-100.05
-73.23
-47.98
-27.53
-13.50
-5.75
-2.78
-2.41
-2.55
-1.65
0.98
5.34
11.02
17.30
23.28
28.15
31.44
33.00
32.86
31.04
27.50
22.44
16.41
10.19
4.78
1.24
0.54
3.09
8.62
16.22
24.74
33.10
40.09
44.79
46.94
47.02
45.78
43.84
41.30
38.12
34.38
29.82
24.13
17.28
9.57
1.20
-8.00
-18.55
-30.69
-40.61
-44.47
-41.31
-33.85
-25.93
-19.86
-15.80
-12.88
-9.82
-5.69
-0.81
3.41
5.88
6.84
6.22
5.33
4.20
2.04
-2.15
-9.59
-21.37
-37.26
-54.86
-70.96
-83.08
-90.87
-95.86
-100.96
-105.02
-108.87
-113.01
-115.92
-114.86
-107.15
-91.27
-67.02
-35.52
0.44
37.83
68.17
83.82
83.52
72.02
55.62
38.81
24.68
11.67
-2.19
-18.00
-34.79
-50.65
-64.02
-73.50
-78.00
-76.39
-67.85
-52.01
-29.68
-2.39
27.23
55.67
79.41
96.23
105.94
110.00
110.65
109.58
107.56
104.05
97.39
85.48
66.82
41.18
9.82
-24.41
-57.66
-85.54
-104.05
-110.72
-105.27
-89.81
-68.20
-45.18
-25.05
-10.94
-4.24
-4.69
-10.76
-20.16
-30.35
-38.84
-43.47
-42.65
-35.53
-22.38
-4.56
15.71
35.89
53.83
68.17
78.50
84.99
88.05
88.02
85.15
79.80
72.63
64.53
56.43
48.95
42.28
36.23
30.55
25.17
20.31
16.39
13.78
12.56
12.49
13.11
14.03
15.14
16.52
18.33
20.66
23.39
26.17
28.54
30.04
30.35
29.51
27.86
25.92
24.31
23.49
23.59
24.36
25.34
25.99
26.28
26.22
25.86
25.12
23.87
22.07
19.88
17.77
16.44
17.05
20.26
25.93
33.36
41.68
50.15
58.27
65.68
72.06
77.71
82.46
85.68
86.70
85.49
82.59
78.83
74.83
70.66
66.80
62.87
57.85
50.63
40.88
29.15
16.50
4.18
-12.37
-33.15
-54.68
-72.94
-86.39
-95.19
-99.98
-100.93
-97.30
-89.10
-76.36
-60.38
-42.52
-25.39
-11.52
-2.81
-0.68
-5.72
-18.28
-36.95
-59.38
-82.60
-103.67
-119.92
-129.20
-130.82
-125.20
-114.84
-102.72
-92.05
-85.43
-84.57
-89.85
-100.01
-113.22
-121.42
-118.29
-102.12
-76.90
-48.77
-22.72
-3.01
11.47
21.40
26.93
27.24
21.93
11.36
-2.47
-16.92
-29.54
-38.32
-42.29
-40.75
-33.91
-22.79
-9.27
3.97
13.74
17.48
14.78
7.42
-0.80
-6.21
-6.74
-2.49
4.79
12.82
19.76
24.78
27.17
26.06
20.02
7.97
-9.74
-30.55
-50.24
-64.47
-70.33
-67.59
-58.39
-46.37
-35.18
-27.40
-23.96
-24.36
-27.05
-29.94
-30.94
-28.26
-20.87
-8.57
7.94
27.42
48.30
68.97
87.89
103.67
115.17
121.74
123.39
120.84
115.39
108.49
101.38
94.76
88.78
83.15
77.46
71.46
65.25
59.14
53.53
48.57
44.22
40.27
36.62
33.42
31.09
30.00
30.23
31.50
33.24
34.97
36.42
37.47
37.76
36.54
32.74
25.49
14.72
1.46
-12.50
-25.25
-35.49
-42.89
-47.95
-51.54
-54.40
-56.89
-59.13
-61.15
-62.99
-64.50
-65.04
-63.42
-58.32
-48.92
-35.50
-19.70
-4.00
9.10
18.07
22.83
24.45
24.39
23.70
22.54
20.46
16.89
11.59
4.88
-2.70
-10.55
-18.32
-25.75
-32.62
-38.67
-43.67
-47.55
-50.39
-52.31
-53.08
-52.07
-48.27
-40.76
-29.11
-13.70
4.30
23.21
41.27
57.03
69.54
78.38
83.48
84.96
82.99
77.80
69.80
59.69
48.46
37.23
26.96
18.15
10.78
4.43
-1.41
-7.11
-12.77
-18.42
-24.11
-29.95
-35.89
-41.41
-45.39
-46.33
-42.89
-34.46
-21.56
-5.77
10.70
25.63
37.28
44.67
47.57
46.30
41.64
34.58
26.30
17.91
10.32
4.00
-1.06
-5.23
-9.06
-12.94
-16.99
-21.07
-24.92
-28.31
-31.03
-32.70
-32.67
-30.05
-24.04
-14.46
-2.02
11.64
24.57
35.33
43.57
50.01
55.96
62.44
69.64
76.82
82.78
86.54
87.86
87.16
85.27
83.12
81.53
80.97
81.25
81.20
78.53
70.49
54.47
29.15
-4.70
-43.99
-84.01
-119.66
-146.56
-161.90
-164.27
-154.15
-133.70
-106.36
-76.19
-47.12
-22.38
-3.77
7.99
13.75
14.79
12.37
7.69
1.95
-3.74
-8.67
-12.41
-18.09
-26.72
-36.89
-45.56
-50.17
-49.76
-44.78
-36.57
-25.63
-13.23
-0.25
12.21
22.80
30.25
33.93
34.32
30.07
22.18
12.30
2.69
-5.03
-10.31
-13.70
-16.22
-18.63
-21.13
-22.87
-23.01
-20.89
-16.76
-11.84
-7.79
-6.03
-7.19
-11.10
-16.79
-23.26
-29.50
-34.66
-37.96
-38.58
-35.75
-28.97
-18.42
-5.00
9.53
23.07
33.84
40.84
44.09
44.45
43.06
40.92
38.62
36.24
33.58
30.40
26.59
22.17
17.31
12.17
6.91
1.66
-3.43
-8.27
-12.79
-17.00
-20.93
-24.53
-27.53
-29.41
-29.38
-26.68
-20.90
-12.31
-1.91
8.70
17.81
24.18
27.29
27.41
25.29
21.75
17.34
12.32
6.72
0.66
-5.61
-11.70
-17.21
-22.01
-26.19
-30.01
-33.68
-37.30
-40.86
-44.29
-47.45
-50.02
-51.38
-50.55
-46.54
-38.69
-27.20
-13.14
1.77
15.69
27.26
35.85
41.51
44.60
45.45
44.12
40.52
34.58
26.58
17.17
7.26
-2.23
-10.62
-17.67
-23.48
-28.39
-32.74
-36.74
-40.47
-43.81
-46.53
-48.18
-48.12
-45.64
-40.19
-31.63
-20.49
-7.93
4.54
15.44
23.73
29.03
31.52
31.72
30.16
27.23
23.13
18.04
12.29
6.42
1.06
-3.24
-6.24
-8.09
-9.23
-10.25
-11.69
-13.94
-17.15
-21.25
-25.81
-30.03
-32.77
-32.82
-29.19
-21.59
-10.53
2.69
16.44
29.18
39.85
48.04
53.81
57.46
59.29
59.52
58.26
55.64
51.86
47.18
41.91
36.34
30.71
25.22
20.05
15.38
11.26
7.58
4.05
0.28
-3.96
-8.46
-12.38
-14.41
-13.24
-8.09
0.82
12.23
24.29
35.19
43.70
49.40
52.50
53.35
52.18
48.98
43.71
36.60
28.26
19.60
11.50
4.54
-1.14
-5.73
-9.56
-12.95
-16.15
-19.44
-23.15
-27.60
-32.79
-38.12
-42.41
-44.10
-41.86
-35.17
-24.57
-11.58
1.81
13.75
22.96
28.80
31.16
30.17
26.11
19.37
10.55
0.49
-9.85
-19.54
-27.90
-34.62
-39.83
-43.95
-47.48
-50.80
-53.99
-56.94
-59.40
-61.15
-61.97
-61.55
-59.38
-54.74
-46.97
-35.84
-21.92
-6.58
8.26
20.77
29.55
33.93
33.92
30.06
23.07
13.71
2.74
-9.03
-20.61
-31.11
-39.87
-46.41
-50.36
-51.59
-50.19
-46.46
-40.83
-33.64
-25.69
-18.14
-12.03
-7.66
-4.38
-0.69
5.35
15.46
30.81
50.72
72.78
93.81
111.12
123.21
129.86
132.01
131.07
128.77
125.48
120.07
110.75
96.16
75.76
49.63
18.28
-20.07
-61.64
-98.46
-122.68
-130.45
-122.23
-101.76
-75.03
-48.76
-28.70
-17.13
-13.48
-15.14
-18.75
-21.40
-21.55
-18.84
-13.38
-5.52
4.46
14.95
22.95
25.29
20.15
7.70
-10.23
-28.69
-43.06
-50.25
-49.72
-43.18
-33.79
-23.45
-13.64
-5.34
1.05
5.21
7.11
6.82
4.58
1.06
-2.65
-5.43
-6.30
-4.50
0.11
7.20
16.21
25.69
34.37
41.19
45.20
45.82
42.93
36.70
27.59
16.41
4.44
-6.48
-14.46
-18.24
-17.49
-12.66
-4.88
4.43
13.22
19.14
21.02
19.63
16.55
13.13
10.26
8.54
8.23
9.21
11.04
13.32
15.73
18.00
19.80
20.85
20.59
18.30
13.51
6.54
-1.25
-7.97
-12.50
-15.03
-16.60
-18.63
-22.21
-27.52
-33.70
-39.22
-42.65
-42.35
-39.01
-34.14
-29.74
-27.66
-28.97
-33.32
-38.86
-43.06
-43.88
-40.97
-35.48
-29.68
-25.55
-24.08
-25.01
-27.25
-29.59
-30.15
-27.40
-19.84
-6.68
11.71
33.34
54.88
72.42
83.56
88.11
87.55
84.23
79.95
74.84
67.16
54.37
35.14
10.73
-14.69
-35.67
-47.80
-50.01
-44.97
-37.37
-31.11
-27.17
-23.83
-18.57
-10.71
-2.24
2.82
0.90
-8.74
-23.01
-35.98
-41.46
-35.50
-18.20
6.49
32.05
51.66
60.72
58.23
46.80
30.64
13.86
-1.33
-14.71
-26.36
-35.62
-40.04
-35.90
-20.08
6.71
40.27
72.96
96.47
104.82
96.32
73.82
42.16
9.29
-18.95
-39.53
-52.15
-58.16
-59.55
-58.01
-54.57
-49.72
-43.76
-37.66
-32.59
-29.67
-29.28
-30.86
-33.18
-35.04
-35.88
-35.79
-35.30
-34.38
-32.14
-27.22
-18.76
-7.20
5.65
17.30
25.74
29.97
30.29
27.89
24.14
20.08
16.31
13.12
10.65
8.97
7.99
7.39
6.92
6.33
5.41
3.97
2.29
1.01
0.88
2.08
3.72
3.87
0.46
-7.44
-18.34
-28.46
-33.16
-29.12
-16.01
2.83
22.23
37.31
45.33
46.24
41.95
34.98
27.57
21.26
17.03
15.46
16.57
19.62
23.24
25.69
25.66
23.00
18.81
14.93
13.44
15.95
22.71
32.24
41.10
44.32
36.85
15.74
-17.58
-56.51
-90.79
-110.21
-108.76
-87.41
-53.38
-16.77
13.77
34.24
45.57
51.34
54.91
57.73
59.18
58.40
55.25
50.68
46.03
42.18
38.76
34.38
27.28
15.72
-1.16
-23.14
-48.35
-73.35
-93.77
-105.73
-107.34
-99.05
-84.91
-69.54
-56.59
-47.54
-41.89
-38.26
-35.76
-34.09
-33.45
-33.70
-33.61
-31.34
-25.53
-16.09
-4.67
5.90
12.87
14.86
12.40
7.95
4.70
5.02
9.48
16.70
24.04
29.03
30.40
28.36
24.25
19.69
15.82
13.31
12.95
15.56
22.17
33.14
47.30
61.98
73.80
80.00
79.26
73.17
64.26
55.02
46.88
39.93
33.51
26.97
20.19
13.35
6.97
1.21
-3.94
-8.53
-12.39
-15.17
-16.51
-16.41
-15.40
-14.36
-14.51
-16.66
-20.92
-26.70
-33.08
-39.16
-44.23
-47.70
-49.01
-47.85
-44.49
-39.83
-35.30
-32.14
-30.83
-30.62
-30.15
-28.07
-23.83
-17.82
-11.10
-4.81
0.37
4.36
7.62
10.61
13.74
17.08
20.32
22.73
23.39
21.69
17.78
12.61
7.65
4.25
3.04
3.69
5.19
6.45
6.77
6.24
5.52
5.55
6.90
9.47
12.35
14.26
13.99
10.81
4.88
-2.87
-10.81
-16.97
-19.47
-17.24
-10.34
-0.25
10.38
18.71
22.68
21.62
16.97
11.51
7.92
7.65
10.55
15.23
20.00
23.50
25.08
24.96
23.25
19.91
14.81
7.95
-0.35
-9.35
-18.18
-25.53
-30.81
-33.65
-33.68
-30.58
-24.34
-15.74
-6.45
1.19
5.01
3.89
-1.68
-9.81
-18.16
-24.93
-29.44
-31.96
-33.11
-33.36
-32.83
-31.49
-29.52
-27.61
-26.75
-27.73
-30.47
-33.91
-36.20
-35.49
-30.73
-22.26
-11.82
-1.87
5.34
8.69
8.38
5.90
3.26
2.17
3.28
6.09
9.23
11.34
11.88
11.29
10.86
11.79
14.67
19.15
24.57
30.36
36.46
43.17
50.44
57.88
64.75
70.33
74.26
76.60
77.48
76.38
73.27
67.53
58.75
46.95
32.78
17.32
2.08
-11.32
-21.56
-27.78
-30.30
-30.22
-29.05
-27.99
-27.47
-27.05
-25.80
-23.09
-18.89
-14.09
-10.18
-8.42
-9.38
-12.76
-17.54
-22.34
-25.88
-27.13
-25.58
-21.08
-13.56
-3.42
8.26
19.67
28.51
32.73
31.44
25.33
16.56
7.95
1.67
-1.43
-1.98
-1.45
-1.03
-1.35
-2.43
-4.03
-6.07
-8.81
-12.58
-17.37
-22.60
-27.26
-30.34
-31.29
-30.29
-28.15
-26.12
-25.29
-26.16
-28.51
-31.57
-34.39
-36.31
-37.27
-37.69
-38.39
-40.22
-43.78
-49.16
-55.65
-61.61
-64.57
-62.09
-52.74
-36.97
-17.23
2.63
18.75
28.55
31.66
29.54
24.74
19.91
17.11
17.55
21.48
28.25
36.44
44.39
50.42
53.50
53.55
51.29
47.78
43.87
39.94
36.08
32.56
29.85
28.53
28.98
31.18
34.71
39.17
44.58
50.03
55.37
60.56
65.46
69.85
73.46
76.25
78.32
79.84
80.88
81.45
81.13
79.15
74.44
65.81
52.26
33.43
10.03
-16.04
-41.84
-64.31
-81.15
-91.55
-96.32
-97.30
-96.55
-95.38
-94.11
-92.08
-88.47
-82.84
-75.48
-67.13
-58.53
-49.93
-41.04
-31.48
-21.20
-10.84
-1.47
6.03
11.58
16.09
20.95
27.31
35.48
44.84
54.28
62.88
70.44
77.52
85.18
94.35
105.49
118.32
131.82
144.50
154.79
161.53
164.44
164.31
162.54
160.34
157.73
153.02
143.22
125.17
97.01
59.23
14.71
-32.48
-78.54
-121.36
-160.92
-198.79
-237.20
-278.39
-324.07
-375.10
-430.76
-487.90
-540.68
-581.35
-602.30
-598.59
-569.68
-519.45
-454.69
-382.51
-308.34
-235.29
-164.68
-97.15
-33.31
26.27
81.61
133.67
184.16
234.89
286.66
338.73
388.76
433.38
469.30
494.50
508.86
514.41
514.70
513.66
514.47
518.72
526.29
535.85
545.65
554.14
560.08
562.32
559.36
549.43
530.83
502.71
465.73
422.17
375.33
328.58
284.37
243.74
206.52
171.95
139.39
108.63
79.93
53.56
29.56
7.53
-13.19
-33.21
-52.77
-71.65
-89.28
-105.10
-118.93
-131.12
-142.52
-154.13
-166.66
-180.23
-194.32
-208.01
-220.48
-231.43
-241.38
-251.42
-262.85
-276.58
-292.76
-310.81
-329.72
-348.53
-366.83
-384.85
-403.37
-423.61
-447.18
-475.88
-510.98
-552.08
-595.87
-635.88
-663.78
-671.79
-655.46
-615.15
-555.57
-483.88
-407.08
-330.39
-256.93
-188.36
-125.79
-70.04
-21.49
20.48
57.29
90.58
121.36
149.56
174.32
194.71
210.46
222.54
232.96
244.21
258.40
276.57
298.40
322.48
346.78
369.38
388.89
404.68
416.77
425.63
431.79
435.47
436.38
433.64
426.17
413.04
394.08
369.96
342.11
312.22
281.76
251.67
222.42
194.17
167.09
141.37
117.12
94.18
72.06
50.10
27.74
4.86
-18.19
-40.72
-62.08
-82.05
-101.07
-120.13
-140.47
-163.05
-188.23
-215.72
-244.77
-274.62
-304.88
-335.75
-367.88
-402.14
-439.44
-480.58
-525.99
-575.48
-627.65
-679.63
-727.33
-766.28
-793.02
-806.17
-806.62
-796.74
-778.98
-754.76
-724.26
-687.09
-643.46
-594.77
-543.46
-492.10
-442.50
-395.24
-350.04
-306.56
-265.00
-226.25
-191.57
-161.89
-137.40
-117.50
-101.12
-87.10
-74.60
-63.27
-53.09
-44.21
-36.66
-30.13
-24.10
-17.94
-11.10
-3.30
5.48
15.05
25.24
36.00
47.38
59.53
72.55
86.34
100.59
114.78
128.31
140.57
151.12
159.68
166.15
170.59
173.12
173.84
172.88
170.41
166.58
161.62
155.74
149.18
142.21
135.02
127.74
120.48
113.29
106.23
99.34
92.70
86.41
80.52
75.06
69.96
65.12
60.40
55.69
50.99
46.39
42.07
38.25
35.08
32.61
30.77
29.39
28.39
27.79
27.80
28.79
31.15
35.10
40.58
47.25
54.56
62.05
69.57
77.38
86.06
96.19
108.01
121.12
134.49
146.78
156.86
164.34
169.83
175.68
184.01
195.59
209.88
225.74
241.92
257.47
272.13
286.52
302.92
323.47
349.34
380.63
416.37
454.08
489.41
516.43
528.87
524.31
502.29
464.28
414.38
359.53
307.49
264.00
231.32
208.46
198.98
203.18
216.60
233.25
249.75
264.95
277.88
287.06
291.37
303.89
332.08
371.23
409.94
439.86
457.84
463.73
458.87
445.58
446.73
473.42
515.57
553.40
574.88
579.54
573.32
563.76
557.22
583.87
656.30
758.36
860.78
943.95
1002.71
1039.79
1060.15
902.94
528.64
46.64
-387.75
-697.74
-887.62
-993.51
-1052.38
-1090.77
-1122.81
-1125.86
-1085.04
-1013.26
-935.57
-869.31
-819.75
-785.64
-763.67
-750.24
-721.90
-667.45
-596.93
-529.55
-476.84
-439.42
-412.51
-390.93
-371.21
-339.30
-289.95
-231.51
-177.79
-137.39
-111.48
-97.29
-91.07
-89.56
-84.22
-70.94
-52.61
-35.14
-22.42
-15.08
-12.05
-11.89
-13.38
-13.52
-10.98
-7.03
-3.80
-2.42
-2.56
-3.17
-3.18
-1.98
0.42
3.52
6.68
9.57
12.25
15.13
18.69
23.14
28.17
33.00
36.65
38.46
38.35
36.92
35.20
34.11
34.02
34.52
34.65
33.41
30.20
25.08
18.59
11.50
4.39
-2.68
-10.10
-18.45
-28.30
-39.80
-52.55
-65.54
-77.28
-86.10
-90.56
-89.75
-83.50
-72.44
-57.87
-41.46
-25.02
-10.15
1.90
10.40
15.19
16.62
15.43
12.58
9.10
5.90
3.65
2.55
2.41
2.60
2.25
0.49
-3.34
-9.49
-17.75
-27.55
-38.02
-48.26
-57.44
-64.88
-70.07
-72.53
-71.78
-67.38
-59.10
-47.08
-32.09
-15.40
1.40
16.77
29.63
39.44
46.21
50.23
51.94
51.75
50.03
47.25
43.84
40.16
36.41
32.58
28.52
24.12
19.35
14.34
9.30
4.41
-0.34
-5.16
-10.46
-16.59
-23.65
-31.27
-38.56
-44.33
-47.38
-46.98
-43.08
-36.41
-28.11
-19.42
-11.24
-4.02
2.16
7.36
11.63
14.91
17.07
18.10
18.14
17.45
16.37
15.18
14.07
13.07
12.11
11.06
9.80
8.30
6.58
4.79
3.14
1.97
1.63
2.43
4.40
7.08
9.55
10.68
9.56
5.96
0.58
-5.18
-9.65
-11.53
-10.21
-5.89
0.64
8.25
15.76
22.06
26.27
27.84
26.63
22.94
17.38
10.66
3.48
-3.62
-10.26
-16.16
-21.13
-25.05
-27.99
-30.13
-31.78
-33.18
-34.35
-35.01
-34.65
-32.74
-29.00
-23.53
-16.88
-9.77
-2.93
3.12
8.07
11.77
14.14
15.05
14.41
12.17
8.45
3.59
-1.90
-7.37
-12.24
-16.13
-18.97
-20.96
-22.59
-24.37
-26.68
-29.70
-33.31
-37.26
-41.29
-45.12
-48.43
-50.83
-51.81
-50.85
-47.51
-41.68
-33.66
-24.13
-13.94
-3.95
5.14
12.90
19.09
23.68
26.68
28.16
28.25
27.14
25.07
22.34
19.25
16.04
12.86
9.78
6.85
4.11
1.74
-0.18
-1.63
-2.77
-3.85
-5.17
-6.79
-8.42
-9.44
-9.03
-6.49
-1.46
5.91
14.99
24.77
34.20
42.37
48.68
52.87
55.00
55.36
54.34
52.31
49.63
46.56
43.29
39.91
36.51
33.16
29.93
26.88
23.96
21.05
17.97
14.56
10.74
6.54
2.12
-2.30
-6.44
-9.97
-12.50
-13.68
-13.25
-11.26
-8.05
-4.28
-0.72
2.01
3.64
4.27
4.26
3.93
3.44
2.69
1.55
0.07
-1.29
-1.64
-0.04
4.10
10.61
18.57
26.58
33.22
37.57
39.38
38.91
36.65
32.97
28.04
22.01
15.27
8.58
2.97
-0.60
-1.64
-0.30
2.67
6.30
9.77
12.62
14.81
16.41
17.45
17.77
17.18
15.65
13.40
10.87
8.50
6.56
4.98
3.50
1.81
-0.26
-2.67
-5.25
-7.82
-10.29
-12.71
-15.22
-17.90
-20.76
-23.59
-26.03
-27.61
-27.87
-26.43
-23.19
-18.38
-12.52
-6.32
-0.53
4.28
7.78
9.92
10.81
10.71
9.89
8.61
7.06
5.39
3.68
1.96
0.26
-1.34
-2.74
-3.87
-4.75
-5.48
-6.27
-7.34
-8.83
-10.77
-13.05
-15.45
-17.65
-19.28
-19.95
-19.33
-17.21
-13.61
-8.84
-3.47
1.83
6.39
9.77
11.83
12.73
12.80
12.39
11.75
10.97
10.06
8.99
7.80
6.57
5.37
4.23
3.13
2.02
0.90
-0.21
-1.32
-2.50
-3.91
-5.70
-7.88
-10.26
-12.42
-13.77
-13.78
-12.12
-8.83
-4.31
0.74
5.56
9.53
12.34
13.95
14.57
14.47
13.87
12.88
11.56
9.97
8.18
6.32
4.50
2.78
1.13
-0.52
-2.27
-4.20
-6.40
-8.93
-11.83
-15.05
-18.45
-21.74
-24.52
-26.25
-26.34
-24.32
-20.00
-13.56
-5.60
2.98
11.23
18.36
23.89
27.67
29.83
30.60
30.25
28.95
26.94
24.43
21.74
19.19
17.04
15.43
14.31
13.50
12.77
11.94
10.95
9.87
8.75
7.61
6.30
4.64
2.56
0.18
-2.09
-3.68
-4.13
-3.24
-1.24
1.30
3.67
5.30
5.90
5.52
4.39
2.81
0.97
-1.04
-3.19
-5.48
-7.84
-10.20
-12.49
-14.64
-16.63
-18.43
-20.02
-21.34
-22.35
-23.02
-23.44
-23.81
-24.38
-25.35
-26.69
-28.11
-29.04
-28.81
-26.86
-22.92
-17.08
-9.73
-1.55
6.64
14.04
20.00
24.21
26.79
28.17
28.96
29.59
30.19
30.55
30.30
29.14
26.99
23.97
20.36
16.38
12.20
7.88
3.47
-0.99
-5.40
-9.67
-13.72
-17.48
-20.82
-23.56
-25.44
-26.14
-25.41
-23.18
-19.65
-15.26
-10.64
-6.49
-3.33
-1.40
-0.65
-0.82
-1.55
-2.45
-3.17
-3.46
-3.21
-2.46
-1.38
-0.17
0.97
1.87
2.41
2.59
2.41
1.85
0.89
-0.40
-1.91
-3.51
-5.06
-6.40
-7.07
-6.77
-5.41
-2.99
0.48
5.16
11.14
18.36
26.62
35.95
45.82
55.20
63.03
68.73
72.50
74.90
76.57
78.08
80.34
83.37
86.34
88.25
88.59
87.65
85.93
83.98
82.47
82.94
85.93
90.53
94.58
95.26
89.81
76.30
55.04
23.98
-11.67
-42.33
-59.98
-62.26
-55.35
-46.39
-40.04
-38.08
-39.42
-41.20
-42.16
-43.29
-46.49
-52.92
-62.83
-76.00
-92.15
-111.01
-131.87
-154.42
-177.99
-200.71
-213.07
-206.86
-181.01
-143.62
-106.56
-78.24
-61.35
-53.86
-51.36
-49.37
-45.64
-39.95
-33.08
-25.62
-17.58
-9.27
-1.34
5.59
11.36
15.71
18.72
21.01
23.80
28.40
35.31
43.96
52.89
60.23
63.76
61.96
54.70
43.53
31.10
20.02
11.95
7.19
4.82
3.05
0.23
-4.33
-10.00
-15.17
-17.99
-17.15
-12.38
-4.57
4.46
12.66
18.38
20.71
19.63
15.79
10.34
4.76
0.57
-0.81
1.29
6.49
13.31
19.86
24.61
26.94
27.13
25.67
22.61
17.49
10.28
1.53
-7.37
-14.72
-19.35
-20.83
-19.08
-13.92
-5.13
6.75
19.21
27.73
27.64
16.89
-2.25
-23.67
-40.06
-46.32
-41.78
-29.93
-16.17
-4.93
2.07
5.59
7.50
9.32
11.47
13.31
14.06
13.48
12.01
10.65
10.26
10.91
11.82
11.68
9.32
4.43
-2.04
-8.47
-13.20
-15.11
-13.90
-10.09
-4.64
1.37
7.03
11.70
15.07
17.04
17.64
16.89
14.76
11.19
6.34
0.80
-4.52
-8.54
-10.45
-10.00
-7.48
-3.69
0.49
4.43
7.87
10.86
13.54
16.05
18.52
21.16
24.08
27.36
31.06
35.41
40.80
47.69
56.46
67.14
79.40
92.25
104.35
114.51
122.05
126.97
129.90
131.68
131.98
131.30
129.98
128.26
126.32
124.51
123.39
123.58
125.50
129.04
133.68
138.39
142.14
144.24
144.40
142.46
138.19
131.16
120.97
107.66
91.66
73.73
54.61
34.85
14.81
-4.99
-23.56
-39.58
-51.80
-59.89
-64.57
-67.38
-69.87
-72.90
-76.44
-79.89
-82.71
-84.89
-87.04
-90.08
-94.56
-100.50
-107.39
-114.49
-121.23
-127.27
-132.30
-135.97
-137.80
-137.29
-134.16
-128.56
-121.09
-112.66
-104.14
-96.09
-88.57
-81.34
-74.08
-66.58
-58.84
-50.94
-42.92
-34.86
-26.91
-19.47
-13.24
-8.95
-7.24
-8.41
-12.39
-18.93
-27.75
-38.59
-51.21
-65.17
-79.77
-94.14
-107.50
-119.40
-129.73
-138.81
-147.19
-155.74
-165.68
-178.49
-195.45
-217.17
-243.05
-271.29
-299.27
-324.27
-344.30
-358.31
-366.11
-367.99
-364.45
-356.26
-344.58
-330.93
-316.77
-302.99
-289.37
-274.64
-257.01
-234.95
-207.88
-176.38
-141.96
-106.35
-71.03
-36.77
-3.67
28.72
61.13
94.18
128.06
161.91
193.68
220.19
237.94
244.21
238.29
221.94
199.11
174.78
153.46
138.07
129.49
126.93
128.62
132.61
137.13
140.64
141.81
139.52
133.12
122.77
109.62
95.56
82.60
72.05
64.06
57.74
52.14
46.60
41.14
36.38
33.12
31.51
30.53
28.31
23.01
14.13
2.64
-9.35
-19.21
-24.60
-24.30
-18.54
-8.77
2.86
15.00
26.37
35.66
41.86
44.79
45.10
43.92
42.73
42.81
47.10
56.57
69.45
82.57
93.56
101.68
107.12
111.00
114.28
121.99
136.40
155.25
174.08
189.63
200.78
207.17
209.96
210.51
217.71
236.65
265.18
296.84
326.22
350.82
369.32
382.90
392.79
409.22
436.67
470.06
499.46
517.94
524.16
519.68
509.38
438.97
295.16
113.57
-53.42
-178.13
-260.09
-304.29
-329.39
-345.21
-356.99
-358.04
-344.86
-322.05
-297.22
-275.39
-258.25
-247.07
-241.30
-240.80
-237.78
-227.55
-211.94
-196.58
-185.66
-180.23
-179.78
-181.91
-185.18
-184.55
-178.03
-168.19
-159.77
-156.01
-157.41
-162.43
-168.50
-174.04
-175.75
-171.55
-161.50
-147.03
-129.43
-109.24
-85.38
-57.24
-25.92
7.49
41.62
74.88
105.89
133.90
158.81
182.33
204.60
223.41
235.68
239.05
232.57
216.73
192.98
152.57
97.72
40.09
-7.80
-40.36
-58.92
-67.84
-71.52
-73.47
-75.80
-77.25
-76.55
-74.57
-71.22
-66.79
-61.72
-56.33
-50.92
-45.39
-37.80
-26.87
-12.56
4.90
25.11
47.22
68.91
86.28
95.13
93.69
82.03
61.96
36.97
11.41
-13.55
-36.80
-57.53
-75.20
-89.08
-99.14
-106.35
-108.97
-107.13
-101.61
-93.11
-82.44
-70.38
-57.25
-43.18
-28.25
-12.38
3.73
18.83
31.58
40.60
44.95
44.52
40.05
32.97
25.11
17.59
10.75
4.45
-1.72
-7.98
-14.18
-19.77
-23.97
-25.66
-24.22
-19.45
-11.47
-0.49
13.18
29.01
45.39
58.65
65.45
64.51
57.05
45.33
31.52
17.20
3.54
-8.61
-19.24
-27.96
-34.54
-39.29
-43.08
-46.77
-50.76
-54.87
-57.46
-57.23
-53.13
-45.00
-33.83
-21.43
-9.73
-0.22
6.27
9.49
9.49
6.82
2.23
-3.50
-9.67
-15.54
-20.36
-23.44
-24.29
-23.06
-20.24
-16.89
-14.31
-13.84
-16.29
-21.69
-29.38
-38.20
-47.14
-55.33
-62.18
-67.15
-69.58
-68.63
-63.50
-53.91
-40.32
-24.15
-7.34
8.06
20.48
29.12
34.14
36.52
37.74
39.45
42.90
48.60
56.15
64.39
71.68
76.38
77.31
73.99
66.75
56.41
44.11
31.02
18.19
6.46
-3.55
-11.58
-17.72
-22.22
-25.49
-27.86
-29.32
-29.59
-28.23
-24.79
-19.19
-11.88
-3.61
4.67
12.11
18.07
22.27
24.73
25.74
25.64
24.63
22.94
20.70
17.95
14.74
11.11
7.19
3.22
-0.55
-3.88
-6.52
-8.38
-9.47
-9.93
-9.99
-9.81
-9.41
-8.60
-6.89
-3.67
1.47
8.60
17.24
26.39
34.77
41.26
45.26
46.87
46.85
46.16
45.73
46.04
47.03
48.13
48.60
47.68
44.88
40.02
33.23
24.93
15.72
6.33
-2.44
-9.87
-15.48
-19.20
-21.34
-22.49
-23.18
-23.66
-23.70
-22.66
-19.80
-14.66
-7.36
1.22
9.61
16.11
19.18
17.93
12.35
3.33
-7.63
-18.91
-29.10
-37.23
-42.83
-45.80
-46.28
-44.55
-40.99
-36.04
-30.16
-23.73
-17.00
-10.12
-3.22
3.37
9.17
13.57
16.02
16.26
14.39
10.84
6.39
1.99
-1.49
-3.42
-3.55
-1.95
1.15
5.53
11.04
17.73
25.55
34.13
42.73
50.30
55.78
58.45
58.10
54.98
49.67
42.81
34.96
26.66
18.41
10.74
4.11
-1.18
-5.12
-8.06
-10.63
-13.50
-17.13
-21.57
-26.44
-31.00
-34.38
-35.80
-34.78
-31.22
-25.45
-18.11
-10.02
-2.06
5.05
10.80
14.94
17.47
18.57
18.52
17.61
16.08
14.17
12.01
9.69
7.15
4.25
0.79
-3.32
-7.98
-12.83
-17.39
-21.16
-23.85
-25.42
-25.97
-25.58
-24.15
-21.35
-16.82
-10.36
-2.17
7.15
16.71
25.55
32.86
38.16
41.22
42.07
40.80
37.61
32.76
26.63
19.73
12.65
5.99
0.23
-4.40
-7.89
-10.48
-12.46
-14.14
-15.62
-16.84
-17.60
-17.67
-17.08
-16.10
-15.29
-15.16
-16.01
-17.76
-19.93
-21.78
-22.53
-21.62
-18.84
-14.34
-8.54
-2.01
4.70
11.02
16.47
20.70
23.40
24.48
23.99
22.31
19.99
17.63
15.66
14.29
13.66
13.67
14.14
14.70
15.20
15.59
15.91
16.19
16.49
17.17
18.33
19.80
20.97
21.74
22.38
23.70
26.70
32.34
41.79
55.23
71.83
89.46
106.06
119.28
126.98
127.17
118.53
101.58
77.63
48.66
16.42
-16.57
-47.87
-74.92
-95.46
-112.17
-124.69
-131.56
-127.49
-113.51
-91.73
-66.69
-41.41
-18.35
0.67
15.05
24.32
28.33
26.88
21.21
13.18
5.18
-1.02
-4.50
-4.75
-2.30
1.85
6.29
10.57
14.64
18.79
23.06
27.26
31.17
34.42
36.80
38.22
39.18
40.12
41.37
42.82
44.20
44.98
44.62
42.87
39.70
35.41
30.10
23.73
16.20
7.54
-2.54
-14.38
-28.09
-43.36
-59.52
-75.82
-91.65
-106.75
-117.91
-122.72
-121.44
-117.24
-113.41
-110.87
-108.15
-103.09
-94.42
-82.47
-69.38
-57.64
-48.77
-42.75
-38.59
-35.29
-32.38
-29.71
-26.99
-23.92
-20.02
-14.91
-8.67
-2.22
2.95
5.57
5.45
3.64
1.68
0.84
1.66
3.87
6.67
9.17
10.86
11.62
11.70
11.29
10.60
9.82
9.31
9.42
10.38
12.21
14.63
17.13
19.02
19.74
19.02
17.10
14.59
12.36
11.10
11.18
12.46
14.48
16.77
18.99
21.11
23.27
25.54
27.73
29.43
29.84
28.36
24.85
19.79
14.14
8.98
5.13
2.89
1.95
1.52
0.66
-1.30
-4.67
-9.14
-13.62
-16.47
-15.85
-10.24
1.12
17.24
35.53
52.04
62.38
63.14
53.15
34.18
10.22
-14.08
-35.29
-51.94
-63.93
-71.09
-72.10
-65.03
-49.06
-25.99
-0.50
21.55
35.77
40.76
37.66
28.42
14.60
-3.00
-23.18
-43.34
-59.63
-68.56
-68.53
-60.86
-48.78
-35.52
-23.09
-12.05
-2.41
5.45
10.64
12.52
11.38
8.55
5.57
3.29
1.53
-0.35
-2.92
-6.05
-9.13
-11.45
-12.61
-12.62
-11.66
-10.01
-7.84
-5.59
-3.78
-2.91
-3.10
-3.98
-4.82
-5.16
-5.06
-5.01
-5.62
-6.91
-7.89
-6.93
-2.42
6.53
19.35
34.25
48.89
61.21
69.97
74.90
76.38
74.63
70.82
65.74
60.22
55.00
50.13
44.33
34.96
19.21
-3.89
-31.81
-58.86
-78.13
-84.25
-75.78
-55.87
-30.77
-7.02
11.17
22.57
28.22
29.71
27.76
22.03
11.98
-1.91
-18.05
-33.72
-46.06
-53.31
-55.13
-52.26
-45.91
-37.08
-26.37
-14.44
-2.34
8.53
16.85
21.99
24.39
25.10
24.92
23.70
20.44
14.04
4.64
-5.89
-14.55
-18.40
-15.64
-6.18
8.89
28.04
49.36
70.89
89.95
103.14
107.12
100.05
82.59
57.97
30.72
4.66
-17.91
-36.84
-53.14
-67.58
-79.57
-87.36
-89.19
-83.08
-72.19
-61.08
-53.68
-51.35
-52.60
-54.00
-52.58
-47.48
-40.44
-34.84
-33.03
-35.31
-39.90
-44.24
-45.71
-42.56
-33.77
-19.12
0.52
23.50
47.26
69.11
86.14
96.85
101.30
100.89
97.14
90.50
80.29
64.62
44.06
20.51
-2.04
-19.41
-28.95
-30.94
-28.23
-25.03
-24.60
-27.82
-33.39
-38.30
-40.48
-39.62
-36.98
-33.85
-31.60
-29.55
-25.22
-16.30
-0.69
20.88
45.82
70.73
92.59
109.08
119.17
122.85
118.04
106.51
89.12
66.44
39.48
10.14
-19.13
-45.39
-65.97
-80.55
-88.86
-92.43
-93.30
-93.04
-92.24
-90.73
-87.08
-79.18
-65.56
-45.65
-21.00
5.49
30.50
51.35
66.27
74.07
75.52
71.68
63.54
51.92
38.57
26.19
17.39
12.26
8.77
3.57
-6.97
-24.71
-48.71
-75.44
-100.22
-115.93
-121.10
-117.28
-107.37
-94.05
-79.07
-62.99
-45.94
-28.42
-11.72
1.91
11.35
17.19
21.96
27.97
36.50
46.83
56.50
62.75
63.71
60.32
54.29
49.72
48.54
50.10
52.25
53.04
51.98
49.84
48.08
47.62
48.41
49.28
49.38
48.93
48.97
50.45
53.05
54.86
52.95
44.73
28.96
6.98
-17.68
-40.52
-58.00
-68.32
-71.65
-69.87
-65.52
-61.08
-58.12
-57.07
-57.43
-58.15
-58.25
-56.96
-53.71
-47.92
-38.96
-26.29
-10.20
7.81
25.06
38.42
45.86
47.48
45.53
43.03
42.22
43.24
44.43
43.51
38.70
29.98
18.65
6.32
-6.04
-18.33
-30.96
-44.15
-55.39
-62.21
-62.56
-55.89
-43.71
-29.10
-15.56
-5.68
-0.26
1.49
0.82
-1.30
-4.81
-10.46
-18.99
-30.41
-43.53
-56.18
-65.79
-70.39
-68.91
-61.45
-49.29
-34.65
-20.25
-8.70
-1.84
-0.19
-2.91
-8.00
-12.97
-15.74
-15.23
-11.44
-5.17
2.39
9.99
16.43
20.65
21.79
19.35
13.35
4.54
-5.66
-15.78
-24.89
-32.94
-40.63
-48.78
-57.57
-66.03
-72.11
-73.13
-66.89
-52.51
-30.79
-3.82
25.54
54.44
80.33
101.45
117.27
127.89
133.78
135.41
133.44
128.57
121.53
112.76
102.80
93.14
85.22
80.14
78.30
79.67
83.62
88.82
93.05
94.37
92.92
89.74
86.22
83.22
81.13
79.30
76.03
68.35
53.55
31.41
2.60
-31.65
-69.85
-109.41
-146.20
-171.26
-177.84
-172.23
-160.29
-146.30
-130.91
-116.12
-103.21
-92.46
-83.34
-75.57
-68.76
-60.92
-50.63
-37.30
-21.57
-4.21
13.86
31.69
47.81
60.74
70.43
76.91
80.35
80.88
79.34
76.77
74.22
71.84
68.94
65.08
59.66
52.59
44.42
36.59
30.41
26.86
25.99
27.10
29.83
32.11
32.51
29.67
22.21
8.34
-12.02
-36.63
-62.77
-86.67
-105.39
-118.00
-126.34
-130.18
-131.51
-131.88
-131.51
-129.57
-124.72
-116.52
-105.66
-93.97
-83.44
-75.80
-71.28
-68.87
-67.18
-65.04
-61.97
-58.04
-53.50
-48.31
-42.35
-34.89
-24.96
-11.76
5.10
25.33
47.89
71.07
92.80
110.72
123.12
129.19
129.15
124.16
116.00
106.73
98.39
92.70
90.73
92.88
98.80
107.43
117.28
126.79
134.77
140.59
144.19
145.78
145.57
143.39
138.68
130.60
118.61
102.82
84.10
63.88
43.63
24.43
6.65
-9.90
-25.78
-41.54
-57.67
-74.74
-93.62
-115.46
-141.23
-171.02
-203.30
-234.76
-260.83
-276.80
-279.21
-266.82
-240.96
-205.21
-164.55
-124.24
-88.90
-61.79
-44.45
-36.69
-37.00
-43.35
-53.87
-67.22
-82.20
-97.08
-108.88
-113.48
-106.70
-85.99
-51.94
-8.66
37.23
78.59
109.97
128.92
135.96
133.55
124.64
111.58
96.02
79.21
62.65
48.16
37.56
31.99
31.34
34.25
38.56
42.18
43.83
43.46
41.99
40.72
40.57
41.52
42.57
42.01
38.02
29.47
16.52
0.95
-13.96
-24.17
-25.92
-17.00
2.51
30.12
61.78
93.11
120.63
142.46
158.29
168.74
174.68
176.84
175.69
171.60
165.08
156.71
147.12
136.98
126.97
117.82
110.31
105.16
102.83
103.27
105.82
109.26
112.07
112.80
110.45
104.61
95.43
83.33
68.67
51.60
32.21
10.96
-11.03
-31.90
-49.59
-62.50
-70.21
-73.61
-74.64
-75.45
-77.81
-82.60
-89.87
-99.07
-109.26
-119.36
-128.21
-134.80
-138.52
-139.41
-138.15
-135.87
-133.71
-132.40
-132.21
-133.06
-134.81
-137.37
-140.78
-145.00
-149.97
-155.66
-162.05
-168.82
-174.77
-177.45
-173.34
-159.07
-132.96
-96.46
-54.18
-12.68
21.76
45.16
56.64
57.93
51.79
40.69
26.24
9.48
-8.33
-25.33
-39.40
-48.90
-53.54
-54.43
-53.58
-52.82
-52.91
-53.12
-51.85
-47.62
-40.15
-30.97
-23.01
-19.61
-23.32
-34.94
-53.21
-75.04
-96.19
-112.03
-118.46
-112.73
-94.19
-64.55
-27.60
11.72
48.55
79.12
101.28
114.29
118.46
114.72
104.58
90.13
73.95
58.68
46.37
37.99
33.23
30.71
28.53
24.90
18.65
9.58
-1.48
-12.90
-22.83
-29.90
-33.73
-35.05
-35.35
-36.34
-39.28
-44.71
-52.25
-60.55
-67.30
-69.48
-63.92
-48.40
-22.68
10.95
48.07
83.38
112.28
132.04
142.07
143.33
137.46
126.07
110.60
92.55
73.75
56.20
41.58
30.69
23.24
17.98
13.41
8.42
2.82
-2.77
-7.31
-10.04
-10.99
-11.01
-11.53
-14.03
-19.55
-28.40
-40.00
-52.75
-64.03
-70.63
-69.46
-58.60
-38.13
-10.42
20.52
50.24
75.15
93.31
104.33
108.81
107.52
101.18
90.54
76.79
61.68
47.32
35.49
27.11
22.02
19.11
16.93
14.40
11.18
7.78
5.10
3.91
4.29
5.51
6.23
5.11
1.41
-4.49
-10.95
-15.24
-14.15
-4.87
14.13
42.34
77.05
113.99
148.52
177.10
198.20
212.45
221.74
228.04
232.39
234.70
234.21
230.20
222.51
211.55
198.00
182.54
165.74
148.27
130.91
114.35
98.62
82.72
64.63
42.03
13.33
-21.42
-60.34
-100.41
-138.60
-172.94
-202.81
-228.25
-248.82
-262.85
-267.57
-260.48
-241.02
-211.59
-177.24
-143.98
-116.55
-96.88
-84.04
-75.53
-69.22
-64.60
-62.84
-65.62
-73.65
-85.69
-98.81
-109.63
-115.93
-117.73
-117.17
-117.36
-120.74
-127.81
-136.87
-144.97
-149.35
-148.70
-143.60
-136.05
-128.38
-122.47
-119.34
-119.14
-121.11
-123.52
-123.56
-117.70
-102.71
-77.08
-41.98
-1.29
39.54
75.30
102.43
119.61
127.19
126.29
118.06
103.63
84.58
63.32
42.95
26.56
16.23
12.31
13.35
16.72
19.63
20.13
17.74
13.27
8.17
3.63
-0.14
-3.99
-9.37
-17.59
-28.98
-42.56
-55.94
-65.92
-69.27
-63.71
-48.64
-25.47
2.68
31.88
58.47
79.91
95.17
104.35
108.05
106.94
101.57
92.60
81.06
68.45
56.47
46.48
39.10
34.02
30.17
26.31
21.54
15.75
9.56
4.07
0.25
-1.51
-1.65
-1.31
-1.96
-4.92
-11.01
-20.27
-31.67
-43.05
-51.37
-53.51
-47.29
-32.51
-11.23
12.71
34.96
51.99
61.97
64.86
61.83
54.47
44.18
31.98
18.69
5.04
-8.14
-20.04
-29.94
-37.33
-42.02
-44.28
-44.70
-44.08
-43.09
-41.94
-40.42
-38.04
-34.43
-29.76
-24.80
-20.77
-18.92
-20.14
-24.56
-31.42
-39.03
-45.03
-46.88
-42.54
-31.20
-13.62
7.94
30.45
51.05
67.77
79.86
87.49
91.18
91.33
88.11
81.77
72.87
62.50
52.10
43.06
36.27
31.89
29.40
27.87
26.37
24.27
21.44
18.16
14.84
11.79
9.01
6.16
2.75
-1.63
-7.20
-13.99
-21.85
-30.52
-39.44
-47.52
-53.07
-53.97
-48.44
-35.79
-17.07
5.00
26.79
44.88
57.13
63.09
63.72
60.54
54.89
47.49
38.58
28.46
17.86
8.04
0.36
-4.34
-6.14
-6.12
-5.73
-6.16
-7.79
-10.27
-13.06
-15.94
-19.27
-23.76
-29.93
-37.71
-46.46
-55.36
-63.87
-71.81
-78.95
-84.43
-86.45
-82.59
-70.86
-50.70
-23.61
7.10
37.40
63.77
84.11
97.86
105.61
108.31
106.85
101.93
94.27
84.80
74.70
65.20
57.20
51.06
46.61
43.27
40.28
36.89
32.58
27.19
20.90
14.16
7.47
1.16
-4.81
-10.70
-16.95
-23.84
-31.33
-38.94
-45.68
-50.18
-50.94
-46.81
-37.35
-23.23
-6.12
11.63
27.67
40.27
48.65
52.94
53.81
52.05
48.26
42.82
36.04
28.40
20.57
13.35
7.48
3.35
0.89
-0.46
-1.51
-3.01
-5.37
-8.57
-12.27
-16.03
-19.57
-22.90
-26.27
-29.96
-34.18
-39.06
-44.68
-51.06
-57.93
-64.44
-68.97
-69.34
-63.55
-50.69
-31.59
-8.76
14.33
34.48
49.68
59.39
64.21
65.13
62.94
58.06
50.81
41.87
32.45
24.00
17.75
14.20
12.91
12.85
12.73
11.53
8.87
5.05
0.81
-3.10
-6.20
-8.48
-10.24
-12.04
-14.56
-18.34
-23.67
-30.45
-38.10
-45.42
-50.66
-51.45
-46.00
-33.82
-15.90
5.59
27.91
48.48
65.52
78.11
86.84
92.24
94.34
93.13
89.14
83.53
77.73
73.02
69.85
68.95
69.66
70.16
68.74
64.93
59.52
53.84
49.12
45.63
44.32
44.47
43.78
39.67
30.67
16.71
-1.10
-20.43
-46.61
-76.34
-100.34
-110.72
-106.91
-94.20
-79.32
-67.42
-58.67
-53.12
-48.51
-43.31
-37.59
-32.29
-28.08
-24.85
-23.90
-25.00
-27.91
-30.82
-32.63
-33.37
-33.66
-34.00
-34.78
-36.43
-39.00
-42.60
-46.09
-48.54
-49.77
-50.29
-51.01
-53.19
-58.22
-67.17
-80.80
-98.72
-119.65
-141.35
-160.41
-172.69
-174.50
-163.82
-141.00
-108.88
-71.63
-33.53
2.16
34.10
62.27
86.78
107.21
122.76
132.62
136.48
134.74
128.26
118.57
106.81
93.08
76.92
58.45
39.00
20.75
5.80
-4.73
-10.20
-11.35
-10.58
-11.07
-14.92
-22.38
-32.05
-41.69
-48.84
-49.91
-42.06
-24.61
0.64
30.80
63.00
94.84
124.66
142.80
142.28
124.74
98.65
71.18
45.26
21.44
-0.02
-18.56
-33.77
-44.47
-50.18
-51.89
-51.75
-51.37
-51.56
-52.74
-55.33
-59.77
-65.11
-70.52
-75.02
-78.75
-81.78
-84.09
-85.38
-85.22
-83.03
-77.59
-67.93
-54.12
-37.51
-19.58
-1.86
14.25
27.62
37.47
43.93
47.79
50.36
50.77
49.57
47.56
45.39
43.42
41.85
41.01
41.26
42.64
44.49
45.82
45.22
41.52
34.46
24.94
14.55
4.80
-3.55
-10.90
-18.21
-26.73
-37.27
-49.65
-62.51
-73.72
-80.93
-82.26
-76.81
-64.91
-48.36
-29.97
-12.71
1.15
10.37
14.87
15.50
13.84
11.72
10.74
11.93
16.01
23.52
34.34
47.50
61.33
73.98
83.69
88.99
88.91
83.59
74.38
62.82
49.69
35.09
18.83
0.92
-18.10
-37.01
-53.38
-63.73
-65.11
-56.33
-37.76
-10.66
23.28
61.77
97.83
121.26
125.48
111.74
86.42
56.26
26.18
-0.85
-23.56
-42.12
-57.69
-69.87
-78.06
-82.59
-84.57
-85.26
-85.73
-86.81
-86.61
-83.57
-75.73
-61.91
-42.62
-19.83
3.61
24.61
40.36
48.67
48.37
39.73
23.67
1.18
-26.55
-57.63
-89.20
-117.56
-138.78
-149.61
-147.85
-133.05
-106.73
-71.78
-31.85
9.24
47.70
79.94
102.96
115.15
116.64
109.34
96.56
82.25
70.07
62.61
60.80
63.90
70.03
76.65
81.21
81.52
76.15
64.76
47.94
27.04
3.86
-19.32
-40.08
-56.30
-66.65
-70.82
-69.03
-62.26
-51.85
-39.21
-25.25
-10.54
4.37
18.57
30.80
40.29
46.19
47.55
43.50
33.86
19.08
0.14
-21.83
-45.76
-69.32
-89.11
-102.25
-108.35
-108.88
-105.55
-99.04
-89.01
-74.73
-54.42
-28.16
4.13
40.83
79.30
116.47
149.25
175.10
184.55
175.80
152.18
120.05
85.81
54.58
29.30
10.62
-2.59
-12.54
-20.15
-26.55
-32.65
-39.14
-46.13
-53.30
-60.57
-67.45
-73.34
-76.61
-76.48
-73.03
-67.30
-60.69
-54.45
-49.37
-45.55
-42.55
-39.18
-34.82
-29.58
-24.27
-19.83
-16.94
-15.77
-16.44
-18.62
-21.54
-24.74
-28.11
-31.86
-36.15
-40.75
-44.95
-47.64
-47.57
-43.82
-36.23
-25.48
-12.84
0.22
12.42
22.85
30.97
36.57
39.64
40.32
38.99
36.25
32.87
29.65
27.18
25.72
25.14
24.98
24.59
23.39
21.07
17.62
13.37
8.76
4.19
-0.04
-3.75
-6.91
-9.56
-11.86
-14.03
-16.30
-18.68
-20.83
-22.02
-21.43
-18.48
-13.19
-6.17
1.54
8.91
15.23
20.24
23.99
26.57
28.03
28.33
27.46
25.52
22.77
19.54
16.20
13.19
10.96
9.90
10.18
11.67
13.92
16.30
18.30
19.64
20.32
20.54
20.48
20.15
19.34
17.78
15.19
11.43
6.54
0.82
-5.09
-10.23
-13.43
-13.57
-9.99
-2.82
6.99
17.90
28.26
36.81
42.94
46.65
48.28
48.22
46.75
44.07
40.42
36.19
31.80
27.59
23.71
20.08
16.52
12.88
9.16
5.46
1.99
-1.06
-3.58
-5.58
-7.23
-8.80
-10.61
-12.88
-15.66
-18.81
-22.09
-25.30
-28.37
-31.31
-34.05
-36.29
-37.44
-36.82
-33.90
-28.51
-20.97
-11.92
-2.13
7.69
16.99
25.31
32.20
37.20
39.96
40.35
38.49
34.74
29.63
23.62
17.07
10.17
3.07
-4.00
-10.71
-16.52
-20.91
-23.47
-24.13
-23.16
-21.21
-19.21
-18.14
-18.78
-21.50
-26.08
-31.81
-37.55
-42.03
-44.04
-42.75
-37.81
-29.43
-18.34
-5.68
7.14
18.74
28.11
34.74
38.65
40.25
40.16
39.25
38.27
37.79
38.16
39.63
42.39
46.55
52.01
58.59
66.23
74.64
82.99
90.08
94.73
96.23
94.51
90.07
83.79
77.16
71.17
65.84
60.33
53.72
45.57
36.08
25.97
16.24
8.72
4.88
5.21
9.05
14.84
20.44
23.30
21.02
8.21
-16.13
-47.31
-77.28
-100.10
-114.50
-122.46
-126.66
-128.80
-129.16
-126.47
-119.69
-108.90
-95.42
-80.94
-67.06
-55.22
-46.62
-41.97
-40.57
-41.02
-41.84
-42.11
-41.51
-40.31
-39.06
-38.30
-38.22
-38.28
-37.72
-35.75
-31.48
-23.90
-12.22
3.31
20.93
37.64
50.82
58.49
60.19
56.91
50.32
41.96
32.69
22.85
12.86
3.57
-3.91
-8.72
-10.78
-10.80
-9.93
-9.15
-8.94
-9.25
-9.83
-10.46
-10.96
-11.20
-11.04
-10.32
-8.99
-7.22
-5.41
-4.01
-3.19
-2.66
-1.70
0.44
4.30
9.93
17.08
25.78
35.68
46.35
57.13
66.96
74.37
77.86
76.50
70.34
60.50
48.61
36.28
24.55
13.88
4.37
-3.97
-11.22
-17.74
-24.35
-32.20
-42.12
-54.08
-66.98
-79.10
-88.86
-95.60
-99.84
-102.89
-106.26
-110.82
-116.50
-122.19
-126.00
-125.68
-119.23
-105.51
-84.88
-59.43
-32.59
-8.35
9.91
20.21
22.43
18.05
9.63
0.14
-7.54
-10.89
-8.05
1.83
18.35
39.78
63.37
85.92
104.64
117.74
124.75
126.34
123.86
118.71
111.79
103.32
92.84
79.63
63.08
43.16
20.73
-2.36
-23.44
-39.56
-48.20
-47.99
-39.09
-22.99
-1.98
21.60
45.86
69.42
91.11
109.54
123.01
129.91
129.38
122.06
110.02
96.33
83.92
74.63
68.70
64.91
61.30
56.02
47.89
36.53
22.16
5.29
-13.40
-33.10
-52.76
-71.33
-87.91
-102.02
-113.53
-122.16
-126.93
-125.94
-116.91
-98.28
-70.43
-36.19
-0.20
32.60
58.68
76.97
88.60
95.72
99.92
101.26
98.32
89.30
73.29
50.94
24.26
-4.31
-32.81
-60.04
-85.26
-107.51
-125.40
-137.57
-143.54
-144.30
-142.15
-139.80
-139.39
-142.01
-147.91
-156.82
-167.99
-179.70
-188.69
-190.29
-179.69
-153.92
-113.59
-63.22
-9.92
39.00
78.27
105.84
122.47
130.40
131.85
128.28
120.46
109.13
95.52
81.47
68.96
59.38
53.00
48.94
45.66
41.75
36.53
30.15
23.44
17.30
12.25
8.14
4.16
-0.84
-7.91
-17.57
-29.58
-42.94
-56.06
-66.95
-73.48
-73.69
-66.27
-50.95
-28.88
-2.47
25.09
50.55
71.23
85.38
92.05
91.00
82.51
67.54
47.85
25.90
4.29
-14.94
-30.90
-43.93
-55.12
-65.62
-76.16
-86.88
-97.42
-107.16
-115.34
-121.16
-124.04
-123.85
-121.29
-118.06
-116.47
-118.70
-125.64
-136.13
-146.73
-152.58
-148.80
-132.35
-103.10
-64.02
-20.19
22.84
60.57
90.43
111.70
124.87
130.80
130.38
124.58
114.78
102.86
90.97
80.97
73.83
69.34
66.33
63.30
59.12
53.50
47.05
40.79
35.67
31.94
29.10
26.17
22.12
16.31
8.66
-0.42
-10.13
-19.42
-27.01
-31.41
-31.22
-25.47
-14.03
2.13
21.14
40.73
58.91
74.36
86.57
95.59
101.65
104.95
105.58
103.72
99.80
94.45
88.35
81.96
75.43
68.64
61.43
53.78
45.91
38.27
31.25
25.07
19.60
14.49
9.21
3.31
-3.56
-11.61
-20.92
-31.42
-42.74
-54.06
-64.01
-70.83
-72.85
-69.09
-59.69
-46.02
-30.23
-14.63
-1.02
9.61
16.94
21.06
22.06
20.01
15.10
7.90
-0.55
-8.81
-15.59
-20.00
-21.96
-22.14
-21.66
-21.53
-22.18
-23.24
-23.76
-22.65
-19.35
-14.15
-8.22
-3.09
-0.10
0.10
-2.30
-6.37
-10.75
-13.94
-14.55
-11.54
-4.47
6.31
19.74
34.47
49.42
64.17
78.79
93.13
105.92
114.33
114.55
103.00
77.94
40.38
-5.82
-54.86
-100.52
-137.45
-162.20
-173.53
-172.33
-161.13
-143.33
-122.40
-101.17
-81.57
-64.67
-51.08
-41.24
-35.43
-33.65
-35.33
-39.16
-43.21
-45.30
-43.41
-36.20
-23.39
-5.78
14.98
37.12
59.31
81.10
102.56
123.48
142.53
156.99
163.59
159.95
145.98
124.40
100.05
78.33
63.45
57.25
58.91
65.73
74.32
81.81
86.58
88.41
88.00
86.30
83.87
80.61
75.87
68.84
58.83
45.40
28.41
8.07
-14.75
-38.25
-59.90
-76.93
-87.31
-90.56
-87.99
-82.08
-75.49
-70.29
-67.57
-67.85
-71.16
-77.16
-84.97
-93.05
-99.31
-101.71
-99.07
-91.74
-81.84
-72.35
-65.97
-64.10
-66.42
-71.18
-75.99
-78.73
-78.16
-74.33
-67.98
-59.95
-51.03
-42.02
-33.87
-27.66
-24.34
-22.52
-20.91
-18.15
-12.79
-3.52
10.57
29.34
51.31
73.67
94.56
111.80
123.46
128.76
128.15
122.90
114.53
104.51
94.24
82.35
69.08
55.12
41.38
28.61
17.22
7.29
-1.24
-8.31
-13.61
-16.56
-16.95
-15.04
-11.77
-8.57
-6.99
-8.14
-12.38
-19.23
-27.53
-36.12
-44.10
-50.76
-55.55
-57.87
-57.12
-52.81
-44.92
-33.84
-20.72
-7.03
5.73
16.39
24.39
29.72
32.86
34.43
34.96
34.60
33.19
30.52
26.58
21.70
16.41
11.20
6.26
1.51
-3.30
-8.35
-13.56
-18.59
-23.09
-26.96
-30.38
-33.71
-37.20
-40.82
-44.21
-46.87
-48.34
-48.47
-47.30
-45.02
-41.76
-37.44
-31.93
-25.28
-17.82
-10.25
-3.38
2.14
6.02
8.30
9.11
8.53
6.62
3.57
-0.05
-3.36
-5.34
-5.32
-3.37
-0.29
2.65
4.21
3.70
1.11
-2.97
-7.63
-12.07
-15.73
-18.46
-20.43
-22.08
-23.89
-26.23
-29.23
-32.62
-35.79
-37.88
-38.06
-35.77
-31.00
-24.25
-16.37
-8.30
-0.83
5.44
10.15
13.15
14.48
14.52
13.90
13.45
13.85
15.42
17.94
20.73
22.96
24.03
23.77
22.44
20.52
18.45
16.57
15.02
13.83
12.93
12.05
10.79
8.69
5.47
1.27
-3.22
-7.01
-9.02
-8.67
-6.03
-1.90
2.49
5.85
7.30
6.49
3.65
-0.64
-5.62
-10.53
-14.57
-16.95
-17.01
-14.39
-9.27
-2.44
4.89
11.51
16.67
20.38
23.15
25.65
28.25
30.85
32.97
34.14
34.12
33.00
31.14
28.99
27.12
26.19
27.02
30.39
36.60
45.12
54.26
61.58
64.50
61.23
51.45
36.44
18.73
1.38
-12.81
-21.94
-25.29
-23.26
-17.14
-8.67
0.27
8.03
13.47
15.96
15.43
12.18
6.74
-0.29
-8.34
-16.84
-25.33
-33.37
-40.58
-46.61
-51.11
-53.82
-54.59
-53.40
-50.34
-45.50
-38.86
-30.38
-20.07
-8.25
4.36
16.72
27.77
36.67
43.06
46.96
48.62
48.28
46.16
42.56
37.97
33.07
28.54
24.80
21.93
19.65
17.59
15.41
12.94
10.05
6.61
2.57
-1.95
-6.37
-9.68
-10.68
-8.52
-3.10
4.70
13.38
21.39
27.71
32.06
34.67
35.82
35.40
32.87
27.58
19.26
8.38
-3.85
-15.90
-26.47
-34.84
-40.98
-45.26
-48.04
-49.44
-49.31
-47.38
-43.61
-38.30
-32.12
-25.97
-20.72
-17.09
-15.45
-15.76
-17.48
-19.55
-20.66
-19.49
-15.18
-7.64
2.46
13.86
25.13
35.08
42.96
48.44
51.44
52.03
50.41
46.87
41.89
36.07
29.95
23.97
18.32
13.03
8.01
3.22
-1.29
-5.39
-8.91
-11.65
-13.52
-14.51
-14.84
-14.94
-15.43
-16.97
-20.05
-24.90
-31.27
-38.52
-45.64
-51.49
-55.01
-55.50
-52.79
-47.26
-39.73
-31.18
-22.51
-14.38
-7.12
-0.85
4.34
8.36
11.17
12.89
13.81
14.36
14.89
15.57
16.25
16.62
16.36
15.30
13.55
11.35
8.98
6.60
4.21
1.67
-1.17
-4.45
-8.18
-12.22
-16.29
-19.87
-22.25
-22.64
-20.37
-15.09
-6.89
3.60
15.38
27.17
37.74
46.08
51.61
54.17
54.05
51.84
48.25
43.98
39.56
35.34
31.46
27.83
24.15
20.03
15.14
9.37
2.91
-3.88
-10.50
-16.55
-21.80
-26.29
-30.19
-33.61
-36.49
-38.62
-39.63
-38.92
-35.71
-29.35
-19.64
-6.99
7.56
22.51
36.07
46.65
53.32
56.04
55.43
52.24
47.12
40.55
32.96
24.47
15.21
5.38
-4.67
-14.70
-24.74
-34.84
-44.83
-52.45
-55.18
-52.18
-45.44
-38.37
-33.68
-32.35
-33.72
-36.02
-37.26
-36.09
-32.04
-25.32
-16.60
-7.04
1.64
7.56
9.33
6.70
0.52
-7.49
-15.44
-21.90
-26.31
-29.04
-30.79
-31.88
-32.14
-31.33
-29.50
-27.10
-24.76
-23.00
-22.08
-22.24
-23.41
-25.22
-26.79
-26.53
-22.50
-13.49
0.50
17.23
32.60
42.32
43.67
36.63
23.68
8.48
-5.61
-16.50
-23.25
-25.53
-22.91
-15.02
-2.34
13.26
28.58
40.35
45.88
45.76
42.45
38.95
37.25
37.56
38.74
39.18
37.93
35.10
31.69
28.67
26.55
25.38
24.96
25.27
26.32
28.02
29.76
30.49
28.93
24.24
16.57
7.13
-2.29
-10.00
-14.98
-17.11
-16.88
-15.11
-12.59
-9.95
-7.71
-6.43
-6.59
-8.45
-11.98
-16.78
-22.21
-27.57
-32.18
-35.55
-37.47
-38.18
-37.84
-36.63
-34.60
-31.50
-27.03
-21.12
-14.17
-7.19
-1.57
1.53
1.49
-1.39
-5.91
-10.37
-13.04
-12.57
-8.26
-0.25
10.78
23.67
37.05
49.54
59.88
66.96
69.93
68.31
62.05
51.83
38.97
25.16
12.00
0.49
-9.13
-17.26
-24.20
-30.39
-35.80
-40.02
-42.48
-42.87
-41.42
-38.84
-36.15
-34.32
-33.89
-34.71
-36.04
-36.83
-36.24
-34.03
-30.73
-27.44
-25.26
-25.02
-27.04
-31.11
-36.37
-40.91
-41.89
-36.18
-21.74
0.87
28.03
53.89
72.57
80.60
78.18
68.65
56.49
45.31
36.32
29.09
22.68
16.80
12.12
9.81
10.52
13.97
18.97
24.05
28.15
30.90
32.32
32.52
31.37
28.45
23.21
15.29
4.93
-6.70
-17.59
-25.31
-27.66
-23.57
-13.83
-1.18
10.46
17.31
17.02
9.49
-3.30
-18.04
-31.29
-40.60
-45.02
-45.00
-41.84
-37.00
-31.52
-25.90
-20.24
-14.48
-8.86
-3.99
-0.64
0.64
-0.10
-2.19
-4.78
-6.78
-6.96
-4.58
0.22
6.44
12.54
16.97
18.75
17.35
13.43
8.91
5.71
4.85
6.22
8.83
11.18
11.56
7.91
-0.26
-11.01
-21.32
-28.66
-31.93
-31.87
-30.90
-32.44
-38.73
-50.98
-67.66
-85.44
-100.51
-108.92
-107.06
-92.37
-58.99
-12.09
34.38
68.53
86.67
91.36
87.52
79.65
70.62
61.56
51.83
41.73
33.27
28.46
27.75
30.03
33.35
35.78
36.12
33.45
28.59
23.87
21.44
22.02
24.88
28.34
30.54
30.05
25.97
18.98
11.16
4.65
0.53
-1.48
-2.53
-4.06
-7.10
-12.06
-18.29
-24.41
-29.10
-31.86
-32.94
-33.04
-32.94
-33.14
-33.88
-34.95
-35.96
-36.34
-35.72
-33.93
-30.79
-26.11
-19.81
-12.08
-3.45
5.24
12.99
18.86
22.18
22.74
20.70
16.57
10.97
4.59
-1.90
-7.93
-13.06
-17.07
-19.89
-21.66
-22.59
-22.81
-22.26
-20.79
-18.22
-14.59
-10.27
-5.80
-1.89
0.72
1.46
-0.02
-3.81
-9.67
-17.00
-24.78
-31.49
-35.63
-36.22
-33.06
-26.79
-18.54
-9.42
0.03
8.34
14.91
19.54
22.19
22.87
21.66
18.80
14.71
9.85
4.47
-1.19
-7.23
-13.86
-21.13
-28.82
-36.41
-43.25
-48.87
-53.11
-55.95
-57.64
-58.56
-59.14
-59.69
-60.33
-60.79
-60.39
-58.10
-52.72
-43.29
-29.55
-11.99
8.23
29.64
50.69
70.09
86.75
99.92
109.04
113.86
114.54
111.71
106.44
99.98
93.47
87.62
82.60
78.03
73.20
67.25
59.38
49.01
35.97
20.67
4.11
-12.31
-27.18
-39.51
-49.11
-56.47
-62.40
-67.27
-70.61
-71.11
-67.18
-57.76
-43.00
-24.33
-4.01
15.62
32.83
46.72
57.05
63.89
67.28
67.19
63.73
57.40
49.12
40.10
31.48
23.98
17.89
13.05
9.18
6.01
3.45
1.50
0.19
-0.60
-1.16
-1.88
-3.20
-5.45
-8.88
-13.47
-19.00
-24.95
-30.55
-34.88
-37.05
-36.39
-32.66
-26.00
-16.89
-6.01
5.87
17.96
29.47
39.62
47.75
53.38
56.30
56.56
54.41
50.18
44.31
37.27
29.61
21.98
15.00
9.18
4.79
1.85
0.08
-0.95
-1.80
-3.05
-5.23
-8.71
-13.54
-19.31
-25.12
-29.73
-31.86
-30.66
-26.03
-18.70
-9.99
-1.33
6.27
12.42
17.33
21.46
25.15
28.37
30.82
32.19
32.47
31.98
31.24
30.66
30.34
30.03
29.34
27.96
25.92
23.57
21.39
19.71
18.49
17.37
15.88
13.63
10.52
6.81
3.08
0.01
-1.92
-2.43
-1.28
1.58
5.98
11.31
16.70
21.25
24.32
25.14
23.34
19.09
12.91
5.45
-2.77
-11.35
-19.83
-27.65
-34.96
-41.93
-48.31
-53.48
-56.82
-58.25
-58.30
-57.90
-57.98
-60.17
-65.54
-74.09
-84.75
-96.28
-107.88
-119.42
-131.09
-136.93
-132.47
-117.13
-94.91
-71.11
-49.19
-30.41
-14.65
-1.23
10.68
20.78
28.51
33.53
36.01
36.56
35.97
35.15
35.04
36.24
37.94
38.83
38.00
35.57
32.58
30.06
28.34
26.79
24.37
20.08
14.28
8.85
6.27
8.03
13.61
20.79
27.00
30.65
31.40
29.96
27.36
24.36
21.24
18.07
15.07
12.80
11.91
12.61
14.67
17.60
20.84
23.84
26.05
26.79
25.61
22.54
17.99
12.53
6.68
0.80
-4.69
-9.13
-11.84
-11.77
-8.20
-1.56
5.86
11.02
11.35
6.05
-3.46
-14.82
-24.71
-30.35
-30.79
-27.78
-24.12
-22.23
-23.27
-26.97
-33.08
-39.72
-43.90
-42.40
-33.77
-18.36
1.08
19.40
30.81
29.61
15.01
-8.63
-33.76
-53.80
-64.37
-64.14
-54.81
-30.18
5.51
42.79
71.29
89.63
97.53
94.52
82.06
63.55
43.70
25.33
10.77
1.53
-1.70
-0.00
5.09
12.43
20.70
28.72
33.66
32.39
21.76
-0.71
-36.80
-85.52
-141.90
-197.55
-241.22
-262.98
-256.69
-221.70
-162.95
-90.38
-16.89
44.19
82.24
93.59
82.04
57.56
33.21
21.09
27.81
52.34
87.70
117.94
130.13
125.51
114.72
106.44
101.96
96.76
85.43
65.61
40.26
16.25
-0.58
-9.30
-13.59
-19.63
-30.51
-45.90
-63.25
-77.92
-85.23
-83.18
-73.42
-60.79
-50.91
-48.02
-50.44
-57.64
-65.67
-68.44
-61.64
-44.65
-21.61
0.83
16.91
24.04
23.89
21.46
22.13
28.82
42.09
59.61
77.87
93.94
106.48
110.49
105.42
96.72
84.77
69.70
51.87
32.53
12.63
-5.37
-20.21
-31.65
-41.33
-52.44
-64.51
-75.91
-84.56
-88.99
-88.65
-83.91
-75.33
-64.29
-52.85
-42.18
-33.11
-25.92
-20.49
-16.44
-13.38
-10.99
-9.06
-7.28
-4.72
-0.99
3.88
8.56
11.31
10.83
5.76
-4.16
-17.27
-30.06
-38.72
-40.37
-33.90
-20.63
-2.96
15.23
31.69
47.62
66.24
90.01
118.70
149.53
171.05
175.15
156.74
116.78
62.47
3.95
-49.54
-91.16
-116.37
-122.57
-103.83
-63.01
-14.64
25.18
48.34
55.11
50.54
40.64
29.52
19.48
10.01
0.70
-6.94
-10.71
-9.80
-5.31
0.43
4.95
6.88
5.51
1.63
-2.41
-4.29
-3.18
0.24
4.50
8.12
10.38
10.85
9.87
8.66
8.38
9.45
11.51
13.95
16.16
17.86
18.88
19.45
20.33
22.20
24.92
27.38
27.68
23.87
14.92
1.35
-14.71
-30.22
-42.51
-50.38
-53.93
-54.01
-51.47
-46.61
-39.27
-29.33
-17.27
-4.40
7.48
16.72
22.38
24.49
23.90
21.93
19.71
17.94
16.76
15.88
14.90
13.54
11.69
9.36
6.60
3.29
-0.68
-5.39
-10.70
-16.28
-21.60
-26.13
-29.45
-31.27
-31.53
-30.39
-28.17
-25.43
-22.79
-20.88
-20.09
-20.46
-21.58
-22.64
-22.80
-21.54
-19.01
-16.01
-13.66
-12.84
-13.68
-15.34
-16.21
-14.46
-8.95
-0.02
10.41
19.41
24.18
23.08
16.08
4.71
-8.23
-19.05
-23.74
-18.64
-1.66
26.06
59.42
89.81
107.92
107.29
87.61
54.90
18.98
-10.75
-29.06
-36.03
-35.58
-32.46
-29.84
-28.60
-28.35
-28.78
-30.17
-32.98
-36.47
-38.33
-35.55
-26.09
-10.12
9.66
29.02
44.00
52.14
53.25
49.00
41.80
33.92
26.88
21.16
16.75
13.44
10.92
9.02
8.31
9.62
13.31
18.43
22.60
23.21
18.87
10.10
-0.84
-10.47
-16.22
-17.56
-15.93
-14.06
-13.53
-13.89
-13.24
-9.41
0.41
18.47
46.06
82.87
124.94
167.44
205.70
235.93
250.35
244.36
217.77
174.83
122.68
66.07
11.88
-31.59
-58.09
-66.37
-59.05
-42.85
-26.17
-16.63
-23.87
-48.92
-84.72
-122.64
-157.99
-189.19
-218.12
-247.92
-281.55
-327.01
-383.54
-441.17
-487.09
-511.94
-510.02
-481.73
-432.44
-331.02
-189.68
-50.97
50.43
109.43
137.14
152.55
164.34
175.23
186.58
190.62
186.85
178.90
169.23
151.05
121.85
87.70
58.72
39.99
20.12
-5.86
-36.69
-65.64
-87.30
-96.15
-88.88
-65.62
-28.70
9.83
43.33
70.15
92.41
114.02
139.66
171.79
196.53
225.80
248.01
256.51
248.64
225.89
192.90
155.60
118.56
83.66
52.39
20.96
-9.50
-34.78
-51.98
-55.72
-44.52
-24.05
-3.86
9.64
11.76
4.92
-5.68
-15.06
-20.21
-21.27
-20.44
-20.00
-20.18
-21.92
-24.00
-24.98
-24.00
-20.80
-16.48
-12.61
-10.28
-9.21
-9.39
-9.79
-9.39
-7.62
-4.39
-0.57
2.62
4.28
4.35
2.98
0.90
-0.99
-2.00
-1.60
0.34
3.61
7.72
11.60
13.95
13.02
7.84
-1.40
-13.18
-25.24
-35.45
-42.44
-46.04
-46.88
-45.86
-43.56
-40.12
-35.46
-29.65
-23.28
-17.22
-12.65
-10.42
-10.91
-13.69
-17.58
-20.86
-21.89
-19.75
-14.45
-7.22
0.37
6.94
11.86
15.37
18.34
21.69
24.89
28.07
30.54
31.27
29.02
22.92
12.84
-0.65
-16.53
-33.65
-50.78
-67.54
-82.74
-94.82
-102.03
-102.75
-96.07
-82.29
-62.96
-40.51
-17.93
2.53
19.19
31.29
38.95
42.94
44.29
44.18
43.97
42.34
39.65
36.59
33.81
31.67
30.16
28.97
27.79
26.52
25.27
24.80
25.64
27.98
31.61
35.98
40.35
43.99
46.10
45.95
43.22
37.66
29.20
18.07
4.79
-9.77
-24.46
-38.07
-49.55
-57.92
-62.69
-63.89
-61.99
-57.79
-52.25
-46.36
-41.04
-37.05
-34.73
-33.99
-34.28
-34.68
-34.26
-32.36
-28.90
-24.39
-19.73
-15.82
-13.33
-12.43
-12.89
-14.24
-15.95
-17.62
-18.92
-19.59
-19.46
-18.59
-17.19
-15.64
-14.35
-13.48
-12.81
-11.70
-9.23
-4.56
2.71
12.49
24.12
36.59
48.77
59.61
68.20
73.91
76.38
75.57
71.83
65.70
57.82
48.72
38.78
28.25
17.39
6.59
-3.66
-12.79
-20.24
-25.65
-28.84
-29.77
-28.49
-25.03
-19.59
-12.52
-4.25
4.92
14.70
24.88
35.23
45.59
55.84
65.75
75.01
83.40
91.20
98.54
105.20
110.56
114.01
115.22
114.27
111.61
107.96
104.89
103.47
103.89
105.50
107.39
108.79
109.18
108.21
105.64
102.28
98.54
94.18
88.48
80.98
71.83
61.51
50.35
31.58
2.38
-35.43
-76.04
-113.31
-143.28
-164.36
-176.57
-180.94
-179.06
-171.71
-159.90
-145.05
-128.86
-112.86
-98.21
-85.56
-75.12
-66.62
-58.61
-50.03
-41.01
-32.92
-27.69
-26.71
-30.06
-36.39
-43.48
-48.56
-49.99
-47.82
-43.45
-38.72
-35.08
-33.14
-32.74
-33.13
-32.91
-30.69
-25.48
-17.04
-6.00
6.20
17.82
27.32
33.80
37.22
37.95
36.39
32.80
27.40
20.69
13.52
6.97
2.06
-0.59
-1.00
0.40
2.93
5.81
8.34
9.88
9.89
8.12
4.72
0.34
-4.03
-7.31
-8.76
-8.29
-6.59
-4.75
-3.84
-4.25
-5.66
-7.14
-7.76
-7.10
-5.40
-3.27
-1.23
0.88
3.89
8.62
15.16
22.44
28.50
31.19
29.09
22.11
11.57
-0.16
-10.61
-17.88
-21.06
-20.21
-16.27
-10.60
-4.68
0.09
2.87
3.20
1.37
-1.54
-3.94
-4.19
-1.35
4.43
11.01
16.19
18.62
19.10
20.22
25.09
35.41
51.03
69.39
87.18
101.90
111.71
116.13
115.43
110.19
101.39
90.58
79.64
71.18
67.84
69.56
74.54
79.68
82.09
80.42
75.23
67.49
59.46
53.69
50.19
47.88
45.31
41.46
35.89
28.37
15.95
-4.24
-26.39
-49.01
-71.75
-94.55
-117.03
-138.83
-159.71
-183.01
-209.07
-235.58
-261.52
-286.86
-312.47
-339.42
-368.09
-397.17
-426.59
-449.53
-455.26
-436.63
-392.83
-329.24
-254.77
-178.38
-81.98
24.03
116.34
179.90
213.25
221.92
213.41
196.24
179.16
168.91
164.03
162.74
163.48
163.39
159.85
152.25
142.19
132.07
123.44
113.42
101.53
89.66
79.71
72.31
67.25
63.97
61.77
59.78
55.40
48.45
40.74
34.07
29.20
26.11
24.42
23.49
22.68
20.58
17.06
13.06
9.58
7.09
5.57
4.79
4.40
4.09
3.35
2.17
0.96
0.07
-0.46
-0.78
-1.14
-1.74
-2.62
-3.69
-4.83
-5.99
-7.22
-8.70
-10.54
-12.64
-14.62
-15.88
-15.64
-13.55
-9.62
-4.36
1.40
6.88
11.53
15.25
18.31
21.12
24.09
27.58
31.86
36.90
42.17
46.38
47.67
44.27
35.50
22.46
8.04
-4.18
-11.35
-12.40
-8.29
-1.27
6.29
12.75
17.55
20.84
22.78
23.20
21.82
18.64
14.23
9.58
5.60
2.91
1.46
0.62
-0.52
-2.72
-6.26
-10.95
-16.25
-21.65
-26.64
-30.97
-34.78
-38.45
-42.40
-46.80
-51.51
-54.99
-56.93
-57.29
-56.32
-54.31
-51.30
-46.96
-40.69
-32.03
-21.04
-8.31
5.48
19.73
34.02
47.82
60.14
69.61
75.33
75.92
70.55
59.22
42.31
20.62
-4.63
-31.33
-55.94
-75.10
-86.23
-88.36
-82.26
-70.28
-55.36
-40.28
-27.15
-17.01
-10.04
-5.03
-0.27
5.89
14.34
24.87
36.39
47.20
56.30
63.17
67.65
69.65
69.17
66.61
62.96
59.40
56.46
53.32
47.63
36.97
20.44
-0.08
-20.33
-35.54
-42.48
-40.85
-33.04
-23.00
-14.30
-9.12
-7.98
-10.46
-15.93
-23.95
-34.09
-45.41
-56.68
-65.75
-70.74
-70.45
-64.93
-55.32
-43.35
-30.66
-18.18
-6.15
5.69
17.41
28.51
37.91
44.50
47.61
47.38
44.67
40.62
36.26
32.13
28.37
24.88
21.56
18.47
15.69
13.28
11.17
9.18
7.18
5.20
3.44
2.10
1.44
1.69
3.10
5.71
9.23
13.06
16.35
18.20
17.86
15.00
9.85
3.09
-4.47
-12.32
-20.23
-28.23
-36.45
-45.06
-54.19
-64.09
-75.13
-86.60
-98.05
-108.87
-118.31
-125.52
-129.68
-130.27
-127.19
-120.76
-111.65
-100.77
-88.84
-76.12
-62.41
-47.18
-29.85
-10.15
11.72
35.05
58.71
81.48
102.28
120.17
134.37
144.24
149.33
149.53
145.21
137.01
125.91
113.04
99.50
86.19
73.67
62.17
51.61
41.66
31.89
22.00
11.97
1.99
-7.73
-17.07
-26.01
-34.45
-41.97
-47.71
-50.46
-48.97
-42.48
-31.15
-16.20
0.27
15.87
28.44
36.54
39.59
37.74
31.56
21.89
9.75
-3.78
-17.53
-30.43
-41.67
-50.97
-58.55
-65.02
-71.00
-76.82
-82.49
-87.51
-90.96
-91.55
-87.95
-79.21
-65.12
-46.28
-23.80
1.15
27.81
55.78
84.71
113.68
140.90
163.94
180.40
188.76
188.81
181.47
168.30
150.90
130.54
108.30
85.17
62.21
40.44
20.68
3.28
-11.91
-25.43
-37.88
-49.56
-60.35
-69.84
-77.51
-83.12
-86.90
-89.54
-91.75
-93.91
-95.67
-95.94
-93.45
-87.01
-76.03
-60.96
-43.10
-24.12
-5.80
10.55
24.02
34.05
40.75
44.67
46.17
45.08
40.66
31.62
17.29
-1.89
-23.87
-45.03
-61.24
-69.84
-70.60
-65.57
-58.14
-51.04
-45.60
-43.54
-45.00
-48.06
-50.17
-49.58
-44.23
-34.72
-21.46
-4.56
15.99
37.50
57.61
73.97
84.99
90.45
91.30
89.74
87.92
87.03
87.50
89.19
91.40
93.38
94.83
95.71
96.55
97.54
98.33
98.13
96.21
91.79
84.31
73.72
60.44
45.57
30.23
15.34
1.55
-10.60
-20.91
-29.54
-37.02
-44.85
-53.79
-64.03
-75.22
-86.60
-97.07
-105.47
-110.87
-112.91
-111.64
-107.10
-99.24
-88.02
-73.83
-57.92
-42.54
-30.39
-23.61
-22.74
-26.35
-31.88
-36.82
-39.81
-40.82
-40.57
-39.64
-37.89
-34.44
-28.33
-19.18
-7.48
5.62
18.66
30.18
38.96
44.04
45.06
42.42
37.34
31.65
27.13
24.91
24.97
26.13
26.50
24.25
18.28
8.72
-3.01
-14.61
-23.51
-27.59
-25.92
-19.14
-9.21
1.24
9.65
14.29
14.53
10.88
4.74
-2.05
-7.75
-10.98
-11.19
-8.71
-4.73
-0.90
1.05
0.09
-3.88
-10.01
-17.00
-23.74
-29.80
-35.44
-41.12
-46.99
-52.43
-56.14
-56.40
-51.63
-41.00
-24.75
-4.35
17.70
38.01
53.64
62.68
64.71
60.87
53.33
44.72
37.25
32.34
30.41
31.02
33.08
35.24
36.32
35.65
33.39
30.35
27.86
27.36
29.77
35.04
41.56
46.13
44.59
33.42
11.49
-18.72
-51.41
-79.21
-95.87
-98.62
-88.97
-71.72
-52.66
-36.36
-24.86
-17.69
-13.36
-10.43
-8.21
-6.61
-5.58
-4.59
-2.66
1.22
7.35
14.85
21.89
26.34
26.73
22.95
16.35
9.04
3.08
-0.37
-1.33
-0.69
0.38
0.98
0.78
-0.04
-1.06
-1.87
-2.13
-1.69
-0.47
1.52
4.09
6.90
9.47
11.35
12.09
11.62
10.26
8.80
8.29
9.70
13.58
19.81
27.63
35.44
41.69
45.23
45.71
43.60
39.80
35.36
31.20
27.98
25.45
23.16
20.50
17.01
12.38
6.43
-0.78
-8.92
-17.50
-26.97
-37.01
-47.70
-59.13
-71.39
-84.44
-97.95
-111.25
-119.11
-117.93
-106.79
-87.93
-64.92
-41.06
-18.85
-0.10
14.11
23.42
27.60
27.19
23.28
17.45
11.37
6.40
3.50
3.10
5.03
7.88
9.96
9.87
7.11
2.33
-2.81
-6.41
-6.80
-3.07
4.04
12.78
20.64
24.93
23.11
13.78
-2.77
-23.54
-42.81
-53.98
-51.73
-34.55
-5.85
26.89
54.93
71.64
74.97
67.59
54.70
41.38
30.59
22.86
17.34
13.22
10.63
9.89
12.28
18.03
26.07
34.29
40.51
43.46
43.07
40.24
36.20
32.00
27.94
23.75
19.00
13.46
7.35
1.25
-4.05
-7.92
-10.17
-11.28
-12.26
-14.42
-18.80
-25.87
-35.34
-46.20
-57.01
-66.58
-73.58
-77.14
-76.99
-73.19
-66.07
-56.09
-43.85
-30.09
-15.46
-1.51
10.88
20.76
27.50
31.01
31.64
30.09
27.09
23.52
20.24
18.05
17.37
18.21
20.17
22.41
23.92
23.77
21.50
17.24
11.69
5.63
-0.23
-5.35
-9.52
-12.87
-15.77
-18.55
-21.30
-23.94
-26.35
-28.38
-29.57
-29.53
-28.40
-27.06
-26.65
-28.09
-31.69
-37.19
-43.68
-48.94
-50.74
-47.96
-41.27
-32.40
-23.13
-14.68
-7.55
-1.71
4.61
12.99
23.46
34.10
42.35
46.45
45.77
40.69
32.49
25.42
24.94
35.79
60.13
97.32
144.23
195.43
243.96
272.01
266.20
226.91
168.58
108.08
55.54
13.85
-18.33
-43.41
-63.27
-77.01
-84.10
-84.60
-80.75
-75.86
-72.26
-70.99
-71.99
-74.65
-76.89
-76.96
-74.79
-70.93
-67.41
-65.47
-65.22
-65.90
-66.55
-65.55
-61.71
-54.94
-46.52
-38.33
-31.60
-26.88
-24.21
-23.51
-24.22
-25.74
-27.63
-29.61
-31.32
-31.82
-29.90
-24.65
-15.80
-3.78
10.30
24.86
38.14
48.57
55.24
57.97
57.22
53.87
48.95
43.44
38.00
33.01
28.47
24.25
20.14
15.97
11.65
7.14
2.51
-2.09
-6.52
-10.80
-15.13
-19.85
-25.21
-31.12
-36.94
-41.49
-43.26
-40.91
-33.74
-21.98
-6.70
10.43
27.51
42.80
54.88
62.93
66.53
65.57
60.25
51.17
39.32
25.93
12.25
-0.68
-11.98
-21.18
-28.35
-33.84
-37.95
-40.74
-42.05
-41.73
-39.87
-36.57
-32.29
-27.92
-24.39
-22.14
-20.83
-19.50
-16.94
-12.14
-4.22
6.91
20.21
33.97
46.49
56.65
63.94
68.17
66.68
58.16
44.10
28.00
13.06
0.85
-8.29
-14.70
-18.90
-21.33
-21.85
-20.30
-17.10
-13.21
-9.57
-6.76
-5.07
-4.65
-5.72
-8.20
-11.90
-16.78
-22.68
-29.05
-34.70
-38.31
-38.56
-34.46
-26.12
-14.04
-0.69
10.23
15.08
12.06
1.63
-13.29
-28.47
-39.84
-44.91
-43.51
-37.12
-27.67
-16.38
-4.03
8.85
21.48
32.52
40.43
43.95
43.04
37.46
30.03
23.40
18.80
15.85
13.31
10.33
7.01
4.50
4.44
8.09
15.19
24.30
33.55
41.38
47.07
50.56
52.05
51.77
49.72
45.25
37.68
26.63
12.24
-4.80
-23.43
-42.37
-59.68
-73.11
-80.92
-82.50
-78.74
-71.90
-64.90
-59.76
-58.70
-61.68
-66.85
-71.55
-72.99
-69.19
-59.63
-45.35
-29.15
-14.47
-3.88
1.67
3.22
3.59
6.29
14.01
28.03
46.89
67.59
86.72
101.29
109.52
111.08
106.82
97.17
84.89
71.73
59.04
48.13
40.06
35.24
33.12
32.10
30.00
25.21
16.93
6.06
-5.21
-14.44
-20.04
-21.85
-21.01
-19.20
-17.68
-17.22
-17.71
-18.57
-19.27
-19.69
-19.93
-20.21
-20.48
-20.38
-19.52
-17.51
-14.29
-10.11
-5.72
-2.05
0.04
0.08
-1.71
-4.77
-8.27
-11.64
-14.69
-17.67
-20.90
-24.43
-27.90
-30.64
-32.28
-32.85
-32.88
-32.72
-32.41
-31.46
-29.11
-24.74
-18.34
-10.55
-2.35
5.32
11.90
17.22
21.32
24.26
26.03
26.68
26.27
25.06
23.25
20.97
18.20
14.78
10.64
5.89
0.97
-3.53
-6.98
-8.98
-9.42
-8.48
-6.56
-4.10
-1.54
0.67
2.16
2.74
2.46
1.83
1.65
2.85
6.05
11.22
17.54
23.63
28.00
29.55
27.96
23.68
17.80
11.59
6.09
1.86
-1.05
-2.88
-4.03
-4.84
-5.48
-6.02
-6.45
-6.96
-7.70
-8.66
-9.61
-10.39
-11.11
-12.85
-17.75
-27.87
-44.40
-66.14
-89.58
-110.45
-125.30
-132.18
-130.01
-117.98
-95.40
-62.73
-22.40
20.89
61.59
95.65
119.98
133.55
137.38
133.84
125.11
112.73
97.47
79.71
59.83
38.34
16.13
-6.93
-29.25
-49.17
-65.22
-76.37
-82.11
-82.51
-78.28
-70.46
-60.31
-49.00
-37.80
-27.71
-19.26
-12.47
-7.10
-2.91
0.25
2.34
3.30
2.89
1.09
-1.72
-4.62
-6.36
-5.82
-2.28
4.21
13.02
22.89
32.43
40.52
46.45
49.93
50.99
49.85
46.92
42.76
37.91
32.88
28.03
23.57
19.51
15.76
12.16
8.47
4.54
0.24
-4.38
-9.14
-13.81
-18.16
-22.13
-25.76
-29.26
-32.82
-36.60
-40.59
-44.55
-47.98
-50.13
-50.18
-47.52
-41.96
-33.97
-24.53
-14.84
-6.02
1.26
6.74
10.52
12.83
13.89
13.88
13.03
11.66
10.19
9.02
8.38
8.30
8.59
8.95
9.10
8.92
8.45
7.84
7.27
6.84
6.59
6.49
6.43
6.30
5.92
5.05
3.48
1.10
-1.97
-5.27
-8.07
-9.46
-8.67
-5.28
0.57
8.26
16.85
25.33
32.88
39.03
43.65
46.86
48.92
50.02
50.29
49.79
48.54
46.64
44.30
41.85
39.75
38.38
38.02
38.77
40.52
42.98
45.72
48.37
50.65
52.37
53.32
53.17
51.54
48.18
42.98
36.17
28.47
21.02
15.03
11.37
10.31
11.51
14.27
17.59
20.45
22.21
22.72
22.15
20.62
18.10
14.39
9.31
2.56
-6.23
-17.14
-29.80
-43.44
-57.17
-70.13
-81.49
-89.29
-91.37
-87.48
-80.33
-73.90
-71.04
-72.42
-76.71
-81.53
-84.55
-84.42
-81.36
-76.86
-72.81
-70.68
-70.73
-71.43
-69.72
-62.18
-46.63
-23.32
5.22
35.32
63.07
84.78
97.16
97.55
84.59
59.27
25.37
-10.61
-41.09
-60.04
-65.00
-57.43
-41.42
-21.54
-1.40
17.03
32.33
43.39
49.22
49.65
45.81
40.20
35.37
34.06
36.66
41.35
45.25
45.83
42.20
35.35
27.51
20.85
16.53
14.24
12.79
11.05
8.53
5.46
2.38
-0.33
-2.71
-5.13
-8.08
-11.82
-16.17
-20.71
-24.92
-28.82
-32.47
-36.45
-41.45
-47.99
-55.95
-64.49
-72.22
-76.98
-77.49
-72.54
-61.66
-45.40
-25.45
-4.38
15.00
30.47
40.86
46.15
47.23
45.16
40.75
34.67
27.73
21.10
16.08
13.54
13.34
14.57
15.80
15.91
14.56
12.16
9.51
7.28
5.78
4.87
4.34
3.96
3.64
3.39
3.26
3.29
3.57
4.22
5.31
6.99
9.21
11.78
14.49
17.09
19.37
21.16
22.35
22.69
22.24
20.99
18.88
15.70
11.30
5.74
-0.62
-6.91
-12.13
-15.25
-15.77
-14.01
-10.85
-7.39
-4.53
-2.88
-2.41
-3.14
-5.04
-8.15
-12.45
-17.75
-23.58
-29.12
-33.32
-35.10
-33.80
-29.39
-22.68
-15.15
-8.39
-3.66
-1.39
-1.21
-2.18
-3.44
-4.39
-4.79
-4.63
-3.90
-2.60
-0.72
1.68
4.45
7.28
10.00
12.53
14.77
16.69
18.26
19.47
20.38
21.07
21.59
22.11
22.87
23.95
25.53
27.57
29.93
32.31
34.26
35.34
35.49
35.11
34.48
33.91
33.12
31.83
29.88
27.07
23.01
17.08
11.02
5.21
-0.36
-6.67
-14.04
-21.99
-29.95
-37.76
-45.57
-53.62
-62.45
-72.18
-83.34
-94.86
-104.72
-111.71
-116.35
-120.11
-124.34
-129.79
-135.83
-142.08
-146.34
-145.77
-138.78
-125.64
-107.12
-83.50
-54.52
-12.42
38.26
85.36
119.26
137.60
142.44
137.49
126.72
113.39
99.62
85.61
72.74
63.40
59.79
60.72
63.48
64.41
60.22
49.24
31.70
11.35
-6.21
-16.58
-18.47
-13.16
-3.45
8.46
19.57
26.78
28.74
26.04
20.68
15.58
14.31
20.03
34.30
56.22
82.57
109.12
131.65
146.55
151.20
144.53
127.21
101.64
71.33
40.23
11.76
-12.08
-31.01
-46.08
-58.53
-68.96
-76.98
-81.68
-82.12
-78.03
-69.93
-58.91
-46.21
-32.92
-19.97
-8.32
0.98
7.06
9.53
8.87
6.33
3.56
1.94
2.01
3.28
4.58
4.70
3.02
-0.30
-4.51
-8.78
-12.56
-15.80
-18.86
-22.15
-25.81
-29.55
-32.85
-35.31
-36.90
-37.93
-38.92
-40.28
-42.14
-44.22
-46.06
-47.28
-47.84
-48.14
-48.55
-49.35
-50.60
-52.25
-54.16
-56.19
-58.23
-60.16
-61.79
-62.47
-61.48
-58.72
-54.95
-51.46
-49.32
-49.12
-50.80
-53.80
-56.67
-57.72
-56.34
-53.30
-49.95
-47.26
-45.51
-44.29
-42.82
-39.31
-32.17
-21.88
-11.45
-4.59
-3.57
-8.46
-17.27
-26.88
-32.81
-30.72
-18.69
2.50
31.39
67.28
109.94
158.49
201.70
224.45
221.05
198.95
168.90
138.01
109.66
85.14
64.59
47.60
34.83
27.38
24.80
24.44
23.43
20.32
15.31
9.70
4.93
2.77
4.37
8.83
13.33
15.10
12.96
7.66
1.04
-4.89
-8.14
-7.34
-2.73
3.49
8.67
9.77
4.78
-6.49
-21.96
-36.96
-45.43
-42.31
-26.02
0.62
30.91
55.95
68.62
66.84
54.01
36.69
20.92
9.32
0.92
-7.12
-16.81
-27.50
-36.32
-40.36
-38.75
-33.49
-28.32
-26.45
-28.67
-32.99
-35.92
-34.73
-28.78
-19.74
-10.66
-4.68
-3.91
-8.89
-18.70
-30.93
-42.63
-50.93
-53.78
-50.57
-42.22
-30.83
-18.85
-8.27
-0.04
5.82
9.79
12.29
13.46
13.27
11.81
9.55
7.40
6.39
7.32
10.35
14.90
19.88
24.04
26.32
26.14
23.54
19.16
14.10
9.58
6.62
5.66
6.32
7.50
7.77
6.01
2.09
-3.07
-7.83
-10.83
-11.67
-11.28
-11.55
-14.41
-20.87
-30.59
-42.17
-53.38
-62.29
-67.57
-68.75
-66.50
-62.97
-61.78
-67.29
-82.89
-108.76
-140.54
-169.83
-186.87
-184.19
-159.58
-116.72
-63.45
-8.55
41.23
82.54
114.98
139.39
156.38
165.77
167.39
161.55
149.46
133.08
114.40
94.83
74.89
54.44
33.51
13.33
-4.05
-16.51
-22.39
-20.95
-12.54
1.61
19.63
39.53
60.42
81.70
102.42
121.33
137.08
148.54
154.98
156.23
152.75
146.49
139.27
131.61
123.20
113.66
102.88
90.89
77.23
55.37
23.00
-16.86
-57.55
-91.87
-115.33
-127.04
-129.19
-125.65
-119.91
-113.29
-102.96
-87.01
-64.92
-37.75
-8.10
20.23
42.88
56.05
58.94
49.13
23.64
-18.39
-74.30
-138.07
-202.10
-259.69
-306.44
-338.68
-344.51
-318.46
-264.07
-192.75
-117.77
-49.40
6.32
47.06
76.91
101.44
122.60
140.70
155.72
168.17
179.10
190.10
192.27
182.59
161.98
133.82
102.94
73.42
47.60
26.10
8.47
-6.08
-16.48
-22.41
-25.31
-27.41
-30.77
-36.52
-44.40
-53.16
-61.10
-65.70
-66.01
-62.99
-58.93
-55.51
-53.84
-54.20
-56.16
-58.92
-60.77
-60.44
-57.18
-51.00
-42.62
-33.31
-24.63
-17.96
-14.13
-13.00
-13.90
-15.18
-15.15
-12.70
-7.72
-0.76
6.17
11.71
15.53
18.66
24.10
34.57
51.04
71.88
93.81
113.21
127.68
136.48
140.66
143.22
146.67
151.53
156.27
158.14
154.13
141.38
117.58
76.16
18.49
-45.70
-102.96
-143.42
-164.68
-170.31
-166.48
-159.44
-153.56
-149.55
-145.81
-140.00
-129.59
-113.20
-88.78
-55.84
-17.18
21.99
56.77
84.03
102.32
112.28
116.32
117.81
120.11
124.43
130.35
133.25
130.61
120.98
104.85
85.18
62.85
43.64
32.54
29.12
27.69
21.87
8.09
-12.97
-37.41
-60.55
-78.54
-90.31
-96.69
-98.70
-96.46
-90.00
-80.24
-69.23
-59.67
-53.47
-51.57
-53.25
-56.23
-57.53
-55.28
-49.71
-42.84
-37.37
-35.16
-37.21
-43.28
-51.42
-57.77
-57.34
-46.12
-23.38
6.65
35.46
53.05
52.63
34.23
5.32
-22.62
-39.67
-41.74
-31.71
-16.83
-4.40
1.96
3.26
3.52
6.88
15.27
27.82
42.17
55.66
66.58
74.47
79.61
81.69
81.15
77.69
71.07
61.57
50.29
39.04
29.84
24.12
22.11
22.90
24.41
24.52
21.95
16.69
9.96
3.29
-2.26
-6.65
-10.67
-15.76
-22.92
-32.19
-42.73
-53.01
-61.61
-67.71
-71.22
-72.34
-71.42
-68.43
-62.77
-54.44
-43.52
-30.58
-16.63
-2.81
9.88
20.57
28.72
33.85
35.66
34.44
30.89
25.95
20.51
15.13
9.89
4.57
-1.02
-6.85
-12.44
-17.15
-20.47
-22.07
-21.67
-19.03
-13.76
-5.65
4.82
16.28
26.34
32.34
32.36
26.23
15.67
3.78
-6.25
-12.38
-14.33
-13.24
-10.69
-7.73
-4.44
-0.56
4.02
8.69
12.33
14.05
13.85
12.82
12.30
13.73
17.20
21.45
24.50
24.62
21.05
14.27
5.74
-2.60
-8.90
-11.92
-11.31
-7.61
-2.16
3.37
7.49
9.33
8.78
6.38
2.93
-0.83
-4.28
-7.02
-8.81
-9.52
-9.19
-8.00
-6.24
-4.29
-2.47
-0.95
0.29
1.29
2.14
2.80
3.14
2.93
1.88
-0.17
-3.19
-6.92
-11.09
-15.34
-19.37
-22.93
-25.95
-28.35
-30.09
-31.02
-30.77
-28.71
-24.09
-16.40
-5.84
6.53
18.85
29.00
35.26
36.76
33.69
27.06
18.42
9.38
1.52
-4.01
-6.62
-6.38
-3.96
-0.37
3.25
5.96
7.08
6.44
4.34
1.66
-0.24
0.03
3.31
9.33
16.66
23.18
27.11
27.79
25.97
23.18
20.46
17.95
14.37
8.01
-1.77
-13.78
-25.22
-32.99
-35.07
-31.59
-24.51
-16.69
-10.51
-7.09
-6.26
-7.16
-9.08
-11.73
-15.15
-19.33
-23.99
-28.50
-32.15
-34.51
-35.66
-36.01
-35.80
-34.85
-32.61
-28.58
-22.73
-15.82
-9.12
-3.93
-1.13
-0.83
-2.53
-5.44
-8.72
-11.61
-13.33
-12.99
-9.89
-3.86
4.49
13.77
22.19
28.33
31.58
32.34
31.82
31.26
31.57
32.93
34.95
36.88
38.24
38.90
39.19
39.76
41.24
44.12
48.74
55.18
63.03
71.46
78.43
81.33
77.86
67.03
50.10
30.28
11.44
-4.04
-16.22
-27.44
-40.48
-56.27
-73.02
-86.80
-93.62
-91.25
-81.44
-67.96
-54.88
-45.16
-38.85
-35.12
-32.73
-30.66
-28.04
-24.38
-18.67
-9.88
2.02
16.71
33.07
49.47
63.73
73.39
76.06
70.41
56.68
36.68
13.55
-9.33
-28.84
-42.61
-49.66
-50.42
-47.23
-43.73
-43.28
-47.04
-52.91
-56.05
-51.49
-36.94
-14.06
12.13
35.76
52.60
61.44
63.05
59.35
52.09
42.51
31.66
20.53
10.32
2.03
-3.52
-5.88
-5.09
-2.15
0.77
0.99
-3.60
-12.90
-24.83
-35.91
-43.19
-45.76
-45.18
-44.43
-46.51
-53.19
-63.72
-75.24
-83.31
-83.09
-70.70
-45.59
-11.14
26.69
58.26
77.20
82.36
77.55
68.85
61.49
56.90
53.33
48.18
40.00
30.73
23.28
20.62
24.22
34.12
48.57
65.19
81.54
94.68
101.44
98.54
83.98
56.36
21.94
-11.50
-37.54
-53.38
-60.27
-61.52
-60.47
-58.74
-56.21
-51.91
-46.32
-41.17
-38.46
-39.08
-41.89
-44.28
-43.52
-37.96
-27.84
-15.72
-5.07
1.21
1.89
-2.20
-8.21
-13.32
-15.57
-14.75
-12.44
-11.11
-13.05
-19.76
-31.54
-47.24
-64.30
-77.64
-82.77
-75.91
-56.17
-26.70
5.95
34.26
53.04
60.88
60.64
57.19
54.76
54.88
56.27
57.10
56.24
54.82
54.80
58.12
65.55
76.75
90.74
105.96
120.69
132.58
138.68
135.18
120.28
95.62
66.34
39.23
19.63
9.95
9.29
14.60
20.51
23.93
24.92
25.41
27.38
30.39
33.43
35.93
38.30
37.92
34.02
28.50
24.03
22.81
22.72
20.83
13.90
4.64
-11.25
-35.78
-66.40
-98.07
-125.27
-148.55
-169.07
-187.47
-203.92
-225.05
-254.36
-289.90
-327.33
-362.02
-396.08
-429.83
-459.45
-440.23
-354.54
-223.01
-84.93
17.33
91.42
144.76
183.67
213.83
237.44
249.50
247.78
236.13
222.09
213.65
210.51
210.50
211.37
211.32
205.39
192.31
175.86
161.49
152.94
146.70
138.47
125.40
106.09
78.46
43.57
6.15
-27.51
-52.85
-69.65
-78.47
-80.30
-78.30
-76.83
-78.12
-80.77
-80.75
-75.30
-62.22
-39.01
-4.56
35.87
74.02
101.85
113.83
107.86
81.68
38.46
-12.91
-61.21
-102.37
-135.93
-163.84
-189.04
-214.64
-247.61
-288.88
-331.89
-365.43
-385.10
-388.72
-375.75
-347.33
-275.36
-163.75
-45.00
36.98
89.94
125.62
153.46
177.44
199.54
219.76
231.69
232.34
224.57
215.49
206.10
196.69
187.80
180.22
174.31
166.39
156.10
147.40
146.44
152.97
164.28
176.66
186.61
191.35
187.11
173.70
154.71
135.45
116.98
98.44
77.99
53.93
25.36
-8.24
-44.77
-79.79
-108.07
-126.97
-135.77
-135.43
-128.08
-116.74
-105.20
-96.62
-93.02
-95.01
-102.64
-115.14
-131.14
-149.01
-167.02
-183.47
-196.60
-204.86
-207.46
-204.75
-198.42
-191.13
