1698562627.00
64.000000
-0.00
-0.00
-0.00
-0.00
-0.00
-0.00
-0.00
-0.00
-0.00
-0.00
0.00
0.01
0.01
-0.00
-0.03
-0.05
-0.05
0.00
0.13
0.36
0.66
1.01
1.37
1.72
2.06
2.40
2.79
3.24
3.80
4.42
5.06
5.66
6.20
6.68
7.15
7.68
8.31
9.14
10.09
11.04
11.88
12.56
13.14
13.76
14.65
15.96
17.91
20.32
22.90
25.38
27.58
29.57
31.68
34.32
37.81
42.54
48.15
54.10
59.83
64.97
69.58
74.14
79.34
85.71
93.76
103.00
112.62
121.73
129.77
136.75
143.30
150.75
157.77
166.64
177.95
191.79
206.97
220.57
228.25
225.36
208.53
176.87
132.76
80.05
23.07
-34.94
-92.44
-149.16
-205.23
-260.37
-313.74
-363.87
-409.83
-450.91
-486.50
-515.74
-537.23
-549.22
-549.96
-538.37
-514.21
-478.67
-433.88
-382.45
-327.02
-269.84
-212.63
-156.66
-102.95
-52.37
-5.90
35.58
71.43
101.35
125.50
144.38
158.69
169.15
176.37
180.75
182.57
182.07
179.51
175.23
169.65
163.18
156.15
148.81
141.30
133.69
126.02
118.33
110.69
103.16
95.80
88.68
81.83
75.25
68.95
62.95
57.25
51.86
46.78
42.03
37.59
33.45
29.61
26.07
22.81
19.83
17.11
14.67
12.48
10.54
8.83
7.35
6.07
4.97
4.05
3.27
2.62
2.09
1.65
1.30
1.01
0.79
0.61
0.47
0.37
0.28
0.22
0.18
0.14
0.12
0.10
0.10
0.10
0.11
0.12
0.14
0.17
0.20
0.23
0.27
0.31
0.35
0.40
0.44
0.49
0.53
0.58
0.63
0.68
0.73
0.80
0.87
0.95
1.03
1.13
1.24
1.35
1.48
1.63
1.80
2.01
2.24
2.48
2.71
2.92
3.10
3.28
3.50
3.80
4.19
4.65
5.16
5.67
6.16
6.65
7.16
7.76
8.48
9.32
10.24
11.18
12.05
12.83
13.53
14.24
15.08
16.14
17.42
18.82
20.09
20.93
21.12
20.55
19.32
17.59
15.56
13.26
10.52
7.02
2.44
-3.28
-9.82
-16.50
-22.48
-27.06
-29.97
-31.52
-32.41
-33.48
-35.22
-37.63
-40.12
-41.92
-42.54
-42.02
-40.98
-40.34
-40.80
-42.60
-45.57
-49.49
-54.21
-59.29
-63.46
-64.43
-59.66
-47.64
-29.11
-7.31
13.43
29.60
40.11
46.20
50.05
52.91
54.11
51.66
43.93
31.33
16.48
3.05
-6.08
-10.27
-11.12
-11.30
-13.16
-17.58
-23.81
-30.14
-34.98
-37.71
-38.93
-40.13
-42.89
-48.07
-55.44
-63.73
-71.27
-76.79
-79.90
-81.21
-81.97
-83.49
-86.76
-92.61
-101.57
-113.68
-128.18
-143.17
-155.92
-163.61
-164.36
-157.97
-145.99
-130.87
-114.93
-99.36
-84.09
-68.13
-50.39
-30.26
-7.79
16.58
42.37
69.28
97.07
125.32
153.18
179.32
202.16
220.27
232.83
239.89
242.22
240.93
237.04
231.22
223.74
214.71
204.16
192.17
178.89
164.42
148.95
132.68
115.97
99.29
83.21
68.25
54.75
42.79
32.14
22.30
12.72
3.04
-6.72
-16.16
-24.57
-31.19
-35.44
-37.02
-35.87
-32.13
-26.03
-17.89
-8.09
2.97
14.78
26.74
38.13
48.09
55.77
60.51
62.15
61.08
58.20
54.56
50.85
47.16
42.90
37.26
29.78
20.82
11.58
3.79
-0.91
-1.48
2.31
10.07
20.98
34.07
48.22
62.05
73.81
81.50
83.31
78.28
66.91
51.31
34.82
20.86
11.67
7.40
5.94
3.65
-3.28
-17.74
-41.10
-73.28
-113.17
-158.83
-207.38
-254.70
-295.77
-325.50
-340.13
-338.37
-321.74
-293.93
-259.64
-223.16
-187.37
-153.47
-121.21
-89.61
-57.82
-25.71
5.89
35.58
62.01
84.56
103.51
119.82
134.31
147.15
157.73
165.20
169.26
170.70
171.29
173.04
177.18
183.32
189.33
192.03
188.18
175.62
153.96
124.52
89.76
52.53
15.33
-20.05
-52.56
-81.76
-107.46
-129.34
-146.83
-159.00
-164.85
-163.70
-155.54
-141.14
-122.01
-99.92
-76.64
-53.70
-32.40
-13.78
1.32
12.38
19.41
22.93
23.87
23.32
22.21
21.17
20.41
19.90
19.42
18.78
17.89
16.79
15.61
14.48
13.50
12.67
11.92
11.11
10.07
8.64
6.58
3.75
0.09
-4.25
-8.99
-13.66
-17.88
-21.39
-24.23
-26.64
-28.93
-31.37
-34.08
-36.95
-39.75
-42.05
-43.34
-43.13
-41.10
-37.34
-32.38
-27.13
-22.51
-19.16
-17.17
-16.09
-15.17
-13.74
-11.44
-8.36
-4.87
-1.45
1.53
3.95
5.93
7.76
9.70
11.85
14.02
15.84
16.84
16.69
15.38
13.14
10.46
7.81
5.44
3.32
1.20
-1.28
-4.33
-7.94
-11.77
-15.36
-18.38
-20.77
-22.86
-25.21
-28.27
-32.22
-36.72
-41.07
-44.33
-45.63
-44.37
-40.33
-33.74
-25.18
-15.55
-5.85
2.91
9.98
14.93
17.68
18.43
17.53
15.44
12.73
10.01
7.92
6.92
7.17
8.53
10.66
13.21
16.00
19.00
22.22
25.48
28.31
30.09
30.24
28.48
24.97
20.21
14.86
9.45
4.32
-0.41
-4.77
-8.92
-13.10
-17.66
-22.86
-28.70
-34.69
-39.77
-42.53
-41.71
-36.66
-27.68
-15.99
-3.37
8.42
18.02
24.81
28.77
30.34
30.08
28.53
26.15
23.26
20.15
17.14
14.57
12.73
11.74
11.46
11.50
11.37
10.70
9.41
7.75
6.16
4.99
4.31
3.80
2.91
1.12
-1.74
-5.43
-9.38
-12.94
-15.74
-17.86
-19.75
-22.03
-25.19
-29.35
-34.24
-39.17
-43.27
-45.53
-45.05
-41.20
-33.85
-23.47
-11.19
1.49
13.07
22.45
29.16
33.34
35.46
36.00
35.31
33.54
30.91
27.77
24.63
22.04
20.34
19.61
19.68
20.27
21.12
22.09
23.08
23.96
24.57
24.72
24.28
23.28
21.81
20.04
18.05
15.86
13.37
10.55
7.39
3.99
0.52
-2.83
-5.83
-8.34
-10.34
-12.01
-13.68
-15.79
-18.78
-22.81
-27.66
-32.58
-36.39
-37.78
-35.77
-30.14
-21.55
-11.38
-1.20
7.66
14.57
19.52
22.88
25.01
26.05
25.95
24.69
22.47
19.79
17.35
15.77
15.40
16.24
17.95
20.07
22.08
23.64
24.61
25.06
25.17
25.07
24.72
23.92
22.34
19.71
16.04
11.60
6.85
2.29
-1.79
-5.31
-8.43
-11.33
-14.13
-16.89
-19.65
-22.57
-25.83
-29.54
-33.44
-36.84
-38.70
-38.03
-34.25
-27.53
-18.79
-9.38
-0.64
6.51
11.73
15.13
17.06
17.79
17.49
16.28
14.31
11.93
9.64
7.91
7.10
7.27
8.19
9.43
10.50
11.10
11.22
11.07
10.91
10.86
10.75
10.22
8.92
6.70
3.79
0.64
-2.27
-4.66
-6.52
-8.09
-9.72
-11.71
-14.25
-17.37
-20.90
-24.43
-27.26
-28.54
-27.48
-23.65
-17.15
-8.71
0.56
9.43
16.91
22.39
25.74
27.14
26.91
25.37
22.83
19.63
16.16
12.91
10.37
8.88
8.52
9.05
10.01
10.88
11.23
10.88
9.92
8.65
7.37
6.25
5.18
3.77
1.55
-1.76
-6.03
-10.70
-15.01
-18.38
-20.74
-22.60
-24.86
-28.33
-33.37
-39.62
-46.20
-51.98
-55.95
-57.45
-56.25
-52.55
-46.93
-40.18
-33.23
-26.92
-21.81
-18.10
-15.75
-14.69
-15.01
-17.01
-20.93
-26.65
-33.51
-40.40
-46.21
-50.28
-52.77
-54.69
-57.60
-63.10
-72.17
-84.66
-99.09
-112.70
-122.30
-125.43
-121.67
-113.40
-105.30
-102.81
-110.07
-128.35
-155.68
-187.68
-219.09
-245.20
-262.66
-269.58
-265.56
-251.51
-229.65
-203.28
-176.18
-151.58
-131.38
-115.70
-103.19
-91.83
-79.69
-65.39
-48.27
-28.15
-5.03
21.15
50.80
84.86
124.75
171.96
227.08
288.96
354.03
416.47
469.15
505.22
519.78
511.09
481.10
434.95
379.73
322.82
270.23
225.46
189.10
159.35
133.06
106.83
77.88
44.75
7.77
-30.58
-65.43
-90.02
-97.16
-81.88
-44.14
9.75
67.85
115.81
141.17
137.18
104.35
49.72
-15.85
-80.74
-134.91
-171.07
-185.06
-175.86
-145.65
-99.70
-45.79
7.20
51.40
81.84
97.47
100.76
96.39
89.25
82.82
78.58
76.27
74.85
73.46
71.67
69.37
66.33
62.00
55.72
47.38
37.71
28.35
21.17
17.51
17.55
20.27
23.87
26.56
27.37
26.55
25.56
26.52
31.38
41.01
54.60
69.60
82.52
90.39
91.96
88.32
82.24
76.46
71.91
66.62
55.98
33.99
-4.64
-62.33
-136.72
-220.49
-302.25
-368.78
-408.62
-416.01
-393.45
-351.92
-307.88
-277.72
-272.82
-296.20
-342.24
-399.19
-453.39
-493.02
-511.07
-506.12
-480.79
-440.77
-393.04
-344.29
-299.90
-263.86
-237.93
-222.05
-214.06
-207.61
-195.02
-169.58
-127.55
-69.27
0.47
75.89
150.66
220.16
286.88
355.08
428.17
507.27
591.15
675.87
758.52
834.02
895.16
940.63
968.92
978.39
968.69
941.82
900.55
852.24
801.84
750.21
703.48
664.10
630.52
599.16
567.66
535.64
511.50
502.70
460.58
357.26
192.88
-5.02
-203.10
-361.28
-487.08
-587.04
-665.76
-728.70
-770.49
-787.20
-779.94
-746.10
-689.01
-619.46
-546.48
-479.58
-425.66
-380.75
-339.33
-297.77
-255.77
-216.32
-184.73
-161.26
-145.18
-135.51
-126.91
-115.13
-98.47
-77.87
-56.57
-38.96
-25.89
-16.98
-11.55
-6.81
-0.76
7.13
16.02
23.79
27.77
27.11
22.24
13.91
3.82
-6.80
-17.30
-27.66
-38.52
-49.32
-60.40
-71.14
-80.56
-87.53
-91.39
-91.88
-90.85
-88.22
-84.57
-80.65
-76.50
-71.95
-66.51
-60.10
-52.84
-45.26
-38.84
-35.52
-37.66
-46.77
-63.23
-85.13
-108.61
-128.06
-134.36
-125.35
-103.21
-73.73
-43.77
-20.93
-7.82
-5.54
-13.02
-27.15
-43.71
-57.40
-63.43
-58.53
-43.04
-20.53
3.16
22.83
35.78
41.90
43.78
40.97
34.93
27.12
19.19
12.93
10.78
15.37
28.43
50.46
80.25
115.62
152.75
186.83
212.49
225.01
221.54
201.74
168.24
125.70
79.81
35.07
-5.87
-42.23
-74.11
-101.70
-124.99
-143.90
-158.65
-169.77
-178.39
-185.73
-192.69
-199.50
-205.71
-210.57
-213.52
-214.59
-214.48
-214.60
-216.60
-221.67
-230.05
-240.70
-251.71
-260.80
-265.99
-265.99
-260.41
-249.61
-234.48
-216.22
-196.11
-175.40
-155.11
-136.00
-118.53
-102.93
-89.24
-77.43
-67.24
-58.17
-49.42
-39.99
-28.87
-15.31
0.93
19.53
39.73
60.58
81.41
102.07
123.10
145.46
170.21
197.90
228.39
260.85
294.05
326.85
358.55
389.12
419.16
449.90
483.21
521.20
565.38
615.16
666.64
712.52
743.62
751.86
733.28
689.56
627.34
555.47
481.76
410.78
343.67
279.44
216.66
154.35
91.97
28.89
-35.38
-100.39
-163.78
-221.16
-267.38
-298.47
-313.32
-314.13
-305.25
-291.22
-275.19
-258.43
-240.88
-222.25
-202.73
-183.03
-163.92
-145.85
-128.80
-112.73
-97.77
-84.26
-72.41
-61.87
-51.69
-40.45
-27.26
-12.39
2.51
15.04
23.00
25.32
22.47
16.19
8.95
2.61
-2.24
-6.52
-12.04
-20.59
-33.15
-49.45
-68.01
-86.10
-101.05
-110.94
-115.16
-114.21
-109.33
-102.20
-94.63
-88.03
-81.68
-73.88
-62.66
-46.79
-26.33
-3.23
18.60
34.40
40.60
39.26
35.18
33.52
37.48
47.63
62.14
77.58
90.10
96.94
101.49
107.97
118.85
133.68
150.83
169.04
187.46
205.03
220.08
235.86
254.61
275.91
297.12
316.29
333.81
351.43
370.50
358.15
296.32
190.64
67.76
-45.18
-134.90
-201.02
-249.09
-285.02
-312.35
-326.83
-324.62
-306.72
-279.82
-252.59
-231.56
-219.38
-215.00
-214.99
-211.06
-196.16
-168.23
-130.15
-87.55
-46.55
-13.25
6.80
10.17
-2.25
-22.04
-38.22
-41.99
-30.32
-6.37
22.11
46.50
61.18
67.58
69.38
69.36
67.77
62.09
49.93
30.83
6.97
-17.58
-38.06
-51.17
-56.61
-56.55
-55.22
-56.14
-61.20
-70.50
-82.91
-96.93
-111.49
-126.89
-138.95
-146.49
-149.32
-148.02
-143.68
-137.26
-129.16
-119.08
-106.29
-90.12
-71.38
-51.24
-31.10
-12.13
5.04
20.18
33.17
43.82
51.91
56.61
57.52
54.58
47.98
38.09
25.40
10.83
-4.19
-17.69
-28.07
-34.31
-36.52
-36.10
-35.20
-35.92
-39.67
-47.09
-58.40
-73.76
-92.63
-112.85
-130.25
-139.45
-135.99
-118.82
-91.39
-60.86
-35.21
-19.86
-15.82
-19.92
-26.96
-32.38
-33.87
-31.39
-26.22
-19.71
-12.67
-5.46
1.61
7.93
12.65
14.87
14.05
10.22
4.19
-2.80
-9.50
-15.14
-19.59
-23.16
-26.14
-28.27
-28.62
-25.88
-19.00
-7.85
6.55
22.26
37.00
48.88
56.89
60.99
61.90
60.63
58.18
55.30
52.47
50.07
48.39
47.65
47.96
49.17
50.92
52.77
54.36
55.55
56.33
56.81
57.02
56.84
56.07
54.56
52.33
49.58
46.69
44.00
41.69
39.73
37.85
35.68
32.84
29.14
24.61
19.54
14.30
9.27
4.63
0.37
-3.79
-8.19
-13.14
-18.69
-24.52
-29.86
-33.64
-34.75
-32.31
-25.99
-16.13
-3.69
9.98
23.47
35.57
45.46
52.76
57.38
59.44
59.10
56.57
52.09
46.06
39.03
31.69
24.71
18.64
13.76
10.07
7.37
5.37
3.75
2.26
0.74
-0.94
-2.81
-4.85
-7.03
-9.31
-11.68
-14.20
-16.94
-19.94
-23.19
-26.56
-29.90
-33.05
-35.97
-38.72
-41.48
-44.52
-48.10
-52.32
-57.08
-61.88
-65.89
-67.98
-67.04
-62.26
-53.49
-41.33
-27.01
-12.13
1.78
13.60
22.73
29.12
33.03
34.91
35.23
34.44
32.90
30.98
29.04
27.39
26.28
25.83
26.03
26.72
27.69
28.67
29.51
30.08
30.31
30.05
29.15
27.51
25.07
21.78
17.68
13.07
8.34
3.92
-0.05
-3.76
-7.45
-11.45
-16.03
-21.23
-26.80
-32.35
-37.56
-42.46
-47.45
-52.66
-58.28
-64.59
-71.84
-79.92
-88.35
-96.31
-103.01
-107.84
-109.19
-106.19
-99.15
-89.29
-77.96
-66.27
-55.25
-46.17
-40.62
-36.91
-33.25
-28.62
-23.01
-16.90
-10.59
-3.91
3.59
12.32
27.21
50.78
81.48
115.12
148.45
182.01
219.86
266.65
324.01
395.18
476.65
558.05
626.67
673.51
697.06
702.62
698.43
658.35
572.70
449.83
311.92
180.91
68.08
-25.17
-102.24
-163.79
-218.82
-267.24
-307.21
-339.11
-365.16
-387.93
-409.33
-426.88
-439.86
-449.66
-453.21
-441.60
-411.90
-366.95
-313.58
-258.95
-208.09
-164.05
-128.53
-98.62
-71.64
-47.64
-27.72
-12.77
-2.26
5.40
11.42
16.24
21.70
28.91
37.01
44.70
50.81
55.18
58.36
60.70
62.15
63.16
63.96
63.83
62.39
59.23
54.66
49.32
43.66
37.86
32.05
26.45
21.16
16.71
13.17
10.82
9.71
9.47
9.37
8.63
6.81
3.89
0.48
-3.38
-7.45
-11.76
-16.90
-23.91
-34.38
-50.40
-74.80
-104.72
-138.82
-174.44
-207.44
-233.16
-247.59
-249.10
-239.04
-221.22
-200.41
-181.81
-169.13
-164.57
-169.15
-182.79
-204.14
-230.29
-256.86
-278.61
-291.44
-292.68
-281.85
-260.58
-231.97
-199.58
-166.46
-134.46
-103.85
-73.76
-42.31
-7.62
30.95
72.03
112.36
147.82
175.03
192.29
200.12
200.96
197.94
193.72
189.67
185.74
181.04
174.67
166.56
157.78
150.45
147.07
149.74
159.31
175.09
194.96
215.84
234.61
248.87
257.47
260.79
260.69
260.13
262.30
269.33
281.24
295.43
307.52
313.25
310.37
299.81
284.91
269.61
256.26
244.50
231.81
215.13
192.47
163.63
129.76
92.46
53.25
13.74
-23.89
-56.73
-81.72
-96.76
-101.47
-97.44
-87.20
-73.06
-56.25
-36.96
-15.13
8.50
31.98
52.50
67.40
75.24
76.27
72.16
65.13
57.05
48.62
39.54
29.05
16.59
2.16
-13.80
-30.81
-48.82
-68.08
-88.77
-110.34
-131.23
-149.28
-162.53
-169.94
-171.37
-166.91
-156.15
-137.97
-111.27
-76.27
-35.64
5.45
40.33
63.00
70.14
62.36
43.92
21.08
-0.41
-17.53
-30.82
-43.56
-59.37
-79.62
-102.28
-123.01
-137.75
-145.32
-148.19
-150.61
-155.72
-163.35
-170.08
-171.66
-165.94
-154.46
-141.74
-132.66
-129.80
-132.23
-136.42
-138.52
-136.40
-130.47
-123.06
-116.94
-113.78
-113.65
-115.26
-116.88
-117.25
-116.14
-114.22
-112.67
-112.61
-114.50
-117.94
-121.60
-123.58
-121.76
-114.46
-100.83
-81.24
-57.18
-30.96
-5.16
17.82
36.12
48.44
54.00
52.51
44.31
30.70
13.99
-2.72
-16.40
-25.00
-28.24
-27.52
-25.20
-23.38
-22.95
-23.30
-22.94
-20.37
-14.84
-6.80
2.47
11.29
18.13
21.80
21.70
17.90
11.49
4.76
0.83
2.96
13.18
31.20
54.00
76.56
93.51
100.96
97.76
85.59
67.92
48.55
30.54
15.80
5.27
-0.58
-1.70
1.45
7.66
15.15
21.94
26.60
28.61
28.44
27.03
25.27
23.55
21.65
19.16
15.83
11.95
8.39
6.28
6.57
9.61
14.94
21.48
27.84
32.85
35.78
36.43
34.89
31.38
25.99
18.81
10.03
0.12
-10.23
-20.28
-29.43
-37.48
-44.65
-51.48
-58.64
-66.66
-75.79
-85.65
-95.16
-102.47
-105.33
-101.57
-89.94
-70.65
-45.53
-17.65
9.60
33.38
52.06
65.35
73.90
78.76
80.85
80.79
78.99
75.89
72.12
68.50
65.84
64.66
65.11
66.89
69.45
72.22
74.69
76.46
77.22
76.72
74.79
71.34
66.41
60.15
52.79
44.54
35.65
26.37
17.02
7.98
-0.41
-7.91
-14.47
-20.30
-25.87
-31.79
-38.76
-47.30
-57.55
-68.96
-80.22
-89.26
-93.72
-91.51
-81.49
-63.97
-40.78
-14.87
10.50
32.50
49.45
60.90
67.51
70.49
71.08
70.23
68.58
66.52
64.37
62.56
61.52
61.56
62.73
64.82
67.34
69.80
71.77
72.97
73.27
72.56
70.74
67.72
63.52
58.23
52.16
45.61
38.93
32.31
25.87
19.62
13.62
7.94
2.70
-1.99
-6.14
-9.94
-13.77
-18.04
-23.09
-28.96
-35.35
-41.81
-47.82
-53.05
-57.58
-61.78
-66.33
-71.94
-79.09
-87.70
-96.94
-105.02
-109.55
-108.16
-99.20
-82.47
-59.51
-33.23
-7.10
15.81
33.59
45.69
52.70
55.81
56.20
54.78
52.20
49.02
45.88
43.52
42.59
43.36
45.61
48.69
51.86
54.53
56.45
57.71
58.41
58.57
57.98
56.32
53.32
48.91
43.33
37.03
30.60
24.58
19.45
15.40
12.36
9.95
7.62
4.84
1.34
-2.80
-7.15
-11.12
-14.25
-16.37
-17.67
-18.67
-19.95
-21.95
-24.89
-28.66
-32.99
-37.50
-41.89
-45.99
-49.95
-54.28
-59.70
-67.05
-76.81
-88.83
-101.99
-114.21
-122.76
-125.00
-119.33
-105.70
-85.75
-62.32
-38.79
-18.19
-2.52
7.46
12.02
11.98
8.40
2.26
-5.58
-14.49
-24.04
-33.60
-42.32
-49.45
-54.66
-57.88
-59.51
-59.83
-59.38
-58.95
-58.90
-59.19
-59.97
-61.92
-65.79
-72.40
-81.49
-92.42
-104.78
-117.85
-130.78
-144.08
-159.46
-178.12
-199.67
-219.91
-232.69
-232.26
-214.43
-177.46
-124.09
-60.72
5.17
66.35
118.94
161.10
186.07
187.92
169.60
142.93
121.48
119.17
134.08
160.99
195.25
234.95
273.52
308.34
336.44
353.40
354.76
337.39
303.00
256.59
204.18
151.59
104.25
65.31
36.46
19.01
13.16
18.07
29.73
41.27
46.19
42.30
31.79
19.80
11.39
8.18
8.25
7.06
0.33
-13.14
-30.47
-47.25
-60.15
-68.29
-73.08
-76.46
-79.66
-82.70
-84.60
-84.18
-81.32
-77.19
-73.69
-72.56
-74.39
-78.50
-83.21
-86.54
-86.87
-83.76
-77.86
-70.59
-63.22
-56.16
-48.60
-38.94
-25.76
-8.79
10.52
29.51
45.22
55.73
60.70
61.18
58.77
54.63
48.96
41.22
30.86
18.02
4.02
-8.99
-18.68
-23.39
-22.70
-17.47
-9.35
-0.06
9.07
17.45
25.04
32.12
38.89
45.39
51.45
56.83
61.23
64.34
65.79
65.17
62.22
57.00
50.13
42.82
36.50
32.35
30.63
30.40
29.65
26.00
17.67
4.30
-12.74
-30.72
-46.41
-57.12
-61.37
-59.32
-52.36
-42.57
-31.88
-21.47
-11.49
-1.29
10.06
23.08
37.49
52.24
65.93
77.41
86.18
92.40
96.57
99.10
100.03
99.09
95.96
90.54
83.22
74.81
66.29
58.45
51.62
45.55
39.61
33.16
25.80
17.62
9.02
0.38
-8.21
-16.98
-26.08
-35.19
-43.20
-48.43
-49.29
-45.14
-36.74
-26.15
-16.03
-8.64
-5.11
-5.25
-7.87
-11.54
-15.10
-18.01
-20.22
-21.89
-23.04
-23.56
-23.25
-22.11
-20.42
-18.70
-17.50
-17.15
-17.70
-18.87
-20.29
-21.63
-22.65
-23.32
-23.74
-24.08
-24.54
-25.23
-26.09
-26.89
-27.31
-27.07
-26.26
-25.30
-24.82
-25.40
-27.28
-30.30
-34.04
-38.06
-42.10
-46.16
-50.36
-54.73
-59.21
-63.55
-67.44
-70.45
-71.96
-71.10
-66.85
-58.45
-45.78
-29.70
-11.92
5.58
21.12
33.87
43.93
51.90
58.38
63.68
67.77
70.79
73.28
76.32
81.12
88.50
98.40
109.87
121.37
131.34
138.77
143.46
145.94
147.12
147.94
148.96
150.15
150.84
149.81
145.62
137.06
123.52
105.37
83.90
61.04
38.77
18.71
1.71
-12.16
-23.37
-32.58
-40.42
-47.54
-54.59
-62.42
-71.86
-83.54
-97.55
-113.17
-128.85
-142.34
-151.09
-152.76
-145.80
-129.86
-106.15
-77.28
-46.74
-18.27
4.83
20.02
25.69
21.11
6.50
-16.92
-46.88
-80.24
-113.66
-144.21
-169.80
-189.20
-201.67
-206.66
-203.86
-193.56
-177.19
-157.37
-137.45
-120.58
-108.80
-102.72
-101.70
-104.56
-110.17
-117.69
-126.34
-134.82
-141.06
-142.37
-136.09
-120.47
-95.48
-63.11
-27.04
8.24
38.47
60.62
73.35
76.92
72.65
62.18
46.81
27.31
3.88
-23.50
-54.67
-88.97
-125.12
-161.24
-195.00
-223.80
-245.22
-257.35
-259.33
-251.47
-235.04
-211.61
-182.42
-148.05
-108.73
-65.06
-18.68
27.47
69.65
104.31
129.02
143.13
147.66
144.72
136.79
126.17
114.59
103.22
92.71
83.28
74.87
67.24
59.98
52.64
44.72
35.83
25.60
13.86
0.68
-13.60
-28.43
-43.19
-57.28
-70.28
-81.97
-92.12
-100.40
-106.18
-108.57
-106.57
-99.36
-86.60
-68.61
-46.59
-22.40
1.63
23.06
39.81
50.59
55.24
54.85
51.73
49.05
50.30
58.42
75.01
99.67
129.90
161.54
189.73
210.13
219.87
218.14
206.01
185.91
160.96
134.14
107.92
83.99
63.20
45.61
30.76
17.77
5.67
-6.48
-19.42
-33.65
-49.41
-66.61
-84.74
-102.74
-119.06
-131.80
-139.11
-139.54
-132.21
-116.75
-93.07
-61.45
-22.79
20.95
66.55
109.91
146.83
174.26
190.97
197.76
196.93
191.39
183.71
175.74
168.41
161.80
155.47
148.63
140.43
130.28
118.06
104.08
88.92
73.20
57.30
41.40
25.59
9.99
-5.14
-19.44
-32.56
-44.29
-54.45
-62.89
-69.40
-73.83
-76.24
-77.05
-77.15
-77.68
-79.62
-83.43
-88.68
-94.17
-98.15
-98.95
-95.42
-87.15
-74.38
-57.60
-37.39
-14.24
11.09
37.57
63.91
88.92
112.05
133.47
153.75
173.05
190.53
204.49
213.40
216.98
216.64
214.65
212.70
210.56
206.04
196.08
178.45
152.78
120.62
84.46
46.58
8.49
-28.74
-63.90
-95.14
-120.20
-137.23
-145.52
-145.86
-140.29
-131.54
-122.13
-113.85
-107.42
-102.64
-99.03
-96.22
-94.36
-93.94
-95.29
-98.22
-101.85
-104.95
-106.38
-105.48
-102.10
-96.47
-88.95
-79.89
-69.65
-58.57
-47.14
-35.81
-24.98
-14.75
-4.85
5.30
16.50
29.39
44.13
60.21
76.59
92.03
105.64
117.11
126.58
134.22
139.82
142.72
142.12
137.67
129.76
119.46
108.06
96.53
85.24
74.10
62.89
51.70
41.00
31.47
23.65
17.64
13.02
8.99
4.73
-0.36
-6.39
-12.96
-19.38
-24.93
-29.19
-32.16
-34.34
-36.42
-38.96
-42.17
-45.73
-48.96
-51.17
-51.96
-51.49
-50.48
-49.83
-50.26
-51.97
-54.58
-57.30
-59.30
-60.11
-59.81
-58.88
-58.02
-57.78
-58.40
-59.72
-61.20
-62.07
-61.43
-58.42
-52.49
-43.62
-32.51
-20.64
-9.83
-1.75
2.77
4.04
3.38
2.61
3.19
5.73
9.89
14.75
19.39
23.26
26.28
28.60
30.38
31.55
31.95
31.45
30.01
27.74
24.79
21.41
17.96
14.93
12.86
11.99
12.06
12.31
11.75
9.59
5.75
0.84
-4.05
-7.92
-10.33
-11.55
-12.39
-13.82
-16.50
-20.54
-25.58
-30.94
-35.88
-39.78
-42.21
-42.89
-41.79
-39.20
-35.77
-32.45
-30.29
-29.96
-31.45
-33.91
-35.87
-35.83
-32.87
-27.06
-19.41
-11.48
-4.68
0.07
2.62
3.26
2.44
0.48
-2.41
-5.82
-9.01
-10.85
-10.14
-6.16
0.91
9.95
19.24
27.12
32.49
35.17
35.72
35.00
33.75
32.25
30.34
27.67
24.01
19.49
14.56
9.87
5.93
2.99
0.94
-0.56
-1.82
-3.15
-4.71
-6.59
-8.84
-11.47
-14.43
-17.60
-20.92
-24.36
-27.88
-31.28
-34.16
-35.71
-35.07
-31.57
-25.07
-16.21
-6.26
3.24
10.88
15.83
17.95
17.64
15.59
12.51
8.94
5.26
1.82
-1.06
-3.03
-3.81
-3.27
-1.57
0.97
3.90
6.76
9.21
11.06
12.19
12.54
12.09
10.89
9.08
6.88
4.56
2.34
0.36
-1.45
-3.22
-5.14
-7.32
-9.78
-12.41
-15.12
-17.83
-20.53
-23.29
-26.18
-29.27
-32.66
-36.37
-40.34
-44.32
-47.74
-49.77
-49.44
-46.00
-39.21
-29.64
-18.54
-7.62
1.52
7.85
11.15
11.97
11.26
9.90
8.44
7.01
5.45
3.64
1.64
-0.21
-1.43
-1.65
-0.77
0.88
2.62
3.56
2.91
0.17
-4.61
-10.85
-17.64
-24.11
-29.93
-35.38
-41.31
-48.66
-58.01
-69.27
-81.73
-94.41
-106.44
-117.45
-127.66
-137.80
-148.98
-162.49
-179.41
-199.93
-222.59
-243.83
-258.38
-260.65
-246.59
-215.02
-167.94
-109.49
-44.31
23.88
92.69
160.57
225.99
286.82
340.61
385.22
419.58
443.97
459.70
468.51
471.76
470.08
463.17
449.99
429.33
400.49
363.83
321.10
275.38
230.73
191.36
160.60
139.69
127.21
119.11
109.92
94.49
69.93
36.63
-2.05
-41.21
-76.37
-104.98
-126.72
-142.91
-155.47
-166.14
-176.34
-187.22
-199.57
-213.36
-226.93
-237.03
-239.56
-231.40
-212.30
-185.58
-157.12
-132.90
-116.49
-107.47
-102.09
-95.43
-83.93
-67.10
-47.45
-29.24
-16.37
-11.10
-13.54
-21.95
-33.39
-44.10
-49.81
-46.18
-29.87
-0.15
39.60
82.00
117.58
138.16
139.89
124.24
96.69
63.87
31.04
1.08
-24.62
-44.72
-57.34
-60.62
-54.21
-40.21
-22.70
-6.15
6.44
14.44
19.14
22.41
25.60
28.97
31.81
33.11
32.10
28.69
23.45
17.40
11.55
6.58
2.68
-0.52
-3.70
-7.59
-12.72
-19.23
-26.85
-34.99
-42.82
-49.55
-54.52
-57.42
-58.34
-57.79
-56.49
-55.16
-54.28
-53.80
-52.99
-50.59
-45.06
-35.07
-20.10
-0.79
20.95
42.26
60.19
72.48
78.30
78.34
74.45
68.77
63.02
57.95
53.32
48.42
42.65
35.97
28.93
22.42
17.02
12.80
9.27
5.74
1.87
-2.17
-5.80
-8.51
-10.34
-11.88
-14.11
-17.73
-22.83
-28.79
-34.58
-39.33
-42.72
-45.04
-46.96
-49.20
-52.06
-55.41
-58.76
-61.47
-63.08
-63.31
-62.26
-60.30
-58.04
-56.12
-55.24
-55.79
-57.89
-61.19
-64.91
-67.84
-68.42
-65.12
-56.83
-43.43
-26.14
-7.27
10.29
24.06
32.70
36.31
36.12
33.80
30.76
27.86
25.43
23.60
22.64
22.84
24.48
27.70
32.35
38.27
45.31
53.49
62.94
73.78
85.82
98.46
110.51
120.37
126.39
127.37
123.01
114.10
102.29
89.47
77.06
65.56
54.48
42.88
30.07
16.05
1.60
-12.13
-24.18
-34.22
-42.47
-49.57
-56.10
-62.34
-68.28
-73.63
-78.13
-81.51
-83.59
-84.31
-83.78
-82.21
-79.99
-77.49
-75.01
-72.75
-70.96
-70.02
-70.46
-72.95
-78.02
-85.86
-96.11
-107.63
-118.66
-127.14
-131.30
-130.30
-124.74
-116.58
-108.50
-103.01
-101.44
-103.63
-108.22
-113.48
-118.08
-121.39
-123.35
-124.00
-123.13
-120.28
-115.12
-107.76
-98.97
-89.97
-81.91
-75.60
-71.29
-68.95
-68.51
-69.99
-73.28
-77.58
-81.24
-81.81
-76.86
-65.04
-46.76
-24.27
-0.88
20.22
36.88
48.37
55.15
58.17
58.40
56.49
52.91
48.14
42.85
37.81
33.71
31.06
30.05
30.69
32.86
36.36
40.84
45.83
50.64
54.64
57.45
59.14
60.21
61.37
63.10
65.39
67.72
69.23
69.18
67.07
62.84
56.85
49.75
42.44
35.92
31.01
28.02
26.60
25.69
23.88
20.04
13.86
6.27
-0.78
-4.72
-3.23
5.05
20.02
40.16
62.92
85.35
104.91
119.77
129.16
133.10
132.18
127.31
119.43
109.42
98.04
86.06
74.34
63.72
55.04
48.91
45.51
44.61
45.67
47.97
50.86
53.81
56.38
58.22
59.09
58.97
58.08
56.83
55.68
54.78
53.92
52.51
49.93
45.73
39.97
33.09
25.74
18.43
11.38
4.52
-2.46
-9.75
-17.31
-24.73
-31.03
-34.89
-34.92
-30.11
-20.45
-7.10
7.75
21.44
31.71
37.32
38.20
35.13
29.22
21.43
12.41
2.66
-7.20
-16.32
-23.75
-28.73
-30.96
-30.71
-28.65
-25.55
-22.02
-18.37
-14.63
-10.71
-6.73
-3.14
-0.63
-0.02
-1.84
-6.06
-12.02
-18.62
-24.74
-29.62
-33.11
-35.72
-38.25
-41.55
-46.13
-51.99
-58.37
-63.82
-66.26
-63.58
-54.22
-37.94
-16.18
8.13
31.38
50.22
62.54
67.78
66.79
61.19
52.67
42.63
31.96
21.29
11.19
2.30
-4.71
-9.30
-11.22
-10.60
-7.94
-3.96
0.54
4.85
8.38
10.73
11.71
11.36
9.81
7.24
3.81
-0.48
-5.61
-11.46
-17.72
-23.85
-29.21
-33.27
-35.81
-37.05
-37.62
-38.41
-40.33
-44.04
-49.67
-56.45
-62.56
-65.23
-61.41
-48.71
-26.51
3.51
37.45
70.29
97.36
115.69
124.59
125.38
120.56
112.68
103.68
94.66
86.13
78.32
71.49
65.90
61.85
59.46
58.57
58.79
59.42
59.63
58.56
55.49
49.99
42.13
32.40
21.60
10.57
-0.16
-10.41
-20.34
-30.19
-39.92
-49.16
-57.34
-64.14
-69.70
-74.82
-80.76
-88.82
-99.96
-114.50
-131.91
-150.79
-168.86
-183.17
-190.75
-189.26
-177.68
-156.91
-129.50
-99.11
-69.75
-44.80
-26.45
-15.49
-11.22
-11.80
-14.84
-17.95
-19.39
-18.37
-14.96
-9.86
-3.85
2.45
8.71
14.74
20.48
25.94
31.22
36.50
41.90
47.36
52.48
56.67
59.24
59.76
58.14
54.69
50.14
45.46
41.61
39.29
38.59
38.89
39.19
38.49
36.34
33.00
29.29
26.00
23.57
21.92
20.70
19.62
18.77
18.60
19.77
22.78
27.80
34.51
42.20
49.78
55.99
59.66
59.89
56.19
48.46
36.90
21.98
4.50
-14.29
-32.72
-48.87
-61.01
-67.93
-69.25
-65.33
-57.00
-45.36
-31.49
-16.51
-1.43
12.72
25.05
34.91
41.92
46.01
47.36
46.42
43.70
39.73
34.82
29.08
22.42
14.86
6.68
-1.51
-8.79
-14.37
-17.77
-18.98
-18.33
-16.41
-13.86
-11.37
-9.65
-9.26
-10.46
-12.96
-15.96
-18.33
-18.97
-17.25
-13.03
-6.74
0.88
9.02
16.96
24.13
30.21
35.06
38.73
41.34
42.92
43.48
42.97
41.46
39.28
36.86
34.66
32.95
31.67
30.59
29.48
28.36
27.56
27.60
28.84
31.24
34.19
36.67
37.64
36.38
32.76
27.20
20.53
13.63
7.28
2.03
-1.81
-4.11
-4.96
-4.71
-3.94
-3.32
-3.52
-4.83
-7.17
-10.13
-13.11
-15.71
-17.82
-19.74
-22.07
-25.38
-30.01
-35.75
-41.85
-47.24
-50.92
-52.31
-51.54
-49.25
-46.29
-43.36
-40.78
-38.56
-36.55
-34.67
-32.97
-31.56
-30.44
-29.44
-28.27
-26.67
-24.64
-22.48
-20.75
-19.93
-20.22
-21.43
-22.90
-23.96
-24.07
-23.07
-21.24
-19.11
-17.21
-15.88
-15.20
-15.03
-15.20
-15.53
-16.03
-16.78
-17.90
-19.44
-21.37
-23.54
-25.76
-27.81
-29.56
-30.93
-31.98
-32.85
-33.72
-34.75
-36.06
-37.55
-39.01
-39.98
-39.84
-38.01
-34.08
-28.07
-20.53
-12.44
-4.91
1.15
5.38
8.02
9.70
11.14
12.75
14.51
16.09
17.10
17.36
16.99
16.38
15.88
15.73
15.85
16.01
15.97
15.71
15.36
15.14
15.20
15.45
15.64
15.46
14.69
13.33
11.63
9.97
8.67
7.87
7.42
6.94
6.06
4.58
2.35
-0.40
-3.09
-5.04
-5.72
-4.93
-2.73
0.72
5.02
9.41
13.07
15.62
17.19
18.44
20.25
23.25
27.50
32.41
36.37
38.18
37.78
36.17
34.62
33.88
33.92
34.13
33.76
30.62
23.85
14.44
4.68
-3.41
-8.96
-12.19
-13.73
-14.42
-18.67
-29.30
-45.89
-65.40
-84.74
-102.16
-117.18
-129.75
-139.96
-153.79
-175.02
-202.76
-232.55
-260.25
-284.40
-305.77
-325.81
-345.66
-373.02
-411.45
-457.48
-502.72
-539.88
-566.19
-582.88
-592.73
-550.75
-438.82
-274.86
-101.46
45.79
152.84
221.55
260.17
278.29
284.24
276.34
253.82
220.43
183.84
150.53
124.67
107.26
97.70
94.29
88.83
75.58
54.34
29.48
6.04
-12.53
-24.58
-28.74
-23.91
-15.71
-7.54
1.50
14.68
34.70
62.43
97.04
138.33
185.79
236.29
286.66
335.59
380.66
417.41
441.14
449.08
444.90
435.14
425.63
420.35
423.03
432.53
442.68
445.58
434.65
411.21
379.70
345.47
313.84
293.01
287.14
294.48
309.11
322.68
332.27
335.08
329.02
286.15
198.69
82.67
-32.88
-113.82
-167.66
-205.54
-236.24
-265.06
-288.27
-294.69
-277.64
-240.88
-197.27
-163.93
-150.43
-161.83
-197.25
-250.20
-308.90
-364.47
-412.78
-451.88
-480.02
-476.97
-431.92
-354.20
-267.96
-193.48
-139.49
-104.82
-84.19
-70.04
-55.33
-37.80
-17.30
6.63
36.03
69.78
103.49
131.64
149.99
157.89
155.72
145.48
130.81
115.96
103.24
92.32
80.98
66.52
47.29
22.24
-7.52
-38.21
-64.50
-81.94
-88.46
-84.80
-73.73
-58.94
-44.00
-31.04
-20.35
-11.04
-2.20
6.35
14.11
20.39
24.60
26.26
24.92
19.97
10.67
-3.46
-21.70
-41.34
-57.69
-65.16
-59.23
-38.51
-5.62
33.40
71.28
102.10
123.11
135.11
141.28
145.46
150.49
157.65
166.71
176.49
185.28
190.98
191.04
182.98
165.35
139.10
108.33
79.64
60.11
54.36
62.45
79.53
97.82
109.91
111.50
102.44
85.21
62.50
35.24
2.75
-35.37
-76.75
-115.49
-143.85
-155.72
-150.00
-132.04
-112.02
-100.99
-106.66
-130.64
-168.66
-213.21
-257.10
-296.07
-329.06
-356.93
-380.47
-399.16
-411.46
-415.92
-412.40
-402.03
-386.34
-365.89
-339.48
-304.41
-257.65
-197.34
-123.80
-39.79
49.67
137.91
217.64
282.35
328.00
354.03
363.28
360.39
349.63
333.01
310.00
278.77
238.34
190.01
137.60
86.02
39.48
0.15
-32.12
-58.92
-82.01
-102.40
-120.04
-134.12
-143.68
-148.22
-147.99
-144.17
-138.62
-133.46
-130.54
-130.72
-133.29
-135.83
-134.62
-125.44
-104.79
-71.06
-25.38
28.10
82.82
131.40
167.58
188.09
193.56
187.97
177.07
166.19
158.60
155.07
154.38
154.66
154.45
153.05
150.18
145.29
137.43
125.39
108.45
86.86
61.94
35.82
10.86
-10.95
-28.37
-40.85
-48.36
-50.95
-48.63
-41.42
-29.70
-14.58
1.93
17.28
29.00
35.43
36.23
32.29
25.26
16.87
8.36
0.37
-7.00
-13.89
-20.66
-27.94
-36.53
-47.03
-59.43
-72.62
-84.45
-92.18
-93.49
-87.27
-74.04
-55.68
-34.74
-13.64
5.81
22.58
36.22
46.63
53.91
58.28
60.11
59.91
58.29
55.87
53.17
50.51
47.96
45.33
42.22
38.20
33.07
26.96
20.39
14.05
8.57
4.30
1.26
-0.85
-2.39
-3.68
-4.92
-6.27
-7.91
-10.09
-13.11
-17.31
-23.01
-30.47
-39.90
-51.28
-64.23
-77.76
-90.34
-100.08
-105.34
-105.36
-100.63
-92.65
-83.26
-73.62
-63.66
-52.12
-37.40
-18.63
3.55
26.96
48.61
65.89
77.52
83.85
86.47
87.34
88.05
89.37
91.43
94.11
97.35
101.11
105.05
108.17
108.87
105.37
96.59
82.73
65.44
47.28
30.76
17.47
7.66
0.48
-5.39
-11.14
-17.59
-25.20
-34.12
-44.00
-53.76
-61.42
-64.35
-60.26
-48.26
-29.66
-7.89
12.51
27.59
35.30
36.02
32.02
26.06
20.07
14.45
8.39
0.71
-9.12
-20.45
-31.62
-40.38
-44.42
-41.43
-29.31
-6.59
26.57
67.45
110.53
148.39
173.84
182.25
173.07
149.68
117.72
82.84
49.00
17.93
-10.32
-36.35
-60.59
-82.93
-102.82
-119.37
-131.57
-138.41
-139.27
-134.21
-123.78
-108.84
-90.04
-67.64
-41.78
-13.15
16.49
44.25
67.00
82.59
90.76
92.94
91.29
87.31
81.20
72.37
60.74
47.96
37.51
33.29
37.76
50.29
67.10
82.69
92.10
92.88
85.42
72.19
56.25
40.39
27.13
19.24
19.93
32.10
56.63
90.77
127.78
158.42
174.03
169.69
145.72
107.10
60.86
13.35
-31.53
-72.25
-108.62
-140.54
-167.73
-190.21
-208.73
-224.87
-240.26
-255.61
-270.39
-283.32
-293.11
-298.91
-300.03
-295.44
-283.90
-264.95
-240.05
-212.77
-187.71
-168.21
-154.63
-144.39
-133.71
-119.71
-101.35
-78.89
-52.48
-21.40
14.79
54.56
93.25
124.07
140.83
140.95
126.90
105.32
84.27
70.15
65.79
70.20
79.48
88.19
91.09
84.68
68.73
46.81
25.35
11.33
9.22
19.03
36.40
54.53
67.24
71.31
67.02
57.02
44.48
31.62
19.21
7.32
-3.80
-13.22
-19.41
-20.93
-17.08
-8.28
3.83
16.77
27.94
35.21
37.67
35.65
30.49
23.72
16.41
8.86
0.75
-8.29
-18.29
-28.72
-38.87
-48.26
-56.71
-64.26
-70.59
-74.87
-75.80
-72.00
-62.63
-47.74
-28.50
-6.92
14.46
33.30
47.76
56.85
60.51
59.67
55.75
50.23
44.21
38.05
31.95
25.87
19.79
14.01
9.24
6.37
5.95
8.21
12.85
20.21
30.38
42.93
56.64
69.80
80.68
87.88
91.44
92.52
94.12
98.64
106.37
115.01
120.92
120.90
113.25
99.45
83.08
70.06
64.86
68.75
79.36
92.78
105.79
116.67
126.50
126.61
112.14
83.24
44.50
0.78
-44.45
-85.30
-122.20
-154.82
-183.16
-206.71
-226.35
-241.84
-253.42
-260.69
-262.55
-258.41
-247.93
-232.35
-213.03
-192.12
-171.90
-154.42
-140.43
-129.39
-120.57
-112.98
-106.64
-101.66
-98.61
-98.00
-99.89
-103.13
-105.43
-104.28
-97.28
-83.22
-61.86
-33.98
-0.99
35.43
73.70
112.24
149.22
182.86
211.80
235.87
255.92
273.26
288.61
301.56
310.67
314.36
311.76
303.05
289.11
271.00
249.58
225.56
200.01
174.59
151.31
131.52
115.28
101.49
88.82
76.30
63.50
50.30
36.16
20.44
2.28
-18.98
-43.12
-69.11
-95.84
-122.97
-150.73
-179.31
-207.14
-231.00
-246.85
-250.95
-241.26
-218.67
-187.09
-151.68
-117.20
-85.86
-58.07
-35.48
-21.58
-18.47
-24.36
-34.24
-40.33
-40.89
-36.86
-31.51
-29.22
-34.96
-50.08
-72.15
-96.31
-117.29
-131.90
-139.17
-140.42
-137.92
-133.16
-126.10
-116.39
-104.64
-92.98
-84.43
-80.97
-82.88
-88.63
-95.22
-98.84
-96.38
-86.43
-69.63
-48.40
-25.65
-3.96
15.21
31.91
47.46
63.26
79.77
96.07
110.14
119.95
124.19
122.77
116.75
107.95
98.24
89.04
81.30
75.53
72.06
71.13
72.92
77.56
85.08
95.26
107.59
121.37
135.74
149.75
162.47
172.90
179.89
182.26
179.21
170.92
159.13
147.17
139.30
139.32
149.05
167.32
189.96
210.90
223.82
223.78
208.24
177.21
132.67
77.71
15.85
-49.20
-113.71
-174.08
-227.45
-272.20
-308.26
-336.54
-357.81
-371.57
-375.57
-366.52
-341.46
-299.40
-242.46
-175.93
-107.41
-45.33
2.78
31.74
39.71
28.41
2.47
-31.93
-68.66
-102.93
-131.53
-152.62
-164.87
-167.05
-157.93
-136.44
-102.14
-55.62
1.02
64.07
128.40
188.23
238.13
273.88
293.30
296.62
286.67
268.53
248.69
233.54
227.52
231.64
243.12
256.22
264.34
262.17
247.30
220.50
185.08
145.75
107.43
74.23
48.43
29.75
15.49
1.48
-16.33
-40.27
-70.25
-103.73
-136.45
-163.63
-181.14
-186.07
-177.19
-155.16
-123.04
-86.21
-51.27
-24.49
-10.07
-9.21
-19.64
-36.52
-53.80
-66.73
-73.44
-75.34
-75.86
-78.58
-85.24
-94.24
-101.31
-101.56
-92.00
-74.68
-57.29
-49.18
-55.87
-77.30
-109.50
-148.11
-189.31
-229.95
-265.54
-289.58
-295.68
-280.96
-248.73
-207.14
-167.93
-136.22
-113.86
-99.35
-89.37
-80.80
-72.07
-63.08
-53.35
-42.06
-27.69
-9.68
11.51
34.64
58.55
83.21
104.92
123.68
141.08
159.55
180.88
206.06
234.90
265.71
295.17
318.83
332.90
334.59
323.45
301.31
271.95
239.49
206.87
174.95
143.29
111.51
79.51
48.00
18.19
-8.47
-30.96
-48.89
-62.40
-70.97
-73.68
-70.36
-62.31
-52.36
-43.78
-39.17
-39.48
-43.70
-48.27
-49.50
-45.57
-37.75
-29.13
-22.62
-19.58
-19.48
-20.51
-18.75
-10.45
6.78
32.46
63.86
97.18
128.30
153.68
161.29
144.00
104.12
54.15
7.68
-28.38
-54.52
-75.03
-93.15
-108.42
-115.53
-107.38
-78.18
-28.09
36.47
104.81
164.72
205.64
221.42
213.45
183.67
142.10
102.28
77.29
75.28
95.86
129.41
160.06
172.82
159.40
122.15
71.93
23.93
-7.92
-15.56
0.99
34.20
71.94
101.13
111.22
95.98
55.32
-4.32
-71.06
-130.34
-168.67
-177.13
-153.59
-103.28
-38.24
25.51
71.59
87.53
67.85
15.66
-58.29
-138.86
-210.61
-262.05
-288.16
-290.65
-276.23
-253.97
-232.35
-217.26
-211.05
-212.92
-220.13
-229.55
-238.79
-246.34
-251.29
-252.87
-250.19
-242.50
-229.63
-212.24
-191.84
-170.45
-149.93
-131.60
-115.98
-103.02
-92.42
-84.05
-78.11
-74.99
-75.00
-78.16
-84.02
-91.70
-100.07
-107.95
-114.37
-118.67
-120.53
-119.86
-116.64
-110.84
-102.31
-90.97
-76.97
-60.87
-43.67
-26.66
-11.07
2.26
13.04
21.59
28.51
34.47
39.91
45.07
50.08
55.11
60.59
67.09
75.24
85.51
98.10
112.82
129.15
146.19
162.71
177.28
188.45
195.14
197.04
194.80
190.05
184.95
181.52
180.95
183.12
186.54
188.97
188.09
182.26
170.95
154.75
135.20
114.37
94.46
77.26
63.83
54.27
47.77
43.01
38.75
34.31
29.81
25.95
23.53
23.08
24.72
28.34
33.88
41.43
50.97
61.92
72.89
81.78
86.21
84.42
76.05
62.37
45.97
29.84
16.54
7.42
2.49
0.58
-0.03
-1.05
-3.54
-7.63
-12.64
-17.17
-19.71
-18.87
-13.83
-4.59
8.08
22.63
36.99
48.70
55.38
54.77
45.59
27.89
3.28
-25.26
-54.26
-80.67
-102.73
-120.01
-133.31
-141.56
-142.78
-135.90
-122.72
-107.66
-95.16
-88.86
-86.82
-85.05
-79.33
-66.92
-47.40
-21.55
7.87
37.41
63.61
84.01
97.52
105.37
110.72
117.36
127.75
141.28
154.13
160.83
157.00
141.35
116.49
87.21
58.06
31.48
7.74
-13.65
-32.36
-46.55
-54.23
-54.83
-50.49
-45.57
-44.55
-49.46
-58.46
-66.64
-68.81
-62.65
-49.94
-35.26
-22.73
-13.30
-3.91
10.32
32.47
61.13
90.22
111.67
119.14
110.88
89.94
62.42
34.80
12.09
-2.70
-7.90
-2.56
13.40
38.34
68.19
96.64
116.74
123.47
116.11
98.94
79.56
65.32
59.77
61.05
63.26
59.93
47.61
27.34
3.23
-20.52
-42.18
-63.14
-86.19
-113.13
-143.22
-173.55
-200.77
-222.88
-239.93
-253.11
-263.43
-270.62
-273.18
-269.51
-258.99
-242.67
-222.99
-202.89
-184.93
-170.71
-160.73
-154.63
-151.48
-149.92
-148.45
-145.55
-140.09
-131.59
-120.41
-107.47
-94.02
-81.21
-69.75
-59.91
-51.51
-44.15
-37.27
-30.39
-23.01
-14.74
-5.25
5.77
18.53
33.06
49.06
65.90
82.60
98.03
111.20
121.56
129.18
134.65
138.76
142.11
144.77
146.20
145.51
141.83
134.73
124.30
110.91
94.91
76.36
55.20
31.72
7.08
-16.53
-36.44
-50.39
-57.38
-58.00
-54.14
-48.13
-42.02
-37.28
-34.90
-35.80
-40.92
-51.05
-66.34
-86.04
-108.54
-131.78
-153.87
-173.62
-190.65
-205.27
-218.13
-229.86
-240.83
-251.00
-259.82
-266.52
-270.31
-270.59
-267.09
-259.97
-249.65
-236.45
-220.29
-200.29
-175.09
-143.52
-105.51
-62.62
-17.85
25.17
63.59
96.21
124.08
149.43
174.54
200.83
228.73
258.21
289.22
322.12
357.15
394.45
432.56
468.04
496.23
512.87
515.79
505.27
484.36
457.27
430.01
407.41
392.17
384.61
383.51
386.73
390.67
391.68
385.51
371.01
348.11
317.48
279.98
237.16
191.60
145.63
102.98
66.87
43.05
35.51
44.83
67.75
99.21
134.80
170.52
205.68
217.40
191.48
127.44
39.60
-53.69
-139.36
-204.65
-255.08
-294.98
-326.93
-349.12
-360.83
-362.27
-356.56
-347.83
-339.43
-334.56
-333.24
-334.71
-335.09
-331.02
-320.89
-306.01
-288.59
-270.73
-255.08
-242.05
-231.61
-221.58
-210.33
-197.30
-183.95
-171.57
-160.93
-153.03
-147.05
-141.42
-132.90
-118.79
-97.29
-68.66
-33.21
10.16
58.50
106.55
148.75
182.48
206.53
225.67
239.26
245.67
244.22
235.50
222.18
203.07
180.36
156.31
132.90
110.83
91.10
74.34
60.18
47.71
35.91
24.67
13.66
2.54
-9.70
-23.44
-38.43
-53.76
-67.59
-77.61
-81.47
-78.74
-70.97
-61.55
-53.61
-49.23
-49.14
-52.77
-59.00
-66.24
-73.34
-79.19
-82.72
-82.60
-77.78
-68.15
-54.78
-39.69
-24.96
-12.32
-2.56
4.37
9.12
12.42
14.68
15.90
15.86
14.51
12.02
8.77
5.25
1.84
-1.25
-3.99
-6.37
-8.30
-9.52
-9.73
-8.69
-6.51
-3.67
-0.87
1.15
1.93
1.49
0.32
-0.86
-1.34
-0.67
1.21
4.02
7.24
10.24
12.41
13.30
12.70
10.83
8.37
6.44
6.34
9.13
15.20
24.08
34.52
44.90
53.76
60.20
63.93
65.19
64.32
61.62
57.31
51.60
44.90
37.80
30.92
24.76
19.49
15.00
10.97
7.07
3.16
-0.69
-4.25
-7.29
-9.72
-11.73
-13.67
-16.00
-18.99
-22.63
-26.58
-30.36
-33.53
-35.92
-37.65
-39.03
-40.46
-42.25
-44.59
-47.51
-50.85
-54.26
-57.03
-58.31
-57.13
-52.82
-45.24
-34.95
-23.11
-11.17
-0.49
8.02
13.98
17.52
19.09
19.26
18.48
17.01
15.01
12.65
10.17
8.00
6.61
6.40
7.48
9.67
12.57
15.71
18.81
21.79
24.71
27.66
30.61
33.40
35.89
37.96
39.70
41.21
42.64
44.09
45.55
47.01
48.47
50.05
51.92
54.27
57.17
60.44
63.63
66.17
67.52
67.48
66.35
64.93
64.16
64.76
66.82
69.64
71.94
72.17
69.11
62.06
51.05
36.70
19.99
1.98
-16.34
-34.20
-51.00
-66.39
-80.15
-92.11
-102.15
-110.23
-116.41
-120.82
-123.67
-125.10
-125.29
-124.34
-122.51
-120.15
-117.71
-115.59
-114.03
-113.04
-112.51
-112.37
-112.62
-113.30
-114.37
-115.61
-116.57
-116.64
-115.14
-111.34
-104.57
-94.41
-81.01
-65.32
-49.10
-34.46
-23.16
-15.77
-11.28
-7.41
-1.34
9.12
24.66
44.29
65.70
86.02
102.62
113.58
117.89
115.33
106.41
92.23
74.41
54.96
36.07
19.84
7.88
0.89
-1.47
-0.57
1.71
3.87
5.53
7.68
12.13
20.24
31.77
44.59
55.32
60.92
59.93
52.80
41.19
27.06
12.11
-1.92
-13.10
-19.83
-22.13
-22.74
-26.63
-38.60
-59.97
-86.74
-110.61
-122.68
-117.83
-97.10
-66.78
-35.02
-8.05
11.65
24.55
32.09
35.27
34.51
30.78
26.16
23.55
25.50
32.85
44.11
55.91
64.35
66.39
60.82
48.22
30.60
11.12
-6.77
-20.45
-28.97
-33.11
-34.74
-36.01
-38.77
-44.11
-51.30
-57.84
-61.01
-59.28
-52.96
-43.96
-34.82
-28.10
-25.28
-24.70
-22.13
-13.42
2.92
25.25
49.73
72.00
87.24
91.23
82.97
65.22
43.10
22.52
9.89
11.36
31.34
71.63
122.56
166.15
185.88
177.72
147.61
104.86
58.00
14.82
-21.41
-51.82
-77.89
-93.81
-94.10
-77.74
-49.74
-25.07
-7.53
4.39
14.92
32.92
64.26
107.09
152.22
187.00
200.38
188.80
155.52
108.75
58.83
14.66
-21.46
-52.36
-82.32
-113.50
-142.87
-164.92
-175.16
-173.32
-163.91
-157.59
-165.23
-183.22
-202.97
-213.66
-208.85
-190.06
-174.52
-167.43
-169.72
-178.89
-191.53
-198.47
-195.48
-182.17
-160.66
-133.24
-99.43
-58.73
-6.02
56.83
121.63
176.64
213.17
228.63
226.09
212.58
194.20
178.54
165.65
154.03
141.89
129.07
116.73
106.93
102.12
103.64
109.59
116.81
121.67
120.05
109.10
87.58
55.93
15.82
-29.86
-76.75
-120.04
-154.52
-176.40
-183.79
-177.69
-158.47
-131.51
-105.06
-85.43
-73.54
-64.73
-54.99
-42.31
-27.85
-14.00
-4.08
-0.15
-2.15
-7.93
-14.02
-16.57
-12.10
1.25
22.95
49.71
77.37
102.58
123.65
140.24
152.44
160.21
162.94
159.89
150.68
136.63
120.71
106.45
96.26
90.42
87.19
83.56
76.59
64.29
46.40
24.41
0.83
-21.81
-41.80
-58.66
-73.19
-86.95
-101.58
-117.80
-134.88
-150.75
-162.73
-168.76
-168.08
-161.61
-151.51
-140.32
-129.99
-121.38
-114.23
-107.60
-100.37
-91.63
-80.85
-67.83
-52.69
-35.82
-17.88
0.22
17.51
33.12
46.48
57.32
65.71
71.97
76.53
79.92
82.67
85.12
87.19
88.38
88.03
85.78
82.06
78.15
75.93
77.04
82.28
91.13
102.00
112.84
121.86
128.11
131.59
132.95
132.98
132.16
130.42
127.24
122.00
114.39
104.65
93.47
81.64
69.51
56.78
42.63
26.35
8.02
-11.12
-28.78
-42.35
-49.79
-50.36
-44.73
-34.60
-22.05
-8.89
3.49
14.17
22.55
28.29
31.45
32.51
32.25
31.44
30.36
28.78
26.27
22.80
19.10
16.62
16.80
20.37
26.93
35.03
42.66
47.89
49.35
46.46
39.51
29.74
19.29
10.79
6.73
8.63
16.49
28.69
42.39
54.24
61.05
60.26
50.12
30.06
0.98
-34.38
-71.57
-105.14
-129.96
-142.79
-143.38
-134.56
-121.20
-108.39
-99.60
-95.76
-95.45
-96.16
-95.80
-93.77
-90.99
-88.99
-88.83
-90.19
-91.35
-89.92
-83.80
-72.19
-55.78
-36.35
-15.99
3.70
21.93
38.41
52.84
64.43
71.78
73.45
68.54
57.20
40.65
20.86
-0.20
-21.11
-41.22
-60.54
-79.39
-97.91
-115.96
-133.08
-148.84
-162.84
-174.60
-183.19
-187.01
-183.99
-172.31
-151.38
-122.38
-88.20
-52.39
-17.92
13.78
42.81
70.06
95.95
119.75
139.64
153.57
160.46
160.84
156.75
150.72
144.79
139.73
135.09
130.08
124.48
119.05
115.23
114.28
116.16
119.05
119.59
114.04
99.76
76.42
46.22
13.09
-18.75
-46.30
-68.57
-86.24
-100.77
-113.26
-124.02
-132.63
-138.70
-142.40
-144.53
-145.95
-146.75
-145.89
-141.45
-131.60
-115.68
-94.86
-71.96
-50.55
-33.71
-23.11
-18.81
-19.75
-24.57
-32.21
-42.08
-53.66
-66.15
-78.25
-88.45
-95.53
-98.86
-98.65
-95.73
-91.20
-86.07
-81.16
-77.02
-73.94
-72.04
-71.15
-70.91
-70.87
-70.61
-69.91
-68.75
-67.29
-65.77
-64.41
-63.25
-62.12
-60.66
-58.43
-55.03
-50.33
-44.76
-39.33
-35.47
-34.34
-36.28
-40.38
-44.48
-46.10
-43.27
-35.43
-23.48
-9.35
4.95
17.86
28.49
36.37
41.08
42.39
40.55
36.60
32.30
29.60
29.82
33.11
38.50
44.43
49.60
53.59
56.97
60.88
66.45
74.29
84.26
95.61
107.18
117.84
126.77
133.66
138.89
143.42
148.35
154.44
161.65
168.88
174.34
176.11
172.92
164.55
151.76
135.80
117.85
98.73
78.92
58.89
39.28
20.92
4.61
-9.20
-20.49
-29.43
-36.12
-40.31
-41.35
-38.50
-31.38
-20.26
-6.21
9.17
24.25
37.69
48.65
56.65
61.41
62.80
60.87
56.13
49.62
42.82
37.21
33.82
32.92
33.94
35.72
37.00
36.82
34.88
31.54
27.66
24.29
22.11
21.04
20.03
17.45
11.73
2.22
-10.35
-24.09
-36.84
-47.05
-54.47
-59.86
-64.33
-68.38
-71.61
-73.03
-71.77
-67.64
-61.22
-53.46
-45.15
-36.71
-28.31
-20.09
-12.41
-5.74
-0.35
3.89
7.60
11.70
17.05
24.26
33.33
43.66
54.14
63.43
70.43
74.55
75.89
75.08
72.92
70.00
66.60
62.79
58.59
54.17
49.79
45.69
42.02
38.80
36.03
33.74
31.98
30.84
30.30
30.25
30.45
30.59
30.31
29.28
27.22
24.08
19.98
15.33
10.64
6.33
2.64
-0.48
-3.30
-6.11
-9.07
-12.23
-15.45
-18.61
-21.59
-24.35
-26.97
-29.59
-32.30
-35.21
-38.32
-41.57
-44.78
-47.64
-49.66
-50.21
-48.60
-44.37
-37.48
-28.47
-18.42
-8.66
-0.44
5.47
8.88
10.15
9.89
8.78
7.41
6.23
5.63
5.97
7.58
10.60
14.97
20.28
25.93
31.35
36.33
41.13
46.43
52.84
60.45
68.59
76.11
81.97
85.88
88.38
90.45
92.72
94.99
96.35
95.88
93.48
90.09
87.52
87.51
91.11
98.39
108.51
120.16
131.67
141.06
146.18
145.14
137.02
122.53
104.26
86.06
71.76
63.81
62.34
65.10
68.28
67.76
60.48
45.16
22.40
-5.93
-37.62
-70.67
-103.56
-134.63
-161.62
-181.33
-190.10
-185.27
-166.73
-138.15
-106.74
-81.42
-70.03
-76.72
-100.52
-135.49
-172.60
-202.49
-218.41
-218.25
-204.87
-184.37
-163.28
-145.85
-132.92
-122.76
-113.15
-103.17
-93.58
-85.80
-80.27
-75.62
-69.58
-60.68
-49.80
-40.05
-35.09
-36.95
-44.69
-54.62
-61.67
-61.30
-51.11
-31.59
-6.04
20.54
43.00
57.72
63.56
61.71
54.59
44.53
32.91
20.36
7.34
-5.20
-16.01
-24.05
-29.26
-32.60
-35.44
-38.72
-42.41
-45.99
-49.01
-51.63
-54.43
-57.89
-61.82
-65.26
-66.79
-64.92
-58.24
-45.51
-26.03
-0.33
28.92
56.75
76.98
84.46
77.30
57.96
32.31
7.07
-12.90
-25.93
-33.04
-36.20
-36.65
-34.35
-28.57
-19.02
-6.50
7.30
20.64
32.67
43.56
54.00
64.39
74.25
82.31
86.94
86.91
81.67
71.50
57.27
40.27
21.93
3.59
-13.67
-29.27
-43.17
-55.73
-67.35
-78.08
-87.34
-94.11
-97.25
-96.14
-91.11
-83.44
-75.05
-67.78
-62.84
-60.46
-59.88
-59.80
-58.90
-56.30
-51.87
-46.28
-40.80
-36.87
-35.67
-37.70
-42.59
-49.20
-56.00
-61.57
-64.97
-65.95
-64.77
-61.96
-58.02
-53.24
-47.76
-41.58
-34.55
-26.40
-16.62
-4.68
9.73
26.40
44.41
62.17
77.82
89.65
96.67
98.77
96.64
91.52
84.74
77.47
70.48
64.21
58.84
54.48
51.32
49.58
49.43
50.72
52.96
55.36
57.08
57.47
56.20
53.17
48.46
42.16
34.54
26.18
18.01
11.10
6.23
3.55
2.37
1.50
-0.20
-3.31
-7.59
-12.17
-16.13
-18.85
-20.36
-21.17
-22.02
-23.52
-25.98
-29.26
-32.77
-35.50
-36.10
-33.28
-26.22
-14.95
-0.59
14.93
29.47
41.23
49.39
54.14
56.43
57.55
58.73
60.77
64.00
68.26
72.88
76.82
79.01
78.62
75.43
69.93
63.05
55.79
48.92
42.76
37.47
33.27
30.44
29.17
29.27
29.92
29.91
28.13
24.12
18.49
12.64
8.06
5.54
4.77
4.51
3.31
0.19
-5.09
-12.15
-20.29
-28.85
-37.19
-44.79
-51.19
-56.12
-59.56
-61.73
-62.78
-62.46
-60.18
-55.33
-47.86
-38.66
-29.21
-20.77
-13.71
-7.31
-0.32
8.09
17.81
27.80
36.74
43.71
48.47
51.23
52.14
51.00
47.41
41.21
32.90
23.65
14.89
7.78
2.73
-0.61
-3.13
-5.81
-9.48
-14.74
-21.88
-30.86
-41.12
-51.59
-60.73
-66.92
-68.95
-66.60
-60.99
-54.43
-49.84
-49.83
-55.75
-67.20
-82.11
-97.46
-110.20
-118.17
-120.55
-117.79
-111.16
-102.28
-92.68
-83.70
-76.50
-71.99
-70.61
-72.13
-75.38
-78.34
-78.47
-73.50
-62.08
-44.11
-20.67
6.35
34.43
60.57
81.42
93.85
95.85
87.46
71.19
51.44
33.03
19.50
11.99
9.27
8.89
8.72
8.10
7.97
10.05
15.56
24.29
34.55
43.72
49.36
50.00
45.46
36.54
24.64
11.58
-0.53
-9.20
-12.07
-7.76
3.24
18.23
32.88
42.79
45.17
39.94
29.54
17.70
7.61
0.63
-4.26
-9.84
-19.22
-34.25
-54.18
-75.34
-91.91
-97.74
-88.72
-64.52
-29.12
10.29
45.76
71.21
84.03
85.25
78.03
65.65
49.80
30.09
4.55
-28.87
-70.60
-118.21
-166.00
-205.84
-229.21
-229.96
-206.75
-164.13
-111.60
-60.51
-20.39
4.10
14.10
15.11
14.20
17.08
26.53
42.49
63.20
86.52
110.76
134.65
156.95
176.20
191.05
200.98
206.75
210.27
213.70
218.47
224.62
230.92
235.72
237.70
236.40
231.97
224.82
215.16
203.07
188.75
172.82
156.22
139.91
124.44
109.69
94.85
78.33
57.91
30.80
-5.80
-53.47
-111.10
-173.97
-233.96
-281.37
-307.91
-309.17
-286.05
-244.41
-193.16
-141.73
-97.75
-65.52
-45.59
-35.51
-30.90
-27.23
-21.52
-13.45
-5.32
-0.85
-3.64
-14.06
-29.90
-46.07
-55.79
-52.38
-31.23
8.34
62.05
120.98
173.51
208.36
218.15
201.46
162.80
110.69
54.48
1.85
-42.25
-75.46
-97.12
-107.55
-108.00
-100.90
-89.68
-78.05
-69.06
-64.22
-63.20
-64.36
-65.34
-63.80
-57.90
-46.60
-30.04
-10.17
8.86
21.00
19.87
1.32
-34.26
-81.06
-129.47
-169.31
-193.51
-200.13
-192.01
-174.50
-152.66
-129.69
-107.02
-85.63
-67.18
-53.98
-47.77
-48.29
-52.67
-56.01
-53.24
-40.98
-18.69
11.41
45.27
78.44
107.36
129.99
145.98
156.12
161.81
164.43
165.05
164.25
162.17
158.90
154.79
150.40
146.17
142.19
138.07
133.37
127.93
121.79
115.30
108.86
102.31
94.55
83.72
68.02
46.85
21.22
-7.03
-35.23
-60.14
-78.60
-88.61
-89.94
-84.31
-74.39
-62.93
-52.79
-45.05
-38.50
-30.59
-19.71
-6.69
4.87
10.73
7.69
-6.38
-30.62
-60.85
-90.76
-114.29
-126.95
-126.42
-111.08
-73.10
-11.48
64.46
138.23
195.72
231.04
249.50
257.68
261.13
263.79
266.21
267.41
264.84
258.56
249.99
241.15
232.81
224.19
212.11
190.65
154.55
102.46
38.64
-29.01
-91.91
-144.15
-183.35
-210.58
-229.74
-245.11
-259.85
-275.30
-291.45
-306.86
-318.42
-320.96
-308.66
-277.83
-228.82
-167.10
-102.33
-46.31
-9.93
-0.27
-18.69
-60.42
-116.00
-173.02
-218.76
-242.75
-238.89
-206.62
-150.73
-80.18
-6.09
60.50
111.00
140.76
149.82
142.07
123.62
100.73
77.98
57.49
39.22
22.07
4.94
-12.57
-30.18
-47.05
-62.02
-73.86
-81.57
-85.00
-85.23
-84.73
-86.63
-93.44
-105.82
-121.93
-138.01
-149.75
-153.94
-149.23
-135.97
-115.15
-87.53
-53.05
-11.15
37.85
91.05
141.72
179.90
195.36
181.88
140.88
82.22
21.09
-27.61
-54.59
-58.87
-46.12
-24.40
-0.30
22.06
39.63
48.47
43.85
22.77
-12.74
-54.30
-89.46
-106.69
-99.98
-70.84
-26.32
25.21
77.81
128.48
175.09
214.00
239.94
248.65
240.58
222.07
203.66
194.61
197.07
204.80
206.54
191.80
155.85
101.38
35.71
-31.64
-92.16
-140.34
-172.74
-186.45
-179.50
-152.26
-108.72
-57.79
-10.01
24.15
35.70
19.87
-21.38
-80.15
-144.86
-203.08
-245.65
-266.08
-261.79
-235.04
-190.91
-135.38
-75.56
-19.88
31.52
71.99
87.48
76.75
46.89
4.84
-42.85
-91.50
-138.42
-181.39
-218.18
-231.82
-208.47
-146.64
-59.40
33.53
115.67
178.75
222.16
248.31
262.69
267.65
262.21
245.59
220.00
190.16
161.05
135.97
115.09
98.09
83.58
70.65
60.13
54.49
55.50
62.13
70.39
74.76
71.24
58.03
36.33
9.75
-17.22
-41.05
-60.06
-74.17
-84.04
-89.92
-92.20
-91.22
-87.45
-81.64
-74.96
-68.83
-64.48
-62.48
-62.50
-63.93
-65.96
-67.94
-69.52
-70.62
-71.18
-71.04
-69.88
-67.31
-63.29
-58.14
-52.55
-47.40
-43.58
-41.67
-41.75
-43.22
-44.86
-45.18
-42.96
-37.85
-30.46
-22.06
-13.81
-6.09
1.64
10.17
19.68
29.29
37.25
41.89
42.53
39.87
35.61
31.53
28.68
27.06
25.84
23.86
20.08
13.92
5.28
-5.34
-17.06
-28.91
-40.16
-50.68
-60.86
-71.16
-81.56
-91.32
-99.18
-104.20
-106.33
-106.53
-106.49
-107.75
-111.07
-116.21
-122.15
-127.31
-129.95
-128.21
-120.43
-105.49
-83.36
-55.40
-24.19
7.00
35.13
58.15
75.19
86.49
92.94
95.58
95.46
93.53
90.73
88.04
86.21
85.65
86.15
86.96
87.04
85.51
82.04
77.12
71.84
67.52
65.11
64.89
66.31
68.32
69.63
69.17
66.16
60.17
51.11
39.38
25.89
12.06
-0.57
-10.82
-18.38
-23.84
-28.21
-32.20
-35.56
-37.14
-35.54
-29.98
-20.99
-10.28
-0.19
7.33
11.52
12.97
13.27
14.31
17.48
23.33
31.45
40.80
50.19
58.63
65.46
70.28
72.76
72.50
69.15
62.65
53.42
42.38
30.70
19.52
9.75
2.08
-2.95
-5.28
-5.61
-5.76
-8.42
-16.28
-30.89
-51.76
-76.48
-101.72
-124.60
-143.62
-158.56
-169.54
-175.98
-176.28
-168.42
-151.18
-125.03
-92.33
-56.36
-20.19
14.22
46.07
75.25
101.49
123.94
141.28
152.20
156.08
153.28
145.17
133.83
121.51
110.14
100.92
94.17
89.32
85.14
80.23
73.45
64.31
53.15
40.89
28.68
17.41
7.42
-1.51
-9.89
-18.16
-26.38
-34.28
-41.50
-47.96
-54.00
-60.40
-67.99
-77.44
-89.16
-103.22
-119.33
-136.71
-153.80
-168.28
-177.60
-179.69
-173.81
-160.63
-141.73
-118.56
-91.78
-61.29
-27.00
10.18
48.00
83.31
113.23
136.28
152.76
164.34
173.01
180.05
185.54
188.60
188.13
183.59
175.51
165.28
154.53
144.33
134.74
124.83
113.30
99.20
82.40
63.62
43.94
24.23
4.88
-14.07
-32.49
-49.78
-64.90
-76.77
-84.81
-89.27
-91.08
-91.31
-90.72
-89.57
-87.93
-85.86
-83.48
-80.48
-75.83
-67.75
-54.43
-35.07
-10.60
16.58
43.42
67.58
88.03
104.93
118.72
129.32
135.76
136.81
131.88
121.80
108.84
95.98
85.83
79.76
77.60
77.96
79.08
79.51
78.59
76.30
72.88
68.49
63.06
56.54
49.04
41.09
33.43
26.67
21.13
16.67
12.75
8.71
3.83
-2.43
-10.38
-20.01
-30.87
-42.00
-51.97
-59.10
-61.89
-59.43
-51.73
-39.86
-25.66
-11.26
1.45
11.26
17.79
21.31
22.38
21.61
19.42
16.20
12.35
8.41
4.94
2.43
1.08
0.72
0.94
1.31
1.54
1.61
1.69
1.91
2.19
2.20
1.39
-0.71
-4.36
-9.42
-15.36
-21.44
-26.96
-31.49
-35.10
-38.30
-41.85
-46.42
-52.24
-58.91
-65.38
-70.23
-71.98
-69.54
-62.54
-51.42
-37.46
-22.39
-8.09
3.92
12.72
18.10
20.43
20.41
18.86
16.46
13.76
11.13
8.85
7.12
6.07
5.76
6.18
7.26
8.85
10.70
12.54
14.04
14.97
15.21
14.80
13.87
12.63
11.25
9.84
8.47
7.11
5.67
3.96
1.80
-0.96
-4.32
-8.24
-12.61
-17.46
-22.94
-29.18
-36.10
-43.15
-49.39
-53.64
-54.97
-53.01
-48.07
-40.94
-32.51
-23.44
-14.01
-4.32
5.44
14.76
22.88
29.03
32.76
34.10
33.56
31.93
29.98
28.35
27.37
27.07
27.29
27.76
28.27
28.78
29.42
30.33
31.53
32.74
33.44
33.07
31.35
28.47
25.02
21.79
19.45
18.39
18.64
19.99
22.08
24.44
26.49
27.59
27.22
25.25
22.21
19.29
17.99
19.58
24.47
32.05
40.93
49.46
56.51
61.73
65.42
68.13
70.02
70.70
69.30
64.97
57.27
46.33
32.80
17.59
1.76
-13.67
-27.67
-39.35
-48.23
-54.46
-59.01
-63.35
-69.00
-76.90
-87.15
-99.01
-111.28
-122.62
-131.78
-137.44
-138.16
-132.51
-119.48
-99.13
-73.04
-44.19
-16.25
7.53
25.24
36.68
43.02
45.94
46.84
46.31
44.17
39.80
32.73
23.00
11.25
-1.40
-13.75
-24.82
-34.03
-41.11
-45.86
-47.88
-46.55
-41.34
-32.26
-20.16
-6.80
5.54
14.77
19.50
19.37
14.96
7.55
-1.28
-9.94
-17.14
-22.10
-24.70
-25.39
-24.93
-24.08
-23.15
-22.07
-20.43
-17.85
-14.32
-10.27
-6.37
-3.22
-0.88
1.36
4.97
11.71
22.91
38.77
57.90
77.48
93.99
104.30
106.71
101.32
89.75
74.24
56.77
38.57
20.21
1.97
-15.60
-31.25
-43.02
-48.27
-44.15
-28.56
-1.18
35.43
75.41
110.45
131.64
131.96
108.38
62.73
0.85
-69.45
-140.76
-207.97
-269.14
-324.98
-377.39
-427.50
-474.08
-513.24
-539.46
-547.66
-535.41
-503.93
-457.57
-401.88
-341.61
-279.31
-215.54
-150.27
-84.65
-21.94
32.92
75.14
102.10
114.68
117.05
115.05
113.85
116.25
122.11
129.25
135.14
138.19
138.29
136.29
133.16
129.36
124.80
119.28
113.00
106.54
100.58
95.44
90.64
84.88
76.42
63.81
46.48
25.29
2.41
-19.28
-37.06
-49.22
-55.48
-56.66
-54.15
-49.16
-42.50
-34.63
-26.08
-17.85
-11.34
-8.00
-8.71
-13.23
-20.07
-26.84
-30.86
-29.97
-23.12
-10.45
7.17
28.72
53.58
81.30
110.83
139.84
164.38
179.72
181.80
168.86
142.23
106.03
65.87
27.12
-6.44
-33.29
-53.96
-70.32
-84.47
-97.87
-110.47
-120.56
-125.22
-121.44
-107.33
-83.24
-52.09
-18.99
10.03
29.97
39.15
40.33
40.56
48.66
71.92
112.81
167.56
227.25
280.83
318.82
336.04
332.55
312.61
282.85
249.97
219.24
194.00
175.82
164.93
160.50
160.78
163.10
164.32
161.25
151.43
134.21
111.24
86.02
62.39
43.17
29.33
21.02
17.22
16.12
15.68
14.34
11.33
6.72
1.09
-4.86
-8.98
-10.38
-10.14
-10.73
-14.28
-21.21
-30.11
-38.85
-45.81
-47.76
-43.66
-35.20
-25.62
-17.27
-10.01
-1.57
10.74
28.64
55.90
93.69
139.63
188.52
234.83
274.51
305.43
326.72
314.75
258.77
166.03
58.69
-41.17
-122.37
-184.04
-229.76
-263.50
-288.00
-301.18
-301.82
-292.39
-277.77
-262.63
-249.28
-236.92
-222.87
-204.34
-177.22
-141.16
-100.68
-63.25
-35.13
-19.60
-14.43
-13.83
-12.17
-5.38
5.53
15.51
18.85
12.80
-1.13
-18.47
-35.03
-48.97
-59.78
-68.02
-74.21
-78.38
-80.46
-80.53
-78.74
-74.90
-67.89
-55.33
-34.88
-5.74
30.45
69.56
105.95
133.87
148.56
146.90
127.84
92.51
43.95
-13.22
-73.39
-130.50
-178.65
-213.07
-230.81
-231.33
-216.32
-188.77
-151.53
-106.48
-54.72
2.20
60.69
114.59
156.46
180.19
183.60
169.40
143.99
114.55
86.23
60.64
36.39
10.91
-17.22
-46.84
-74.12
-94.05
-102.53
-98.48
-84.73
-67.48
-54.10
-50.50
-59.13
-78.47
-103.93
-129.27
-148.18
-155.45
-148.34
-127.11
-95.29
-58.76
-23.87
4.76
25.90
41.64
55.57
69.57
82.52
90.74
90.54
80.82
64.57
48.39
40.20
46.60
69.59
106.15
149.29
190.41
221.95
239.31
241.45
230.00
207.77
175.81
133.86
81.61
20.63
-44.74
-108.40
-164.48
-209.52
-238.14
-247.33
-237.17
-211.47
-176.33
-137.82
-101.07
-70.22
-49.32
-37.71
-34.34
-37.59
-45.43
-56.38
-70.23
-87.93
-109.04
-131.42
-149.78
-157.51
-148.48
-119.67
-72.90
-14.44
47.48
106.00
157.80
203.40
244.40
281.08
310.98
329.42
331.65
315.02
280.16
230.55
171.25
107.13
42.52
-18.24
-70.32
-108.86
-130.60
-135.60
-127.95
-114.44
-101.94
-94.45
-91.87
-90.97
-87.85
-80.43
-69.31
-56.87
-45.36
-35.50
-26.31
-16.25
-4.65
7.50
18.02
24.60
26.05
22.76
16.65
10.25
5.59
3.47
3.44
4.58
6.38
9.61
15.64
25.76
39.75
55.31
68.52
75.25
72.81
61.06
42.84
22.88
7.04
0.85
8.09
29.35
61.04
95.71
122.79
134.80
127.68
102.78
65.82
24.39
-14.87
-48.10
-74.21
-93.84
-107.72
-116.41
-120.05
-118.91
-113.92
-106.60
-98.65
-91.24
-84.73
-78.61
-72.27
-65.32
-57.95
-50.87
-44.99
-41.03
-39.14
-38.99
-39.77
-40.82
-41.65
-42.10
-42.35
-42.75
-43.71
-45.52
-48.21
-51.53
-55.10
-58.50
-61.40
-63.69
-65.44
-66.79
-67.80
-68.33
-67.90
-65.77
-61.06
-53.06
-41.51
-26.80
-10.00
7.44
23.95
38.33
49.88
58.49
64.48
68.38
70.71
71.90
72.23
71.81
70.78
69.31
67.64
66.05
64.74
63.75
62.95
62.09
60.93
59.40
57.58
55.69
53.79
51.70
48.90
44.68
38.49
30.16
20.16
9.38
-1.15
-10.60
-18.61
-25.23
-30.77
-35.57
-39.91
-43.94
-47.83
-51.67
-55.41
-58.68
-60.77
-60.69
-57.55
-50.92
-41.04
-28.88
-15.89
-3.61
6.68
14.21
18.76
20.55
20.09
18.11
15.42
12.84
10.87
9.46
7.92
5.30
0.79
-5.75
-13.62
-21.49
-27.84
-31.62
-32.55
-31.11
-28.29
-25.08
-22.23
-20.12
-18.81
-18.02
-17.34
-16.42
-14.98
-12.96
-10.37
-7.42
-4.51
-2.19
-0.67
-0.05
-0.34
-1.54
-3.49
-5.64
-6.85
-5.49
0.26
12.70
33.07
60.76
92.87
124.82
151.54
168.79
174.17
167.64
152.88
135.31
120.38
111.59
109.57
112.49
117.03
119.68
117.97
112.84
106.96
103.38
104.11
109.53
119.13
131.84
146.28
150.45
135.32
97.97
44.78
-11.56
-58.71
-88.89
-100.18
-95.79
-82.42
-66.24
-52.23
-42.99
-38.82
-38.51
-40.02
-41.84
-43.71
-46.41
-49.80
-53.27
-56.08
-57.06
-57.07
-56.87
-56.82
-57.03
-57.41
-57.17
-55.73
-52.97
-49.32
-45.59
-42.12
-38.72
-34.90
-30.02
-23.15
-13.63
-1.37
13.12
28.66
44.20
58.92
72.34
84.30
95.37
106.55
118.66
131.79
144.79
155.69
162.44
163.91
160.58
154.22
146.80
139.14
130.20
117.53
98.94
74.01
44.84
15.33
-10.58
-30.78
-45.88
-58.66
-72.56
-90.02
-111.58
-135.97
-160.87
-183.81
-202.90
-217.29
-227.22
-233.90
-238.99
-243.99
-249.50
-254.45
-256.27
-251.87
-239.34
-219.01
-193.46
-166.53
-141.75
-121.23
-104.72
-89.93
-73.45
-52.28
-24.85
8.32
44.76
80.90
112.59
136.97
153.39
163.12
167.97
168.68
164.28
152.58
131.72
100.67
61.59
19.60
-18.98
-49.65
-71.41
-86.45
-98.43
-110.36
-124.89
-141.69
-157.68
-168.42
-170.67
-163.64
-148.58
-127.92
-104.84
-85.39
-74.89
-75.99
-87.40
-104.80
-122.30
-133.89
-135.13
-111.02
-58.54
11.11
78.69
130.40
163.12
180.40
186.74
184.56
174.00
151.61
116.11
70.46
22.46
-18.54
-45.10
-53.68
-45.19
-24.53
-0.96
20.59
36.57
47.99
58.58
71.88
89.33
109.73
130.08
145.31
151.69
148.41
138.28
125.03
111.18
98.16
87.62
82.03
82.55
88.06
94.15
94.16
80.46
47.53
-4.53
-67.24
-121.90
-148.95
-141.13
-108.71
-71.29
-46.31
-41.45
-53.35
-71.55
-84.64
-87.05
-80.56
-71.68
-66.85
-68.89
-76.30
-84.40
-89.61
-88.75
-82.96
-76.25
-72.12
-71.04
-70.30
-65.86
-54.64
-36.27
-13.18
9.43
25.90
32.77
30.18
21.55
11.70
4.87
2.61
4.59
8.40
11.00
10.40
6.55
1.12
-3.58
-5.72
-4.86
-1.59
2.37
5.03
5.15
2.57
-1.99
-7.52
-13.22
-18.64
-22.95
-25.41
-25.25
-21.89
-15.17
-5.47
6.35
19.11
31.72
44.03
55.91
66.81
75.80
81.99
85.00
85.29
83.94
82.05
81.47
82.97
85.95
89.14
91.53
93.07
94.65
97.54
102.45
110.89
123.09
137.83
153.23
167.42
178.96
187.24
192.79
187.70
169.17
140.26
108.14
79.29
54.90
31.00
2.53
-32.72
-72.59
-110.01
-136.30
-148.80
-147.81
-135.74
-116.43
-93.90
-71.52
-51.63
-34.48
-19.85
-8.05
-3.39
-7.71
-20.02
-36.64
-52.68
-64.44
-70.24
-70.88
-69.76
-69.70
-71.55
-74.73
-77.96
-80.35
-81.69
-82.31
-82.94
-84.11
-85.42
-85.63
-83.76
-79.75
-74.47
-69.31
-65.38
-63.10
-62.23
-61.98
-61.33
-59.57
-56.28
-51.13
-43.95
-34.78
-23.99
-12.25
-0.19
11.87
23.90
35.99
48.01
59.27
68.54
74.41
75.75
72.28
64.76
54.83
44.40
35.17
28.15
23.43
20.45
18.31
16.31
14.12
11.84
9.74
8.01
6.66
5.55
4.55
3.62
2.84
2.16
1.26
-0.37
-3.19
-7.18
-11.67
-15.41
-16.99
-15.28
-9.84
-0.99
10.27
22.53
34.33
44.46
52.09
56.95
59.24
59.52
58.39
56.29
53.39
49.71
45.37
40.68
36.15
32.31
29.58
28.03
27.48
27.41
27.43
27.30
27.08
26.97
27.26
28.11
29.31
30.16
29.43
26.21
19.96
10.84
-0.45
-12.87
-25.12
-36.35
-46.27
-55.74
-65.25
-75.18
-85.24
-94.49
-101.18
-103.01
-98.46
-87.74
-73.84
-60.04
-49.50
-43.95
-43.40
-45.99
-48.32
-47.00
-39.02
-22.86
3.91
39.22
77.87
110.90
129.19
129.05
113.40
97.50
88.00
87.97
97.01
111.97
128.81
140.16
143.57
140.00
132.47
122.92
113.09
102.99
90.88
75.12
56.29
38.26
25.94
23.08
29.82
44.37
63.20
81.32
94.25
100.04
99.95
96.99
94.28
92.71
91.45
87.67
76.07
51.27
10.76
-44.11
-109.12
-178.91
-248.97
-315.75
-367.20
-391.65
-383.93
-348.84
-298.56
-245.60
-198.00
-159.01
-128.36
-104.01
-85.07
-74.45
-70.57
-71.06
-73.61
-76.45
-78.90
-81.11
-83.31
-86.32
-90.59
-95.36
-97.22
-94.53
-87.35
-77.31
-66.57
-56.61
-48.32
-41.54
-34.90
-27.17
-17.85
-7.19
3.92
14.45
23.67
31.06
36.42
40.07
42.42
43.68
44.21
44.54
45.54
48.64
55.60
68.26
88.22
115.99
150.41
188.89
227.88
263.68
293.38
315.27
328.82
334.37
332.59
324.07
309.14
287.71
259.21
222.89
178.52
127.09
71.27
15.02
-37.60
-83.62
-121.83
-152.50
-176.38
-193.73
-204.01
-206.49
-201.22
-189.68
-174.47
-158.54
-144.15
-132.37
-123.17
-116.07
-110.63
-106.87
-105.05
-105.35
-107.42
-110.25
-112.26
-111.74
-107.40
-98.71
-86.05
-70.57
-53.66
-36.55
-19.97
-4.10
11.32
26.48
41.21
54.81
66.16
74.10
77.96
77.87
74.81
70.28
65.76
62.18
59.73
57.97
56.22
53.90
50.61
46.06
39.91
31.83
21.69
9.94
-2.19
-12.77
-19.83
-22.04
-19.36
-12.99
-4.87
3.08
9.53
13.96
16.37
16.74
14.61
9.18
-0.20
-13.38
-29.11
-45.29
-59.56
-69.75
-74.63
-74.23
-69.85
-63.56
-57.48
-53.12
-51.07
-50.87
-50.79
-48.84
-43.78
-35.98
-27.29
-20.10
-16.22
-15.96
-17.76
-17.64
-11.09
4.82
29.60
59.11
86.90
106.64
114.25
109.35
96.69
83.82
78.17
84.14
101.76
127.24
154.61
177.71
184.90
168.82
130.38
80.43
34.26
3.67
-7.30
-1.44
14.49
32.62
47.07
54.01
51.78
40.71
23.15
3.11
-14.79
-26.94
-31.59
-27.64
-16.07
0.75
19.00
33.87
40.67
36.29
20.23
-4.74
-32.49
-55.57
-67.91
-66.12
-50.40
-24.84
3.87
28.00
40.97
39.37
23.35
-3.70
-34.78
-61.29
-76.84
-79.12
-70.41
-56.58
-45.09
-42.87
-54.77
-79.95
-111.19
-138.37
-151.66
-145.24
-119.61
-81.83
-37.95
-1.51
13.35
0.89
-33.58
-76.58
-113.16
-132.43
-130.64
-111.57
-84.86
-63.08
-48.33
-38.68
-30.22
-19.74
-6.84
5.41
12.28
9.93
-0.82
-14.31
-23.89
-25.58
-19.38
-8.66
1.84
8.55
10.38
9.48
10.09
14.88
23.98
35.03
44.51
49.27
47.99
41.43
32.26
24.14
19.58
19.32
22.40
26.68
29.77
29.81
25.99
18.78
9.91
1.48
-4.46
-6.39
-3.78
2.77
11.73
21.06
28.73
33.03
32.78
27.55
17.94
5.63
-6.96
-17.48
-24.79
-29.79
-35.32
-44.96
-61.16
-83.72
-109.46
-133.24
-149.97
-156.40
-151.95
-138.24
-118.12
-94.40
-69.35
-44.74
-22.11
-2.97
11.32
19.89
22.71
20.58
14.78
6.72
-2.47
-11.99
-21.27
-29.66
-36.24
-39.78
-39.14
-33.69
-23.72
-10.37
4.52
18.79
30.50
38.36
41.87
41.31
37.48
31.44
24.43
17.61
11.88
7.75
5.50
5.18
6.67
9.58
13.31
17.34
21.12
24.15
26.12
27.06
27.33
27.37
27.58
28.04
29.48
32.41
36.83
42.05
46.84
50.03
50.90
49.46
46.48
45.23
49.02
59.88
77.58
99.89
123.79
146.60
166.39
181.98
195.76
210.09
225.86
241.54
254.09
260.62
259.90
252.54
240.56
230.71
229.61
241.28
265.57
299.02
337.01
376.13
414.60
428.28
400.73
328.31
224.02
109.55
3.30
-85.28
-153.60
-202.91
-236.16
-253.32
-254.84
-243.12
-223.14
-199.61
-178.57
-163.59
-155.81
-154.66
-155.48
-153.38
-145.32
-131.61
-115.60
-102.24
-95.87
-99.36
-113.45
-134.89
-157.66
-175.22
-182.78
-178.58
-164.10
-142.91
-119.81
-99.64
-85.41
-78.69
-80.16
-90.09
-108.13
-132.97
-161.74
-190.44
-214.57
-229.71
-232.73
-222.59
-200.46
-169.15
-132.24
-92.94
-53.78
-16.42
18.06
48.98
75.65
97.37
113.67
124.41
130.04
131.40
129.52
125.25
119.07
111.10
101.35
90.02
77.74
65.62
55.00
47.13
42.78
41.94
43.89
47.35
50.95
53.55
54.48
53.53
50.78
46.31
40.07
31.95
22.01
10.61
-1.48
-13.22
-23.57
-31.83
-37.85
-42.01
-45.01
-47.52
-49.87
-51.90
-53.06
-52.73
-50.62
-47.07
-43.00
-39.60
-37.80
-37.74
-38.54
-38.51
-35.74
-28.77
-17.11
-1.37
16.99
35.96
53.51
67.87
77.62
81.95
80.68
74.29
63.78
50.43
35.56
20.29
5.71
-7.08
-16.91
-22.71
-23.86
-20.67
-14.42
-7.16
-1.11
2.03
1.42
-2.80
-9.90
-18.98
-29.45
-41.05
-53.58
-66.42
-78.32
-87.53
-92.30
-91.50
-85.11
-74.24
-60.65
-46.29
-32.68
-20.62
-10.01
0.19
11.88
27.21
47.60
72.68
99.78
124.53
142.29
149.86
146.55
134.04
115.34
93.65
71.60
51.25
34.49
23.10
18.36
20.28
27.26
36.39
44.58
49.69
51.06
49.44
46.33
43.17
40.89
39.76
39.55
39.77
39.79
38.86
36.27
31.42
24.05
14.40
3.17
-8.64
-20.05
-30.37
-39.24
-46.55
-52.13
-55.58
-56.31
-53.80
-48.01
-39.59
-29.73
-19.84
-11.11
-4.15
0.97
4.69
7.57
10.12
12.57
14.82
16.55
17.27
16.53
14.14
10.27
5.41
0.29
-4.41
-8.27
-11.19
-13.40
-15.24
-17.05
-18.88
-20.47
-21.27
-20.65
-18.18
-13.86
-8.21
-2.08
3.61
8.13
11.15
12.64
12.75
11.68
9.63
6.78
3.47
0.18
-2.57
-4.40
-5.26
-5.53
-5.93
-7.16
-9.71
-13.58
-18.35
-23.34
-27.97
-31.93
-35.29
-38.32
-41.25
-44.11
-46.68
-48.61
-49.58
-49.51
-48.55
-47.13
-45.69
-44.60
-43.95
-43.58
-43.14
-42.36
-41.15
-39.77
-38.68
-38.32
-38.83
-39.88
-40.80
-40.86
-39.73
-37.60
-35.13
-33.13
-32.26
-32.75
-34.49
-36.98
-39.36
-40.38
-38.36
-31.58
-18.80
0.05
23.54
48.98
73.22
93.56
108.44
117.57
121.42
120.73
116.05
107.83
96.59
83.18
68.81
54.81
42.21
31.52
22.58
14.87
7.77
0.89
-5.76
-11.84
-16.90
-20.56
-22.74
-23.61
-23.55
-22.96
-22.08
-20.99
-19.65
-18.00
-16.09
-14.13
-12.48
-11.51
-11.54
-12.66
-14.71
-17.30
-20.02
-22.54
-24.75
-26.73
-28.66
-30.76
-33.15
-35.87
-38.90
-42.19
-45.63
-48.96
-51.63
-52.83
-51.65
-47.44
-40.20
-30.74
-20.43
-10.88
-3.33
1.64
4.19
4.89
4.36
3.01
1.03
-1.48
-4.27
-6.95
-9.00
-9.97
-9.64
-8.10
-5.73
-3.08
-0.68
1.09
2.00
2.09
1.56
0.68
-0.31
-1.36
-2.53
-4.00
-5.90
-8.21
-10.75
-13.27
-15.58
-17.57
-19.21
-20.52
-21.53
-22.26
-22.84
-23.56
-24.83
-27.03
-30.25
-34.03
-37.33
-38.83
-37.34
-32.31
-24.11
-13.94
-3.41
5.95
13.09
17.72
20.07
20.75
20.37
19.38
18.04
16.49
14.88
13.32
11.99
11.01
10.49
10.41
10.63
10.98
11.30
11.48
11.45
11.17
10.55
9.50
7.95
5.84
3.22
0.24
-2.94
-6.19
-9.42
-12.64
-15.82
-18.82
-21.47
-23.55
-24.99
-25.93
-26.80
-28.21
-30.67
-34.39
-39.04
-43.74
-47.23
-48.27
-45.91
-39.91
-30.74
-19.58
-7.92
2.77
11.38
17.41
20.89
22.28
22.24
21.50
20.68
20.32
20.81
22.28
24.71
27.75
30.95
33.82
35.96
37.22
37.67
37.58
37.27
37.05
37.05
37.24
37.38
37.11
36.02
33.79
30.28
25.59
20.05
14.11
8.24
2.78
-2.18
-6.79
-11.24
-15.62
-19.85
-23.63
-26.67
-28.82
-30.25
-31.40
-32.85
-35.07
-38.25
-42.28
-46.69
-50.67
-53.27
-53.43
-50.33
-43.60
-33.66
-21.68
-9.36
1.53
9.71
14.67
16.65
16.37
14.58
11.84
8.51
4.90
1.41
-1.35
-2.81
-2.60
-0.73
2.33
5.90
9.29
12.05
14.11
15.66
16.93
18.01
18.72
18.70
17.60
15.26
11.80
7.63
3.23
-0.99
-4.89
-8.56
-12.31
-16.47
-21.32
-26.92
-33.10
-39.47
-45.51
-50.79
-55.08
-58.59
-61.88
-65.75
-70.95
-77.83
-86.01
-94.17
-100.08
-101.05
-94.55
-78.90
-53.81
-20.70
17.48
56.71
92.76
122.04
142.24
152.63
153.70
146.69
132.85
113.23
88.81
60.94
31.79
4.19
-18.90
-35.26
-44.17
-46.47
-44.12
-39.38
-34.05
-29.17
-25.08
-21.75
-19.12
-17.42
-17.08
-18.61
-22.26
-27.71
-33.99
-39.65
-43.27
-43.96
-41.79
-37.61
-32.63
-27.69
-23.02
-18.19
-12.55
-5.72
2.25
11.01
20.25
29.88
39.97
50.47
60.88
70.28
77.67
82.47
84.73
85.14
84.64
83.84
82.83
81.25
78.60
74.58
69.35
63.42
57.46
52.04
47.36
43.32
39.69
36.34
33.34
30.88
29.15
28.07
27.29
26.29
24.65
22.49
20.53
19.78
20.94
23.93
27.73
30.69
30.81
26.56
17.46
4.21
-11.65
-28.32
-44.03
-57.12
-66.14
-70.62
-70.71
-66.88
-59.58
-49.41
-37.18
-23.82
-10.19
2.94
13.87
20.92
23.25
21.72
18.18
14.80
13.21
14.24
17.62
20.75
20.19
13.11
-1.35
-22.66
-49.17
-78.69
-108.48
-128.15
-129.00
-109.14
-75.82
-40.09
-10.76
8.48
18.01
20.67
20.11
18.24
15.86
11.48
6.67
3.20
2.31
4.10
7.91
12.57
15.63
14.76
8.86
-0.99
-12.92
-23.46
-30.93
-35.13
-37.19
-39.47
-43.82
-50.58
-58.10
-64.20
-67.20
-66.93
-64.34
-60.83
-57.84
-55.48
-52.69
-47.83
-39.98
-29.45
-17.73
-6.41
3.56
11.68
18.75
25.77
33.17
40.39
46.25
49.73
50.57
49.31
46.17
42.35
39.24
38.41
41.24
48.72
61.13
77.80
97.45
112.94
117.92
109.44
90.16
66.51
44.62
27.85
16.78
13.24
14.72
19.57
26.55
34.39
41.60
46.85
49.77
47.82
41.34
31.47
21.05
13.06
9.61
11.09
16.10
22.21
26.86
28.68
26.82
22.07
15.92
9.93
5.24
2.38
1.49
2.18
3.92
5.45
5.88
4.81
2.32
-1.19
-5.38
-9.97
-15.06
-20.52
-26.34
-31.92
-36.41
-39.15
-39.86
-38.67
-35.45
-30.05
-22.01
-11.24
2.08
17.26
32.97
47.62
59.89
69.51
76.65
81.84
84.83
84.78
80.58
71.08
55.47
31.84
1.64
-31.25
-62.27
-88.86
-109.86
-124.18
-130.97
-130.37
-124.16
-114.97
-108.35
-104.74
-103.04
-101.21
-97.18
-90.06
-80.56
-70.29
-60.44
-51.48
-42.81
-32.83
-21.42
-9.23
2.44
12.10
18.72
21.97
22.02
19.67
15.67
11.06
7.34
6.08
8.05
12.54
16.84
16.55
7.11
-14.31
-46.70
-84.19
-117.59
-137.68
-138.71
-120.57
-88.47
-50.38
-13.78
16.67
39.69
56.01
66.53
71.16
69.13
60.11
45.31
27.65
11.02
-1.02
-6.46
-5.47
-0.06
7.06
13.56
18.35
21.62
24.24
27.03
30.21
33.34
35.68
36.83
36.99
36.98
37.74
39.90
43.33
47.33
50.88
53.16
53.91
53.37
52.13
50.66
49.04
46.90
43.58
38.44
31.14
21.90
11.37
0.57
-9.43
-17.72
-23.69
-27.08
-27.94
-26.50
-23.06
-18.00
-11.72
-4.66
2.71
10.00
16.86
23.05
28.39
32.77
36.08
38.18
39.06
38.68
37.16
34.69
31.59
28.26
25.01
22.02
19.17
16.12
12.49
8.11
3.09
-2.14
-7.06
-11.37
-15.06
-18.44
-21.95
-26.06
-31.05
-36.90
-43.27
-49.40
-54.23
-56.66
-55.74
-51.11
-43.15
-32.91
-21.84
-11.38
-2.58
4.01
8.34
10.68
11.38
10.80
9.33
7.43
5.69
4.68
4.83
6.31
8.94
12.27
15.79
19.02
21.63
23.49
24.56
24.91
24.62
23.75
22.35
20.48
18.19
15.52
12.57
9.43
6.19
2.94
-0.22
-3.25
-6.13
-8.88
-11.49
-13.98
-16.37
-18.73
-21.22
-24.03
-27.34
-31.09
-34.80
-37.58
-38.29
-35.93
-30.14
-21.30
-10.57
0.54
10.59
18.62
24.32
27.88
29.72
30.20
29.57
27.95
25.49
22.53
19.55
17.08
15.49
14.93
15.23
15.99
16.70
16.92
16.39
15.13
13.35
11.38
9.48
7.78
6.21
4.54
2.58
0.22
-2.48
-5.35
-8.14
-10.66
-12.81
-14.56
-15.95
-17.04
-17.93
-18.87
-20.13
-21.95
-24.31
-26.79
-28.58
-28.65
-26.17
-20.80
-12.90
-3.43
6.40
15.49
23.10
28.90
32.89
35.16
35.81
34.99
32.94
30.07
26.90
23.98
21.70
20.23
19.50
19.29
19.37
19.55
19.70
19.64
19.17
18.01
15.97
12.99
9.21
4.96
0.58
-3.64
-7.60
-11.36
-15.05
-18.73
-22.29
-25.47
-27.95
-29.53
-30.21
-30.23
-30.00
-29.97
-30.49
-31.68
-33.43
-35.35
-36.87
-37.29
-35.86
-32.09
-25.83
-17.43
-7.72
2.20
11.23
18.57
23.85
27.14
28.79
29.21
28.70
27.42
25.49
23.11
20.66
18.63
17.48
17.40
18.23
19.53
20.71
21.32
21.21
20.47
19.33
17.95
16.36
14.44
12.10
9.34
6.34
3.37
0.69
-1.58
-3.47
-5.11
-6.61
-7.92
-8.94
-9.55
-9.76
-9.78
-10.00
-10.89
-12.85
-16.00
-20.14
-24.72
-28.91
-31.75
-32.46
-30.59
-26.21
-19.95
-12.77
-5.68
0.49
5.25
8.43
10.05
10.23
9.16
7.19
4.85
2.87
1.89
2.31
4.07
6.72
9.66
12.35
14.51
16.14
17.37
18.29
18.86
18.88
18.15
16.61
14.43
11.93
9.45
7.21
5.18
3.16
0.94
-1.57
-4.20
-6.60
-8.32
-9.07
-8.79
-7.72
-6.30
-5.12
-4.81
-5.85
-8.52
-12.63
-17.50
-22.03
-24.96
-25.26
-22.43
-16.68
-8.84
-0.08
8.42
15.82
21.67
25.81
28.16
28.79
27.75
25.16
21.23
16.44
11.49
7.14
3.88
1.68
0.41
-0.34
-1.13
-2.70
-5.63
-10.27
-16.60
-24.31
-32.93
-41.34
-48.32
-52.96
-55.07
-54.81
-52.54
-48.54
-43.17
-37.00
-29.88
-21.33
-10.57
2.96
20.04
41.33
67.34
98.10
127.70
149.59
158.95
155.38
142.32
124.58
105.61
87.22
69.97
53.92
39.81
28.46
22.13
19.47
19.00
19.60
21.00
23.32
26.67
31.34
37.08
42.95
47.10
48.08
43.83
34.34
21.08
6.22
-7.80
-19.22
-27.38
-32.83
-36.33
-38.54
-39.59
-39.59
-38.93
-38.11
-37.67
-37.87
-38.75
-39.90
-40.95
-41.72
-42.61
-44.29
-47.22
-51.26
-55.44
-58.35
-58.49
-54.86
-47.24
-36.36
-23.65
-10.82
0.60
9.54
15.57
18.92
20.19
20.22
19.67
18.89
17.85
16.32
14.03
10.96
7.36
3.72
0.56
-1.80
-3.33
-4.27
-4.95
-5.70
-6.76
-8.23
-10.10
-12.34
-14.94
-17.88
-21.19
-24.83
-28.64
-32.34
-35.55
-37.94
-39.38
-39.97
-40.00
-39.87
-39.92
-40.39
-41.34
-42.73
-44.34
-45.73
-46.24
-45.13
-41.81
-36.11
-28.36
-19.42
-10.40
-2.40
3.76
7.63
9.14
8.53
6.23
2.85
-0.92
-4.39
-7.01
-8.44
-8.62
-7.72
-6.08
-4.04
-1.88
0.20
2.08
3.67
4.84
5.41
5.30
4.44
2.95
0.96
-1.38
-4.00
-6.90
-10.01
-13.16
-16.06
-18.38
-19.94
-20.76
-21.09
-21.27
-21.68
-22.57
-24.13
-26.43
-29.40
-32.73
-35.78
-37.66
-37.48
-34.61
-29.08
-21.58
-13.32
-5.58
0.65
4.89
7.17
7.83
7.23
5.68
3.47
0.93
-1.50
-3.30
-4.04
-3.52
-1.76
1.18
5.24
10.48
16.91
24.34
32.29
39.98
46.57
51.43
54.33
55.34
54.71
52.66
49.35
44.91
39.64
34.04
28.75
24.30
20.94
18.61
16.91
15.40
13.68
11.56
9.05
6.41
4.10
2.74
3.07
5.65
10.61
17.56
25.64
33.75
40.88
46.32
49.79
51.25
50.83
48.63
44.75
39.39
32.92
25.84
18.81
12.38
6.96
2.68
-0.54
-2.94
-4.81
-6.42
-8.00
-9.70
-11.60
-13.76
-16.20
-18.94
-22.00
-25.51
-29.60
-34.35
-39.68
-45.36
-51.02
-56.25
-60.83
-64.73
-68.14
-71.32
-74.53
-77.85
-81.17
-84.20
-86.49
-87.51
-86.76
-83.83
-78.57
-71.08
-61.75
-51.19
-40.03
-28.74
-17.43
-5.94
6.01
18.45
30.92
42.46
51.77
57.68
59.53
57.43
52.22
45.17
37.59
30.50
24.47
19.69
16.06
13.44
11.66
10.57
9.94
9.40
8.44
6.52
3.30
-1.20
-6.55
-12.05
-16.99
-20.88
-23.67
-25.60
-27.14
-28.72
-30.61
-32.89
-35.42
-37.84
-39.60
-39.94
-38.07
-33.40
-25.81
-15.78
-4.33
7.23
17.66
26.13
32.32
36.37
38.70
39.73
39.79
39.18
38.23
37.41
37.32
38.52
41.30
45.61
51.01
56.92
62.77
68.20
73.13
77.54
81.41
84.47
86.18
85.77
82.36
75.18
63.76
48.05
28.48
5.88
-18.52
-43.28
-66.89
-88.00
-105.38
-118.13
-125.60
-127.34
-123.15
-113.15
-98.04
-79.15
-58.43
-38.05
-19.91
-5.21
5.70
13.18
17.89
20.47
21.39
20.94
19.55
17.77
16.23
15.43
15.45
15.97
16.47
16.51
15.95
15.00
13.92
12.90
11.82
10.33
8.10
5.04
1.41
-2.30
-5.54
-7.97
-9.54
-10.48
-11.24
-12.32
-14.16
-17.06
-20.98
-25.48
-29.60
-32.13
-31.87
-28.11
-20.96
-11.37
-0.91
8.79
16.53
21.80
24.76
25.90
25.74
24.61
22.68
20.02
16.85
13.54
10.65
8.71
8.07
8.71
10.26
12.08
13.55
14.23
14.00
13.08
11.77
10.30
8.67
6.67
4.10
0.87
-2.84
-6.64
-10.10
-12.94
-15.18
-17.09
-19.12
-21.70
-25.04
-29.06
-33.31
-37.08
-39.46
-39.52
-36.55
-30.28
-21.05
-9.79
2.15
13.30
22.48
29.03
32.84
34.28
33.87
32.13
29.47
26.24
22.76
19.47
16.80
15.00
14.16
14.06
14.41
14.91
15.40
15.84
16.21
16.41
16.18
15.20
13.25
10.38
6.92
3.38
0.26
-2.18
-4.00
-5.60
-7.45
-9.86
-12.85
-16.07
-19.02
-21.29
-22.78
-23.73
-24.64
-26.06
-28.39
-31.73
-35.76
-39.77
-42.69
-43.23
-40.31
-33.42
-22.94
-10.17
3.03
14.82
23.91
29.77
32.60
32.99
31.55
28.77
25.01
20.63
16.08
11.91
8.70
6.84
6.56
7.77
10.12
13.05
15.94
18.23
19.54
19.74
18.91
17.25
14.99
12.31
9.29
5.92
2.27
-1.58
-5.44
-9.10
-12.34
-15.05
-17.21
-18.87
-20.20
-21.37
-22.68
-24.46
-27.03
-30.51
-34.58
-38.39
-40.67
-40.10
-35.75
-27.55
-16.39
-3.88
8.07
17.86
24.63
28.30
29.45
28.85
27.18
24.82
21.91
18.63
15.38
12.77
11.47
11.86
13.83
16.79
19.83
22.09
23.00
22.46
20.69
18.05
14.90
11.50
8.02
4.60
1.39
-1.55
-4.22
-6.78
-9.43
-12.36
-15.58
-18.84
-21.78
-24.00
-25.37
-26.10
-26.77
-28.08
-30.58
-34.39
-38.96
-43.12
-45.34
-44.19
-38.94
-29.76
-17.89
-5.18
6.39
15.43
21.32
24.26
24.88
23.88
21.78
18.94
15.71
12.55
9.98
8.41
7.89
8.16
8.70
9.06
9.04
8.76
8.54
8.64
9.10
9.68
9.99
9.61
8.34
6.20
3.44
0.47
-2.24
-4.35
-5.74
-6.53
-7.06
-7.62
-8.33
-9.01
-9.31
-8.93
-7.81
-6.29
-5.00
-4.77
-6.26
-9.80
-15.21
-21.66
-27.76
-31.79
-32.19
-28.01
-19.37
-7.47
5.72
18.20
28.40
35.62
39.96
41.97
42.24
41.19
39.10
36.23
33.04
30.10
28.00
27.16
27.69
29.41
31.88
34.63
37.23
39.42
41.09
42.26
43.00
43.35
43.32
42.87
41.97
40.63
38.88
36.73
34.10
30.84
26.74
21.67
15.70
9.04
1.99
-5.09
-11.99
-18.65
-25.17
-31.84
-38.94
-46.62
-54.69
-62.51
-69.02
-73.01
-73.53
-70.15
-63.18
-53.50
-42.34
-30.95
-20.47
-11.83
-5.71
-2.44
-1.93
-3.66
-6.78
-10.39
-13.83
-16.84
-19.45
-21.80
-23.86
-25.43
-26.23
-26.10
-25.10
-23.57
-21.89
-20.41
-19.24
-18.24
-17.18
-15.75
-13.79
-11.26
-8.25
-4.83
-1.07
2.95
7.12
11.30
15.39
19.30
23.10
26.91
30.75
34.36
37.21
38.60
37.86
34.53
28.54
20.24
10.54
0.80
-7.27
-12.01
-12.32
-8.12
-0.44
8.84
17.59
24.16
27.73
28.35
26.71
23.80
20.59
18.03
16.91
17.85
21.06
26.30
32.93
40.11
46.98
52.87
57.35
60.20
61.32
60.79
58.77
55.62
51.77
47.67
43.72
40.14
36.94
33.90
30.72
27.03
22.61
17.41
11.65
5.84
0.66
-3.18
-5.26
-5.61
-4.95
-4.63
-6.36
-11.66
-21.27
-34.72
-50.14
-64.68
-75.27
-79.58
-76.70
-67.41
-53.85
-38.79
-24.90
-14.25
-8.26
-7.90
-13.88
-26.62
-45.94
-70.61
-98.12
-124.84
-146.55
-159.56
-161.59
-152.51
-134.42
-111.03
-86.65
-65.00
-48.25
-36.72
-29.10
-23.26
-17.09
-9.15
1.08
13.36
27.15
41.90
57.19
72.64
87.49
100.55
110.19
114.90
113.81
107.13
96.14
82.90
69.70
58.57
51.01
47.84
49.20
54.41
61.98
69.86
75.88
78.27
76.16
69.64
59.63
47.49
34.63
22.40
11.99
4.54
0.98
1.87
7.14
16.01
27.09
38.95
50.43
60.94
70.32
78.45
84.89
88.78
89.10
85.11
76.57
63.81
47.39
27.80
5.54
-18.75
-43.92
-68.29
-90.00
-107.54
-120.36
-129.01
-134.84
-139.41
-143.94
-148.95
-154.25
-159.07
-162.29
-162.79
-159.64
-152.48
-141.61
-128.13
-113.69
-100.06
-88.63
-80.05
-74.12
-70.04
-66.92
-64.15
-61.63
-59.47
-57.64
-55.65
-52.61
-47.64
-40.30
-30.79
-19.80
-8.05
4.16
17.02
30.94
45.97
61.35
75.43
86.05
91.20
89.78
81.96
69.14
53.56
37.38
21.86
6.97
-8.69
-27.32
-51.00
-80.55
-114.68
-149.83
-180.77
-202.11
-209.82
-202.49
-181.47
-150.28
-113.60
-76.32
-42.78
-16.34
1.10
9.54
11.12
9.76
10.16
16.41
30.78
53.32
82.02
113.54
143.81
168.30
182.51
182.78
167.38
137.45
97.36
53.55
12.62
-20.75
-44.86
-60.92
-71.49
-78.75
-83.33
-84.43
-80.78
-71.78
-57.99
-40.74
-21.20
0.19
23.61
48.88
74.49
97.16
112.70
117.52
110.26
92.59
68.64
43.47
21.34
4.60
-6.40
-12.55
-15.17
-15.52
-14.73
-14.18
-15.34
-19.41
-26.59
-35.78
-44.76
-51.11
-53.09
-50.17
-42.92
-32.29
-18.74
-1.79
19.72
46.67
78.81
114.00
148.58
178.35
199.80
211.11
212.19
204.13
188.37
166.26
139.24
109.40
79.65
53.41
33.44
20.98
15.37
14.51
15.89
17.57
18.68
19.42
20.67
23.55
29.08
37.91
49.90
63.94
77.94
89.23
95.30
94.58
86.85
73.08
55.01
34.48
13.05
-8.12
-28.22
-46.53
-62.38
-75.12
-84.30
-89.77
-91.94
-91.62
-89.86
-87.55
-85.08
-82.38
-79.06
-74.76
-69.50
-63.72
-58.11
-53.38
-50.00
-48.29
-48.40
-50.54
-54.90
-61.51
-70.10
-79.88
-89.60
-97.64
-102.21
-101.76
-95.36
-83.06
-66.09
-46.64
-27.35
-10.72
1.57
8.92
11.69
10.86
7.66
3.23
-1.40
-5.33
-7.81
-8.30
-6.63
-3.13
1.49
6.43
11.01
14.93
18.22
21.09
23.48
25.09
25.27
23.35
19.02
12.49
4.52
-3.82
-11.59
-18.23
-23.75
-28.71
-33.95
-40.27
-48.08
-57.18
-66.51
-74.34
-78.66
-77.79
-70.92
-58.57
-42.55
-25.42
-9.88
2.04
9.33
12.09
11.14
7.55
2.34
-3.59
-9.36
-13.90
-16.03
-14.66
-9.21
0.03
11.90
24.71
36.85
47.23
55.61
62.32
67.95
73.02
77.75
82.02
85.41
87.17
86.28
81.60
72.18
57.82
39.39
18.86
-1.23
-18.55
-31.84
-41.23
-47.98
-53.60
-58.77
-62.67
-63.24
-58.02
-45.57
-26.45
-3.22
20.40
40.98
56.61
67.24
74.04
78.30
80.53
80.26
76.68
69.55
59.78
49.50
41.24
37.07
37.93
43.40
52.10
62.24
72.22
80.88
87.58
92.10
94.54
95.04
93.75
90.66
85.68
78.77
70.14
60.40
50.42
41.09
32.93
25.94
19.69
13.62
7.43
1.11
-5.06
-10.55
-14.72
-16.66
-15.24
-9.17
2.55
20.12
42.60
67.86
93.11
115.44
132.36
142.11
143.71
136.84
121.92
100.18
73.59
44.72
16.15
-10.05
-32.88
-52.41
-69.57
-85.55
-101.30
-117.29
-133.47
-149.49
-164.85
-178.99
-191.44
-201.91
-210.46
-217.47
-223.64
-229.48
-234.96
-239.26
-240.93
-238.43
-230.67
-217.54
-199.87
-179.14
-156.96
-134.62
-112.79
-91.65
-70.95
-50.24
-29.13
-7.38
14.81
36.78
57.29
74.80
87.69
94.74
95.44
90.23
80.38
67.74
54.41
42.33
33.05
27.42
25.69
27.53
32.14
38.60
45.99
53.75
61.84
70.65
80.63
91.78
103.24
113.39
120.37
122.80
120.26
113.43
103.47
91.43
77.84
62.70
46.06
28.44
10.98
-5.03
-18.69
-29.92
-39.39
-48.06
-56.46
-64.33
-70.49
-73.30
-71.32
-63.90
-51.64
-36.15
-19.64
-4.27
8.41
17.68
23.62
26.78
27.87
27.51
26.18
24.31
22.39
20.98
20.70
22.06
25.27
30.12
36.07
42.38
48.41
53.83
58.61
62.92
66.82
70.17
72.62
73.84
73.79
72.75
71.20
69.48
67.56
65.08
61.51
56.50
50.17
43.02
35.81
29.20
23.53
18.75
14.49
10.26
5.59
0.22
-5.78
-11.92
-17.23
-20.55
-20.85
-17.79
-11.99
-4.91
1.63
6.16
8.14
8.03
6.84
5.47
4.34
3.26
1.94
0.35
-1.01
-1.35
0.09
3.46
8.33
13.84
19.14
23.69
27.31
29.99
31.71
32.24
31.20
28.26
23.36
16.74
8.88
0.36
-8.24
-16.46
-23.82
-29.87
-34.26
-36.83
-37.92
-38.28
-38.98
-41.07
-45.28
-51.83
-60.39
-70.31
-80.79
-91.07
-100.39
-108.00
-113.17
-115.26
-113.99
-109.65
-103.16
-96.02
-89.97
-86.62
-87.09
-91.82
-100.52
-112.18
-125.34
-138.43
-150.08
-159.39
-166.02
-169.89
-170.95
-168.85
-162.95
-152.40
-136.52
-114.91
-87.61
-55.20
-19.07
18.43
53.85
83.10
102.46
110.07
107.21
98.34
89.87
87.65
94.57
109.32
127.25
142.65
151.57
153.55
151.41
149.50
151.59
159.32
172.15
188.32
205.92
223.61
240.53
255.90
268.79
278.39
284.28
286.67
286.45
284.73
282.41
279.97
277.40
274.36
270.43
265.11
257.94
248.49
236.32
221.03
202.27
179.78
153.51
123.66
90.76
55.59
19.29
-16.87
-51.60
-83.79
-112.63
-137.73
-159.13
-177.23
-192.63
-205.90
-217.47
-227.51
-235.93
-242.46
-246.79
-248.59
-247.69
-244.12
-238.26
-230.90
-223.19
-216.34
-211.30
-208.50
-207.80
-208.71
-210.78
-213.75
-217.51
-221.62
-224.99
-225.84
-222.17
-212.46
-196.38
-174.93
-150.18
-124.49
-99.90
-77.70
-58.54
-42.67
-30.21
-21.29
-15.97
-13.96
-14.61
-16.91
-19.62
-21.50
-21.48
-18.68
-12.65
-3.33
8.87
23.15
38.48
53.90
68.94
83.69
98.81
115.11
133.12
152.65
172.75
191.93
208.61
221.59
230.29
234.74
235.24
232.13
225.60
215.70
202.53
186.51
168.51
149.78
131.73
115.44
101.38
89.28
78.33
67.50
55.94
43.22
29.24
14.12
-2.04
-19.19
-37.18
-55.56
-73.46
-89.81
-103.57
-114.15
-121.62
-126.57
-129.93
-132.53
-134.90
-137.11
-138.85
-139.55
-138.49
-134.89
-128.16
-118.02
-104.72
-89.07
-72.28
-55.72
-40.60
-27.76
-17.59
-10.18
-5.46
-3.32
-3.60
-6.03
-10.14
-15.16
-20.19
-24.37
-27.22
-28.86
-29.89
-31.13
-33.19
-36.09
-39.14
-41.24
-41.35
-38.89
-33.91
-26.76
-17.76
-6.89
6.11
21.41
38.65
56.87
74.57
90.12
102.08
109.34
111.20
107.50
98.82
86.78
73.96
63.35
57.40
57.22
62.08
69.92
78.12
84.56
88.31
89.54
89.21
88.34
87.56
86.81
85.58
83.19
79.31
74.30
69.04
64.59
61.35
59.06
56.76
53.59
49.46
45.08
41.49
39.21
37.79
35.85
31.88
25.03
15.54
4.33
-7.81
-20.69
-34.85
-50.77
-68.25
-86.03
-102.15
-114.73
-122.68
-125.98
-125.25
-121.17
-113.81
-102.68
-87.28
-67.77
-45.55
-22.94
-2.64
13.41
24.38
30.68
33.46
33.86
32.67
30.08
26.16
21.17
15.77
10.77
6.98
4.96
4.75
6.01
7.74
8.74
7.87
4.38
-1.87
-10.33
-19.78
-29.05
-37.29
-45.06
-53.37
-63.13
-74.60
-87.32
-100.35
-112.43
-122.85
-131.17
-138.57
-145.73
-152.23
-156.64
-157.21
-152.84
-142.89
-128.05
-109.15
-88.98
-69.56
-52.22
-38.23
-29.73
-29.91
-40.82
-63.24
-94.24
-130.44
-166.56
-197.38
-219.45
-232.03
-237.22
-237.12
-234.87
-215.12
-171.63
-110.04
-45.88
6.29
40.61
53.58
54.03
48.98
43.53
38.29
33.51
32.96
40.35
58.75
88.54
129.47
173.50
210.83
233.38
244.62
250.60
256.71
266.94
279.37
292.43
303.11
309.80
311.19
307.39
298.71
286.03
270.60
253.25
235.36
217.27
199.79
183.03
166.42
147.71
124.10
93.48
55.52
12.96
-29.63
-66.55
-93.43
-108.84
-115.34
-117.81
-121.18
-128.51
-139.72
-152.63
-164.13
-171.93
-175.77
-177.48
-179.56
-183.69
-189.91
-196.58
-201.62
-203.49
-201.89
-197.68
-192.22
-186.28
-179.70
-171.63
-161.25
-148.59
-134.79
-121.76
-111.49
-105.32
-103.47
-105.06
-108.38
-111.20
-111.11
-105.80
-93.30
-72.39
-43.03
-6.77
33.12
72.01
104.75
127.11
136.98
135.00
124.28
109.23
94.01
81.25
71.71
64.56
58.54
53.04
48.52
46.15
47.04
51.64
59.49
69.70
81.01
92.42
103.50
114.23
124.63
134.44
143.06
149.82
154.45
156.19
154.55
149.72
142.64
134.61
126.63
118.94
111.10
102.88
92.95
80.47
65.78
50.41
36.34
24.93
16.18
8.76
1.22
-9.71
-26.77
-50.95
-81.18
-115.14
-150.68
-186.63
-222.84
-250.55
-262.32
-254.93
-232.04
-201.65
-170.88
-142.93
-117.24
-95.84
-74.58
-52.33
-30.35
-10.91
4.26
14.64
20.42
22.95
22.66
20.69
16.63
10.23
2.22
-5.56
-10.82
-11.86
-8.26
-1.01
8.64
18.02
24.73
27.54
26.81
23.94
20.52
17.56
15.07
12.83
9.84
5.37
-0.51
-7.03
-13.34
-19.06
-24.64
-31.12
-39.31
-49.84
-62.61
-76.73
-90.59
-102.04
-108.69
-108.37
-99.82
-83.24
-60.61
-35.33
-11.14
8.96
23.46
32.25
35.84
34.44
27.54
14.34
-5.29
-29.65
-54.84
-75.28
-85.28
-80.75
-60.73
-27.67
13.31
56.02
94.95
126.48
149.08
162.85
168.70
167.52
160.10
147.37
130.74
112.29
94.35
78.89
66.71
57.19
48.54
38.63
25.99
10.43
-6.74
-23.31
-36.82
-45.40
-48.15
-45.19
-37.37
-26.04
-12.75
0.99
13.90
25.07
33.98
40.41
44.29
45.70
44.84
42.03
37.82
32.70
27.04
20.90
14.13
6.61
-1.50
-9.65
-16.97
-22.59
-26.07
-27.49
-27.30
-26.12
-24.43
-22.64
-21.13
-20.33
-20.62
-22.09
-24.45
-26.93
-28.67
-29.00
-27.83
-25.55
-22.79
-20.20
-18.14
-16.90
-16.81
-18.40
-22.12
-28.07
-35.52
-42.92
-48.22
-49.55
-46.04
-38.05
-27.17
-15.60
-5.38
2.07
6.19
7.10
5.29
1.37
-3.94
-9.87
-15.61
-20.46
-23.99
-26.13
-27.09
-27.11
-26.26
-24.28
-20.56
-14.44
-5.45
6.40
20.51
35.80
50.88
64.28
74.69
81.21
83.41
81.48
76.10
68.27
59.04
49.27
39.44
29.67
19.91
10.10
0.29
-9.26
-18.10
-25.62
-31.07
-33.70
-32.86
-28.18
-19.71
-8.05
5.71
20.01
33.23
43.98
51.44
55.49
56.63
55.67
53.38
50.28
46.51
42.06
36.89
31.19
25.34
19.83
15.03
11.10
7.91
5.15
2.48
-0.24
-2.92
-5.27
-6.96
-7.85
-8.03
-7.77
-7.51
-7.69
-8.66
-10.71
-14.07
-18.75
-24.35
-29.95
-34.07
-35.00
-31.12
-21.31
-5.50
15.16
38.31
60.92
80.06
93.70
101.19
103.38
102.30
100.05
97.98
96.29
94.33
91.26
86.67
80.69
73.72
66.70
60.01
53.27
45.72
36.80
26.68
16.19
6.13
-3.14
-10.50
-15.45
-18.27
-19.82
-20.95
-21.87
-22.04
-20.68
-17.24
-9.76
2.50
18.32
34.82
48.90
58.96
65.61
70.91
77.56
90.61
113.35
145.93
185.10
225.63
262.68
293.30
316.67
315.88
281.57
214.95
128.95
40.82
-36.71
-98.31
-143.83
-175.50
-195.98
-205.39
-204.72
-196.63
-185.30
-174.86
-167.78
-163.37
-161.62
-162.00
-161.87
-159.16
-153.15
-144.88
-136.35
-129.38
-124.88
-123.07
-123.23
-122.90
-119.87
-113.03
-102.77
-90.77
-78.66
-67.74
-58.96
-52.73
-48.35
-44.62
-39.93
-32.44
-20.42
-2.74
20.54
47.86
76.65
104.22
128.25
147.08
159.67
165.40
163.98
155.79
142.17
125.58
109.11
95.70
87.39
84.79
87.15
92.51
98.43
102.47
102.50
96.71
83.74
63.02
35.07
1.80
-34.20
-69.29
-99.22
-120.16
-130.03
-129.16
-120.07
-106.53
-92.26
-81.06
-74.59
-71.81
-69.68
-64.93
-55.45
-40.89
-22.57
-2.96
12.74
19.98
16.45
2.55
-19.61
-47.17
-77.04
-106.29
-132.73
-158.15
-184.78
-213.44
-242.62
-269.66
-291.83
-307.18
-315.17
-299.84
-255.46
-189.08
-116.91
-53.05
-3.34
33.09
59.21
77.00
87.01
86.74
75.62
56.56
35.39
17.28
4.83
-2.08
-5.23
-6.55
-9.14
-14.15
-22.17
-29.66
-33.83
-33.67
-29.32
-21.18
-9.47
4.48
19.72
35.34
50.44
63.03
70.42
71.17
65.43
54.81
41.17
26.98
14.37
4.88
-1.26
-5.88
-9.55
-11.96
-12.42
-10.33
-4.77
4.39
16.36
29.31
40.15
48.10
53.77
58.17
62.49
68.43
77.15
89.29
104.79
121.77
140.14
160.02
180.78
193.16
189.47
166.75
129.03
93.81
65.60
45.05
31.82
21.69
12.94
5.65
0.18
-3.29
-5.08
-7.33
-10.29
-13.51
-16.78
-19.72
-21.54
-21.63
-19.70
-16.10
-12.77
-10.43
-9.30
-9.49
-10.73
-12.30
-13.61
-14.52
-15.46
-17.89
-22.22
-28.07
-34.49
-40.03
-43.11
-42.59
-38.04
-29.91
-19.63
-8.44
2.65
12.87
21.93
29.79
36.58
42.47
47.52
51.65
54.80
56.99
58.19
58.53
58.23
57.61
57.06
56.93
57.36
58.29
59.51
60.75
61.85
62.75
63.48
64.05
64.33
64.11
63.23
61.64
59.58
57.44
55.63
54.47
54.12
54.62
56.03
58.27
61.05
63.53
64.37
61.97
55.04
43.16
27.10
8.67
-9.86
-26.43
-39.69
-49.12
-54.88
-57.50
-57.67
-56.23
-54.09
-52.16
-51.04
-50.86
-51.36
-52.09
-52.80
-53.69
-55.25
-57.96
-61.82
-66.30
-70.41
-73.22
-74.21
-73.43
-71.24
-68.14
-64.49
-60.61
-56.83
-53.61
-51.49
-50.96
-52.34
-55.74
-61.06
-67.89
-75.57
-83.16
-89.57
-94.01
-96.25
-96.86
-97.01
-98.03
-100.83
-105.62
-111.78
-118.12
-123.25
-125.85
-124.94
-120.09
-111.55
-100.23
-87.51
-74.81
-63.04
-52.34
-42.08
-31.40
-19.73
-7.29
5.02
15.93
24.48
30.43
34.27
37.02
39.52
42.09
44.42
45.80
45.73
44.23
42.04
40.20
39.62
40.54
42.46
44.45
45.66
45.72
44.89
43.82
43.07
42.74
42.37
41.07
37.97
32.51
24.66
15.01
4.57
-5.40
-13.56
-18.78
-20.34
-18.15
-12.84
-5.60
2.04
8.71
13.47
15.95
16.32
15.00
12.53
9.38
5.99
2.74
-0.08
-2.40
-4.41
-6.40
-8.53
-10.58
-11.95
-12.00
-10.47
-7.80
-4.95
-2.97
-2.46
-3.27
-4.67
-5.93
-6.91
-8.22
-11.13
-17.00
-26.83
-40.85
-58.44
-78.18
-98.13
-116.19
-130.58
-140.39
-145.73
-147.59
-147.15
-145.05
-141.00
-133.91
-122.69
-107.09
-88.10
-67.83
-48.70
-32.63
-20.54
-12.36
-7.37
-4.67
-3.44
-2.99
-2.74
-2.11
-0.61
1.97
5.50
9.27
12.26
13.34
11.64
7.31
1.74
-2.60
-3.11
1.86
12.25
26.39
41.58
55.12
65.05
70.46
71.49
69.01
64.67
60.80
60.54
66.76
81.03
102.71
128.82
154.81
175.73
187.72
188.96
180.88
166.66
149.86
133.33
118.55
105.80
94.50
83.82
73.38
65.14
61.07
61.82
66.30
72.34
78.01
82.28
85.42
88.72
96.60
112.56
137.55
169.74
205.52
241.04
272.76
297.71
313.82
323.93
331.43
338.54
345.44
350.63
351.96
346.90
332.96
288.19
204.31
90.32
-30.76
-136.08
-214.25
-265.59
-296.97
-316.54
-330.68
-339.51
-341.79
-337.34
-327.83
-315.81
-302.72
-288.53
-272.52
-254.08
-230.98
-202.95
-173.39
-145.65
-123.45
-108.79
-101.56
-100.14
-102.28
-104.12
-102.75
-97.01
-87.33
-75.29
-62.26
-49.28
-37.54
-28.75
-24.27
-25.75
-34.59
-51.12
-74.32
-101.19
-127.17
-147.76
-159.74
-161.68
-154.15
-139.19
-119.45
-97.64
-75.87
-55.58
-37.65
-22.56
-10.34
-0.66
7.13
14.02
21.12
29.43
39.36
50.40
61.15
69.83
75.14
76.98
76.66
76.30
77.86
82.35
89.31
97.26
104.40
109.46
112.05
112.54
111.58
109.64
106.76
102.60
96.78
89.23
80.27
70.65
61.22
52.72
45.55
39.78
35.23
31.55
28.43
25.69
23.24
21.07
19.20
17.55
16.00
14.34
12.36
9.91
6.89
3.31
-0.73
-5.05
-9.43
-13.69
-17.75
-21.57
-25.11
-28.31
-31.10
-33.36
-35.04
-36.09
-36.41
-35.79
-33.89
-30.34
-24.95
-17.88
-9.74
-1.45
6.03
11.92
15.85
17.81
18.05
16.91
14.77
12.02
9.11
6.54
4.72
3.89
3.96
4.54
5.10
5.21
4.71
3.76
2.69
1.82
1.16
0.54
-0.36
-1.76
-3.62
-5.67
-7.53
-8.90
-9.73
-10.15
-10.46
-10.99
-12.04
-13.75
-16.12
-18.93
-21.74
-23.98
-25.05
-24.44
-21.99
-17.85
-12.52
-6.73
-1.28
3.14
6.06
7.28
6.90
5.19
2.59
-0.40
-3.28
-5.65
-7.20
-7.75
-7.26
-5.80
-3.47
-0.43
3.09
6.80
10.31
13.28
15.47
16.83
17.49
17.63
17.35
16.57
15.11
12.95
10.25
7.37
4.76
2.70
1.19
-0.13
-1.79
-4.27
-7.83
-12.46
-17.89
-23.62
-28.90
-32.91
-34.92
-34.52
-31.75
-27.11
-21.46
-15.86
-11.29
-8.12
-6.40
-6.01
-6.78
-8.55
-11.04
-13.92
-16.90
-19.82
-21.80
-22.00
-20.05
-16.11
-10.95
-5.59
-0.75
3.49
7.92
15.28
28.31
47.97
72.75
98.67
120.73
134.86
139.24
134.71
125.89
118.10
115.15
118.81
128.93
144.81
166.24
193.47
214.77
219.52
201.15
161.01
108.13
53.34
4.51
-34.64
-63.94
-85.49
-100.36
-107.00
-106.86
-101.48
-92.64
-82.45
-72.77
-64.95
-59.75
-55.88
-51.50
-45.28
-38.27
-31.36
-25.54
-21.45
-19.22
-18.49
-17.75
-15.50
-11.15
-5.00
1.91
7.98
12.10
14.06
14.68
15.74
18.85
24.39
31.38
37.74
40.94
39.22
32.21
21.07
8.09
-4.25
-14.21
-20.93
-24.37
-25.08
-23.81
-21.37
-18.44
-15.51
-12.80
-10.23
-7.42
-3.86
0.60
5.65
10.52
14.26
16.08
15.48
12.42
7.21
0.54
-6.70
-13.48
-18.88
-22.28
-23.55
-23.13
-21.82
-20.53
-19.97
-20.48
-21.97
-24.02
-26.10
-27.75
-28.76
-29.12
-29.03
-28.70
-28.14
-27.13
-25.15
-21.66
-16.25
-8.95
-0.24
8.93
17.41
24.08
28.11
29.14
27.38
23.49
18.39
13.09
8.42
4.93
2.84
2.12
2.50
3.63
5.10
6.60
7.96
9.07
9.87
10.07
9.07
5.99
0.05
-9.02
-20.72
-33.75
-46.55
-57.80
-66.88
-73.84
-79.08
-82.84
-84.98
-85.03
-82.62
-77.87
-71.54
-64.71
-58.35
-52.90
-48.16
-43.55
-38.53
-32.95
-27.09
-21.47
-16.51
-12.35
-8.79
-5.54
-2.37
0.75
3.69
6.25
8.30
9.84
10.94
11.75
12.40
12.99
13.47
13.77
13.82
13.62
13.31
13.08
13.08
13.25
13.36
13.20
12.81
12.69
13.78
17.22
23.92
34.11
47.22
61.85
76.18
88.52
97.68
103.32
105.89
106.46
106.29
106.42
107.34
108.84
110.18
110.23
108.00
103.08
95.85
87.47
79.70
74.51
73.55
77.46
85.12
93.26
96.81
90.18
68.96
31.37
-21.24
-85.03
-154.74
-224.95
-290.53
-346.94
-390.33
-418.15
-429.82
-427.14
-413.82
-394.23
-371.85
-348.40
-324.20
-299.12
-273.62
-249.18
-227.81
-211.17
-199.88
-193.33
-189.95
-187.73
-184.62
-178.77
-168.87
-154.23
-134.91
-111.69
-85.57
-57.25
-26.66
6.95
44.34
85.19
127.43
167.12
199.42
220.32
228.36
225.62
217.22
209.34
206.56
209.90
216.52
221.42
220.13
210.95
195.59
177.85
161.24
147.15
134.51
120.98
104.87
86.49
67.98
52.19
41.13
35.03
32.40
30.83
28.03
22.73
14.82
5.02
-5.70
-16.55
-27.12
-37.10
-46.02
-53.07
-57.19
-57.66
-54.47
-48.66
-42.03
-36.69
-34.28
-35.47
-39.88
-46.37
-53.50
-60.25
-66.24
-71.61
-76.68
-81.29
-84.63
-85.35
-82.19
-74.49
-62.69
-48.00
-31.95
-15.73
0.08
15.25
29.48
41.95
51.37
56.39
56.17
50.81
41.37
29.51
16.99
5.38
-4.27
-11.40
-15.93
-18.07
-18.27
-17.01
-14.47
-10.29
-3.43
7.52
23.80
45.76
72.27
100.73
127.43
148.49
160.78
162.72
154.55
138.20
116.61
92.88
69.55
48.10
29.01
12.18
-2.58
-15.08
-24.72
-30.72
-32.53
-29.96
-23.19
-12.58
1.49
18.43
37.28
56.61
74.74
90.19
102.27
111.23
118.15
124.29
130.38
136.32
141.28
144.18
144.24
141.26
135.49
127.57
118.22
108.28
98.67
90.21
83.40
78.09
73.44
68.20
61.27
52.43
42.48
33.10
26.13
22.79
23.23
26.62
31.55
36.71
41.32
45.28
48.96
52.85
57.31
62.44
68.20
74.65
82.01
90.62
100.77
112.55
125.90
140.58
156.34
172.79
189.29
204.82
217.96
227.17
231.21
229.55
222.54
211.39
197.77
183.31
169.03
155.00
140.30
123.32
102.44
76.71
46.51
13.49
-20.06
-52.10
-81.56
-108.36
-132.80
-154.78
-173.45
-187.62
-196.64
-201.14
-203.04
-204.64
-207.62
-212.28
-217.72
-222.63
-226.01
-227.55
-227.39
-225.71
-222.52
-217.92
-212.32
-206.42
-200.65
-194.73
-187.39
-176.96
-162.32
-143.80
-123.37
-103.88
-87.93
-76.79
-70.03
-66.03
-62.84
-59.11
-54.44
-49.25
-44.35
-40.60
-38.84
-39.86
-44.44
-52.92
-64.89
-78.93
-92.77
-103.78
-109.75
-109.56
-103.29
-92.17
-78.08
-63.02
-48.74
-36.43
-26.68
-19.40
-14.03
-9.73
-5.64
-1.15
3.98
9.62
15.35
20.63
24.95
27.96
29.60
30.13
30.07
30.04
30.48
31.40
32.32
32.36
30.60
26.39
19.66
10.79
0.49
-10.56
-21.76
-32.55
-42.25
-50.03
-55.01
-56.43
-53.99
-47.93
-38.97
-28.07
-16.25
-4.43
6.64
16.30
24.14
29.99
34.04
36.79
38.85
40.71
42.49
43.84
44.08
42.65
39.29
34.27
28.15
21.47
14.46
7.00
-1.09
-9.76
-18.43
-26.13
-31.96
-35.56
-37.37
-38.47
-40.20
-43.52
-48.76
-55.40
-62.54
-69.03
-73.91
-76.62
-77.11
-75.95
-74.25
-73.44
-74.90
-79.33
-86.12
-93.19
-97.44
-95.64
-85.71
-67.48
-42.84
-15.13
12.09
35.98
54.94
68.20
75.27
75.39
67.62
51.75
29.25
3.67
-20.10
-37.65
-47.01
-49.33
-48.13
-47.06
-47.43
-47.35
-42.49
-28.47
-2.91
33.55
77.57
124.04
167.01
200.29
218.12
216.57
194.90
156.56
108.59
59.43
16.26
-16.83
-39.02
-51.77
-57.25
-57.68
-55.38
-53.01
-53.41
-58.75
-69.56
-84.46
-100.82
-115.79
-127.25
-134.23
-136.66
-134.97
-129.73
-121.65
-111.56
-100.24
-88.35
-76.44
-65.16
-55.49
-48.94
-47.12
-51.19
-61.21
-75.88
-92.67
-108.36
-119.81
-124.47
-120.94
-109.24
-90.95
-68.84
-46.14
-25.36
-7.34
9.03
26.02
45.57
67.89
91.03
111.59
126.29
133.43
133.46
128.28
120.09
110.40
99.69
87.89
75.03
61.68
48.72
36.93
26.53
17.26
8.81
1.35
-4.16
-6.27
-3.52
4.77
18.14
34.84
52.13
66.73
75.57
76.48
68.77
53.43
32.88
10.40
-10.73
-28.04
-40.37
-47.85
-51.51
-52.58
-51.84
-49.33
-44.44
-36.48
-25.21
-11.34
3.59
17.57
28.81
36.29
39.95
40.48
38.79
35.63
31.34
26.00
19.65
12.48
4.75
-3.22
-11.15
-18.81
-25.93
-32.10
-36.88
-39.76
-40.24
-37.72
-31.50
-20.83
-5.21
15.24
39.45
65.32
90.08
110.89
125.42
132.35
131.53
123.88
111.10
95.25
78.41
62.43
48.75
38.33
31.62
28.55
28.54
30.71
34.04
37.63
40.89
43.52
45.50
46.86
47.59
47.57
46.67
44.81
42.07
38.59
34.51
29.84
24.45
18.06
10.38
1.19
-9.53
-21.38
-33.52
-44.63
-53.19
-57.83
-57.65
-52.56
-43.26
-31.03
-17.59
-4.72
6.06
13.66
17.69
18.56
17.37
15.55
14.41
14.67
16.42
19.30
22.97
27.39
32.90
39.91
48.59
58.66
69.44
80.05
89.60
97.25
102.09
103.32
100.35
93.16
82.61
70.30
58.11
47.50
38.89
31.54
23.96
14.66
2.90
-10.87
-25.19
-38.07
-47.77
-53.30
-54.66
-52.66
-48.65
-44.12
-40.45
-38.93
-40.61
-46.15
-55.60
-68.16
-82.18
-95.51
-106.11
-112.60
-114.67
-112.99
-108.80
-103.38
-97.63
-91.91
-86.17
-80.17
-73.54
-65.93
-56.97
-46.33
-33.84
-19.62
-4.27
11.23
25.68
37.91
46.98
52.40
54.22
53.00
49.75
45.71
42.13
40.06
40.21
43.01
48.59
56.89
67.55
79.92
93.05
105.83
117.28
126.81
134.33
140.16
144.78
148.52
151.47
153.62
155.17
156.74
159.50
164.80
173.53
185.44
198.81
210.85
218.62
220.05
214.55
202.80
186.03
165.15
140.38
111.60
78.91
43.09
5.52
-32.54
-70.52
-108.65
-147.55
-187.29
-226.71
-263.38
-294.15
-316.15
-327.64
-328.44
-319.78
-303.68
-282.44
-258.10
-232.22
-205.99
-180.42
-156.57
-135.48
-117.98
-104.48
-94.90
-88.83
-85.48
-83.81
-82.52
-80.13
-75.24
-66.76
-54.35
-38.59
-20.99
-3.24
13.36
28.23
41.35
52.90
63.04
71.44
77.21
78.96
75.98
68.63
58.41
47.37
37.50
30.61
27.62
28.33
30.93
33.85
36.03
37.26
37.50
36.84
36.13
36.29
37.90
39.75
40.89
40.53
38.42
34.26
28.16
21.85
17.80
18.24
22.97
31.84
44.58
61.30
81.60
98.72
106.64
102.46
97.49
96.43
101.16
108.02
115.54
122.38
127.21
129.54
129.06
125.28
116.08
100.75
79.89
55.53
29.57
3.60
-20.57
-41.65
-59.27
-75.14
-90.58
-106.21
-121.36
-134.78
-144.78
-149.15
-146.24
-135.66
-119.34
-99.76
-79.47
-60.30
-43.60
-30.13
-20.09
-13.46
-10.22
-10.76
-15.03
-22.55
-32.34
-43.31
-54.42
-64.72
-73.51
-80.39
-85.37
-88.51
-89.80
-89.07
-86.10
-80.72
-72.90
-62.70
-50.19
-35.29
-17.76
2.63
25.77
50.89
76.52
100.69
121.40
137.18
147.31
151.88
151.47
146.79
138.47
126.98
112.74
96.25
78.21
59.43
40.75
22.88
6.33
-8.53
-21.50
-32.46
-41.29
-47.95
-52.48
-55.06
-56.08
-56.07
-55.63
-55.23
-55.13
-55.31
-55.63
-56.02
-56.56
-57.48
-59.01
-61.16
-63.71
-66.18
-68.07
-69.00
-68.79
-67.51
-65.38
-62.68
-59.68
-56.53
-53.13
-49.25
-44.66
-39.29
-33.49
-27.97
-23.60
-21.08
-20.68
-22.17
-24.90
-27.96
-30.53
-31.87
-31.41
-28.77
-23.68
-16.07
-6.05
6.03
19.65
34.01
48.26
61.59
73.43
83.57
92.19
99.69
106.50
112.86
118.65
123.55
127.04
128.61
127.90
124.71
119.03
110.91
100.40
87.57
72.54
55.64
37.52
19.07
1.34
-14.68
-28.26
-39.03
-46.91
-52.21
-55.57
-57.92
-60.25
-63.33
-67.38
-71.95
-76.19
-79.28
-80.93
-81.46
-81.52
-81.65
-81.97
-82.07
-81.14
-78.34
-72.99
-64.83
-54.10
-41.51
-28.15
-15.12
-3.33
6.79
15.13
21.79
26.67
29.46
29.66
26.98
21.62
14.31
6.12
-1.84
-8.73
-14.15
-18.06
-20.53
-21.41
-20.14
-15.95
-8.15
3.17
16.91
31.21
44.02
53.85
60.08
62.86
62.69
60.28
56.46
52.14
48.01
43.96
38.70
29.89
15.24
-6.18
-32.87
-61.14
-86.38
-104.70
-114.32
-115.60
-110.23
-100.06
-86.31
-69.57
-50.34
-29.52
-8.50
11.11
28.02
41.51
51.42
58.03
61.62
62.32
60.04
54.65
46.16
34.85
21.43
6.95
-7.20
-19.54
-28.68
-33.48
-33.27
-27.92
-17.88
-4.31
10.96
25.58
37.15
43.96
45.86
44.37
42.17
41.83
44.60
49.80
55.28
58.61
58.30
54.52
48.73
42.67
37.42
32.96
28.43
22.80
15.47
6.54
-3.35
-13.31
-22.51
-30.40
-36.75
-41.68
-45.48
-48.43
-50.65
-51.96
-52.04
-50.59
-47.65
-43.81
-40.25
-38.64
-40.65
-47.55
-59.57
-75.41
-92.10
-105.49
-111.22
-106.10
-89.29
-62.77
-30.84
1.13
28.25
47.40
57.53
59.46
55.05
46.44
35.69
24.55
14.46
6.53
1.33
-1.11
-1.27
0.10
2.22
4.40
6.15
7.15
7.33
6.97
6.76
7.73
10.93
17.08
26.28
37.94
50.89
63.85
75.52
84.81
90.94
93.41
92.19
87.79
81.25
73.97
67.32
62.20
58.71
56.04
52.78
47.34
38.57
26.10
10.50
-7.08
-25.39
-43.59
-61.36
-78.80
-95.98
-112.64
-128.11
-141.60
-152.57
-160.93
-167.04
-171.40
-174.46
-176.40
-177.19
-176.71
-174.83
-171.46
-166.37
-159.24
-149.80
-137.95
-124.04
-108.76
-92.89
-76.91
-60.73
-43.67
-24.70
-2.88
22.29
50.57
81.02
112.20
142.35
169.87
193.65
213.39
229.70
243.95
257.68
272.02
287.22
302.60
316.70
327.77
333.98
333.84
326.48
312.01
291.90
268.92
246.59
228.25
216.00
209.99
208.52
208.77
207.71
202.94
193.00
177.41
156.41
130.95
102.52
73.18
45.24
20.84
1.42
-12.63
-22.06
-28.46
-33.67
-39.19
-45.57
-52.19
-57.42
-59.11
-55.29
-44.79
-27.74
-5.61
18.93
42.50
61.65
73.63
76.90
71.42
58.43
39.77
17.14
-8.47
-36.61
-66.72
-97.36
-125.90
-148.95
-163.62
-168.65
-164.90
-154.91
-141.75
-127.77
-114.07
-100.69
-87.35
-74.19
-62.08
-52.27
-45.88
-43.33
-44.21
-47.56
-52.23
-57.20
-61.86
-66.03
-69.78
-73.37
-77.08
-81.07
-85.43
-90.07
-94.84
-99.40
-103.12
-105.14
-104.53
-100.75
-94.02
-85.57
-77.38
-71.49
-69.19
-70.42
-73.71
-76.83
-77.67
-75.01
-68.95
-60.78
-52.46
-45.79
-41.74
-40.04
-39.27
-37.43
-32.74
-24.45
-13.12
-0.46
11.39
20.62
26.20
28.03
26.54
22.43
16.54
9.89
3.57
-1.57
-5.44
-9.04
-14.19
-22.61
-34.96
-50.15
-65.64
-78.51
-86.71
-89.85
-89.06
-86.01
-81.87
-76.90
-70.74
-63.17
-54.61
-45.84
-37.23
-28.15
-17.11
-2.76
14.85
33.65
50.05
60.40
62.76
57.63
47.58
35.81
24.54
14.24
4.04
-7.25
-19.95
-33.13
-45.11
-54.36
-60.29
-63.53
-65.42
-67.10
-68.93
-70.36
-70.24
-67.60
-62.00
-53.67
-43.26
-31.66
-19.92
-9.28
-1.08
3.61
4.49
2.48
-0.44
-1.76
0.58
7.49
18.49
31.86
45.40
57.07
65.47
70.11
71.34
70.18
68.05
66.28
65.70
66.23
66.84
65.95
62.07
54.45
43.55
30.82
18.27
7.69
0.18
-4.01
-5.26
-4.20
-1.34
2.98
8.46
14.71
21.05
26.63
30.44
31.50
28.96
22.38
11.84
-1.89
-17.44
-33.00
-46.75
-57.15
-63.26
-64.78
-62.03
-55.72
-46.91
-36.72
-26.26
-16.49
-7.99
-1.01
4.46
8.48
11.01
11.80
10.53
6.88
0.87
-7.04
-15.91
-24.56
-31.80
-36.77
-39.11
-38.98
-36.99
-34.00
-30.99
-28.89
-28.35
-29.61
-32.37
-35.85
-38.98
-40.76
-40.55
-38.37
-34.91
-31.26
-28.56
-27.52
-27.99
-28.81
-28.03
-23.47
-13.53
2.12
22.13
43.86
64.18
80.52
91.66
98.02
101.26
103.39
105.92
109.15
112.03
112.52
108.30
97.49
79.44
54.94
26.17
-3.51
-30.26
-50.61
-62.36
-65.15
-60.47
-51.02
-40.05
-30.54
-24.44
-22.43
-24.08
-28.37
-33.95
-39.45
-43.71
-45.92
-46.14
-44.89
-42.97
-41.24
-40.50
-41.17
-43.07
-45.23
-46.27
-45.88
-44.00
-40.90
-37.33
-34.60
-34.23
-37.14
-43.13
-50.82
-60.19
-70.31
-79.41
-85.61
-88.38
-88.60
-87.76
-86.73
-85.05
-84.53
-85.15
-85.25
-83.09
-79.20
-76.93
-80.85
-94.53
-119.17
-157.31
-206.88
-261.02
-309.90
-344.57
-359.56
-354.19
-332.82
-277.64
-190.58
-90.29
-0.65
66.59
115.83
158.43
201.46
243.21
275.30
284.73
266.27
223.78
168.81
111.67
58.06
10.59
-27.20
-48.90
-50.09
-26.95
19.51
82.39
148.80
204.83
238.77
248.24
240.22
224.28
210.15
202.42
201.06
202.26
201.88
198.45
193.91
191.13
185.33
172.39
151.73
131.26
122.06
130.55
153.01
176.55
184.94
166.63
126.98
75.22
26.00
-7.68
-19.52
-11.24
10.45
38.01
66.54
95.17
120.77
140.88
151.43
147.05
123.11
78.32
15.82
-57.38
-132.49
-202.84
-263.93
-314.52
-355.01
-385.88
-406.38
-414.61
-408.70
-388.18
-355.68
-315.89
-275.33
-239.62
-212.90
-196.69
-189.77
-188.72
-189.28
-188.09
-183.02
-173.52
-157.69
-134.27
-102.98
-64.71
-21.37
24.39
69.29
110.05
144.14
173.90
202.19
230.92
260.33
289.86
319.18
348.38
377.45
406.07
437.80
473.84
511.83
546.53
572.60
586.91
588.83
578.75
530.78
433.31
292.62
131.68
-23.18
-154.09
-254.12
-324.37
-370.96
-403.57
-424.42
-434.18
-433.92
-425.87
-412.41
-395.07
-372.91
-346.03
-315.18
-277.90
-233.12
-182.10
-128.41
-76.43
-29.74
9.55
40.49
63.44
81.89
98.56
114.26
127.85
137.35
141.44
139.93
133.43
123.26
112.30
102.84
96.03
91.55
87.93
83.21
75.71
64.63
50.85
37.26
27.17
23.04
25.42
32.90
42.91
52.62
59.60
62.24
59.89
52.93
42.85
32.19
24.08
21.21
24.78
33.79
45.24
55.23
60.30
58.48
49.62
35.06
17.04
-2.01
-19.91
-35.10
-46.79
-55.02
-60.32
-63.44
-64.94
-65.17
-64.30
-62.59
-60.48
-58.34
-56.28
-53.90
-50.40
-45.00
-37.38
-27.93
-17.62
-7.55
1.48
9.19
15.76
21.42
26.22
30.00
32.69
34.64
36.68
39.85
44.79
51.31
58.30
64.07
67.03
66.22
61.61
54.03
44.87
35.64
27.61
21.59
17.73
15.56
14.20
12.69
10.34
6.96
2.81
-1.64
-5.89
-9.55
-12.16
-13.20
-12.07
-8.36
-2.15
5.88
14.47
22.14
27.70
30.69
31.43
30.99
30.65
31.52
34.23
38.73
44.56
51.10
57.96
65.11
72.81
81.35
90.72
100.47
109.70
117.23
121.64
121.30
114.65
100.54
78.82
50.76
19.15
-12.37
-40.41
-62.81
-79.16
-90.56
-98.78
-105.48
-111.66
-117.78
-124.12
-131.03
-139.02
-148.56
-159.95
-173.31
-188.53
-205.13
-222.04
-237.24
-247.89
-250.67
-242.66
-222.27
-189.79
-147.33
-98.24
-46.21
5.66
55.43
102.48
147.20
190.32
231.95
270.83
304.21
328.43
340.23
338.10
322.80
297.24
265.49
231.60
198.70
168.73
142.51
120.13
101.13
84.85
70.49
57.18
44.01
29.98
14.32
-3.16
-21.79
-40.13
-56.53
-69.83
-79.88
-87.49
-93.84
-99.74
-105.33
-110.25
-114.18
-117.32
-120.32
-123.90
-128.26
-132.94
-137.05
-139.76
-140.54
-139.28
-136.17
-131.52
-125.70
-119.03
-111.86
-104.49
-97.16
-90.03
-83.13
-76.37
-69.60
-62.68
-55.64
-48.69
-42.21
-36.56
-31.96
-28.28
-25.20
-22.32
-19.45
-16.63
-14.04
-11.91
-10.23
-8.87
-7.62
-6.46
-5.56
-5.23
-5.72
-7.05
-8.89
-10.70
-11.98
-12.41
-11.97
-10.91
-9.50
-7.99
-6.49
-4.98
-3.43
-1.91
-0.57
0.41
0.99
1.30
1.62
2.25
3.33
4.77
6.30
7.55
8.26
8.32
7.85
7.02
6.06
5.13
4.29
3.53
2.82
2.13
1.50
1.04
0.82
0.85
1.01
1.06
0.75
-0.03
-1.22
-2.60
-3.88
-4.88
-5.61
-6.20
-6.87
-7.70
-8.58
-9.24
-9.37
-8.83
-7.69
-6.28
-5.12
-4.70
-5.36
-7.17
-9.90
-13.02
-15.92
-18.06
-19.19
-19.49
-19.53
-20.12
-21.99
-25.45
-30.13
-35.14
-39.38
-42.12
-43.41
-44.26
-46.22
-50.75
-58.53
-68.99
-80.39
-90.32
-96.41
-97.27
-93.05
-85.76
-79.11
-77.60
-85.07
-103.03
-129.52
-159.18
-184.80
-199.76
-200.31
-186.70
-162.66
-133.63
-104.69
-78.97
-57.19
-38.23
-20.11
-1.02
19.94
42.49
65.29
86.48
104.29
117.61
126.16
130.49
131.58
130.66
128.95
127.66
127.83
129.94
133.61
137.41
139.42
137.92
132.18
122.59
110.47
97.28
84.19
71.78
60.35
50.46
43.08
39.32
39.95
44.93
53.30
63.51
73.71
82.28
88.34
91.79
93.06
92.64
90.80
87.45
82.58
76.07
67.81
57.83
46.21
32.87
17.95
2.46
-11.50
-20.78
-23.39
-19.83
-13.33
-8.60
-9.79
-18.43
-32.42
-47.95
-58.40
-58.21
-46.45
-26.90
-4.81
16.12
34.50
50.31
63.49
74.28
82.77
89.30
94.80
100.41
106.80
113.73
122.18
129.97
135.22
136.53
133.26
125.93
116.36
107.27
101.33
100.36
104.37
111.64
120.20
128.75
136.95
144.94
152.52
158.06
159.57
154.67
140.46
116.24
83.46
44.54
1.41
-45.07
-94.56
-146.23
-198.43
-250.75
-300.63
-344.33
-378.62
-402.44
-417.15
-425.69
-431.48
-437.44
-447.80
-461.85
-473.76
-475.19
-459.30
-423.67
-371.06
-308.29
-224.51
-125.12
-25.26
59.58
122.22
163.06
184.97
190.78
183.60
167.96
145.79
121.50
100.15
85.41
77.93
75.79
76.47
78.31
80.83
81.80
81.56
80.83
80.33
79.91
78.77
76.27
72.46
67.90
61.86
54.59
47.00
40.25
34.78
30.26
26.05
21.59
16.61
10.21
1.94
-8.51
-21.40
-36.87
-54.52
-72.95
-89.83
-102.55
-109.39
-109.64
-103.66
-92.43
-77.20
-59.26
-40.04
-21.25
-4.94
6.87
12.93
13.34
9.69
4.50
0.30
-1.30
0.00
3.36
7.39
10.90
13.25
14.48
14.90
14.73
13.77
11.46
7.14
0.34
-8.87
-19.97
-32.20
-44.68
-56.66
-67.46
-76.36
-82.63
-85.72
-85.50
-82.51
-77.83
-72.67
-67.76
-62.86
-56.65
-47.12
-32.29
-11.06
16.25
47.78
80.66
111.56
137.56
156.63
167.91
171.71
169.18
161.86
151.23
138.41
124.02
108.32
91.61
74.55
58.32
44.32
33.61
26.33
21.50
17.29
11.61
2.62
-10.92
-29.26
-51.53
-75.48
-97.24
-111.69
-113.82
-100.78
-73.72
-38.13
-2.22
26.13
42.40
47.02
44.50
41.01
41.58
48.49
61.41
78.55
98.04
118.54
138.92
157.62
172.35
180.63
180.88
173.33
160.30
145.42
132.67
124.77
122.32
123.72
125.87
125.47
120.14
109.27
94.14
77.28
61.31
47.83
36.75
26.34
14.15
-1.70
-21.47
-43.45
-64.63
-81.98
-93.63
-99.44
-100.76
-99.57
-97.51
-95.29
-92.62
-88.63
-82.28
-72.87
-60.05
-43.90
-24.87
-3.71
18.61
41.01
62.51
82.29
99.75
114.51
126.31
134.98
140.33
142.24
140.67
135.72
127.75
117.32
105.19
92.25
79.28
66.92
55.48
45.05
35.47
26.53
17.94
9.44
0.82
-8.10
-17.35
-26.78
-36.01
-44.47
-51.60
-57.04
-60.79
-63.24
-65.10
-67.22
-70.30
-74.71
-80.37
-86.69
-92.69
-97.19
-99.02
-97.33
-91.85
-82.98
-71.81
-59.84
-48.65
-39.47
-32.88
-28.73
-26.31
-24.64
-22.79
-20.20
-16.74
-12.78
-8.93
-5.95
-4.49
-4.92
-7.25
-11.06
-15.61
-19.99
-23.31
-24.94
-24.71
-22.93
-20.27
-17.59
-15.62
-14.81
-15.23
-16.75
-19.10
-22.01
-25.10
-27.88
-29.73
-30.00
-28.25
-24.36
-18.56
-11.28
-2.99
5.85
14.78
23.21
30.50
35.95
39.09
39.86
38.55
35.74
32.06
28.00
23.82
19.56
15.19
10.69
6.14
1.63
-2.76
-7.09
-11.57
-16.45
-21.95
-28.09
-34.70
-41.50
-48.22
-54.59
-60.40
-65.34
-69.00
-70.95
-70.92
-68.97
-65.59
-61.59
-57.78
-54.89
-53.21
-52.70
-53.04
-53.69
-54.10
-53.57
-51.35
-46.62
-38.69
-27.23
-12.47
4.71
22.90
40.53
56.27
69.25
79.18
86.18
90.58
92.79
93.08
91.78
89.26
86.00
82.56
79.41
76.91
75.15
73.98
73.04
71.96
70.31
67.87
64.53
60.22
54.93
48.58
41.18
32.80
23.79
14.64
5.86
-2.18
-9.43
-16.02
-22.23
-28.26
-34.20
-40.05
-45.83
-51.62
-57.55
-63.71
-70.06
-76.43
-82.48
-87.63
-91.15
-92.16
-89.87
-83.83
-74.15
-61.46
-46.73
-30.93
-14.82
1.15
16.54
30.74
43.00
52.55
59.16
63.33
66.22
69.29
73.75
80.09
88.01
96.63
104.79
111.44
115.68
116.85
114.55
108.69
99.62
88.04
74.64
59.68
42.73
22.99
-0.06
-25.79
-52.13
-76.13
-94.99
-107.30
-113.62
-116.04
-117.08
-118.73
-121.71
-125.75
-130.05
-133.76
-136.14
-136.39
-133.50
-126.46
-114.60
-97.91
-77.12
-53.43
-28.13
-2.29
23.30
48.12
71.78
94.09
115.11
135.08
154.16
171.97
187.11
197.38
200.52
195.31
182.38
164.22
144.04
124.43
106.22
88.35
68.77
45.85
19.50
-8.70
-36.14
-60.43
-80.31
-95.79
-107.64
-116.60
-122.75
-125.54
-124.38
-119.35
-111.76
-103.97
-98.55
-97.23
-100.20
-106.17
-113.29
-120.25
-126.91
-134.09
-142.58
-152.03
-160.60
-165.61
-165.21
-159.36
-149.82
-138.62
-126.22
-110.52
-87.82
-55.33
-13.73
31.96
74.21
106.28
125.49
134.13
137.64
141.19
146.64
152.03
153.23
146.80
131.81
110.08
84.74
58.58
33.10
8.68
-14.71
-37.06
-58.38
-79.23
-100.62
-123.41
-147.50
-171.30
-192.31
-208.16
-217.61
-220.69
-218.07
-210.11
-196.67
-177.64
-153.55
-126.11
-97.77
-70.63
-45.49
-21.53
3.16
30.50
61.41
95.55
131.32
166.38
198.34
225.54
247.45
264.72
278.42
289.10
296.29
298.46
293.69
280.39
257.73
226.11
187.28
144.78
104.12
72.53
57.59
64.95
96.04
146.74
208.05
268.40
316.94
346.23
353.58
340.67
312.16
273.95
231.57
189.17
149.24
112.64
78.90
46.59
13.53
-22.52
-62.81
-106.48
-150.00
-187.97
-214.97
-228.00
-228.19
-220.74
-212.78
-210.57
-217.11
-231.17
-248.07
-261.46
-265.32
-255.70
-231.70
-195.40
-151.31
-105.58
-64.53
-33.00
-12.69
-1.44
6.15
16.64
35.59
65.29
103.50
143.80
177.48
196.46
195.96
175.74
139.09
91.96
40.93
-8.99
-55.33
-97.91
-137.36
-173.89
-207.23
-237.88
-265.51
-288.54
-304.59
-311.69
-310.00
-302.61
-295.14
-294.53
-307.38
-333.51
-363.66
-382.60
-375.84
-336.44
-267.79
-182.27
-97.60
-32.96
0.58
3.83
-12.70
-34.64
-49.99
-51.83
-38.90
0.70
63.54
132.38
187.07
217.92
227.58
223.59
209.29
189.10
166.47
142.44
119.37
100.35
86.73
79.88
75.95
70.27
60.27
45.42
25.30
2.21
-18.36
-29.39
-25.43
-5.98
24.63
59.01
89.05
108.69
117.67
120.84
123.64
126.96
124.95
108.59
71.36
13.43
-57.64
-129.10
-187.90
-225.48
-240.08
-235.90
-219.56
-197.12
-172.90
-149.54
-128.28
-109.49
-93.13
-79.12
-67.55
-58.50
-51.93
-47.65
-44.95
-42.60
-38.92
-32.33
-21.95
-7.86
9.06
27.59
46.58
65.27
83.07
99.29
112.83
122.20
126.04
123.69
115.76
104.13
91.53
80.69
73.55
70.93
72.62
77.79
85.43
94.66
104.98
116.29
128.78
142.70
158.10
174.70
191.78
208.31
223.22
235.68
245.21
251.63
254.76
254.20
249.25
238.94
222.50
199.70
171.06
137.97
102.28
65.99
30.90
-1.44
-29.61
-52.22
-68.02
-76.40
-77.85
-74.28
-68.58
-63.81
-62.16
-64.33
-69.55
-76.18
-82.70
-88.18
-92.58
-96.40
-100.25
-104.46
-108.95
-113.28
-116.86
-119.16
-119.69
-118.14
-114.36
-108.46
-100.81
-92.10
-83.32
-75.52
-69.58
-65.94
-64.50
-64.53
-65.06
-65.21
-64.57
-63.35
-62.08
-61.42
-61.83
-63.27
-65.02
-65.86
-64.44
-59.68
-51.35
-40.00
-27.00
-14.10
-2.84
6.00
12.47
17.17
20.81
23.66
25.89
27.43
28.01
27.51
26.39
25.14
23.97
22.67
20.29
16.68
12.20
7.43
3.23
1.33
3.00
8.51
16.90
25.37
32.41
37.20
39.22
38.74
37.95
39.12
43.63
51.36
59.38
66.57
72.63
77.35
81.30
87.04
96.80
111.46
130.09
148.64
166.12
183.26
201.31
207.88
194.04
157.98
107.37
67.56
41.50
26.32
19.23
13.31
7.00
2.68
3.01
8.97
18.90
27.11
30.69
28.93
22.95
15.81
12.21
15.56
26.46
41.90
54.64
59.47
53.96
39.27
19.72
1.42
-10.87
-15.52
-14.93
-15.65
-23.33
-41.24
-68.68
-102.29
-136.77
-166.14
-184.13
-185.43
-168.71
-137.01
-98.63
-64.41
-45.93
-50.18
-75.40
-110.26
-138.82
-149.43
-140.02
-118.83
-97.96
-89.22
-98.03
-121.39
-149.74
-167.42
-162.42
-132.61
-96.71
-65.58
-41.30
-17.37
11.06
45.84
84.48
120.35
146.11
157.56
157.15
149.73
140.22
131.32
123.83
117.02
109.03
98.49
85.45
72.70
62.48
55.75
52.04
50.51
49.93
48.15
42.47
30.79
13.79
-5.76
-23.05
-32.68
-30.47
-15.76
7.47
31.92
49.95
56.82
51.55
36.57
16.15
-5.36
-24.80
-40.68
-53.00
-62.82
-71.71
-81.36
-92.68
-104.81
-114.84
-118.80
-113.84
-100.60
-83.52
-69.28
-63.66
-68.73
-82.10
-98.29
-111.26
-117.11
-115.76
-109.79
-102.91
-97.86
-95.55
-95.28
-95.67
-95.11
-92.35
-87.41
-81.00
-74.66
-70.40
-70.45
-76.98
-91.34
-112.49
-130.93
-134.84
-114.18
-68.31
-7.64
52.35
99.10
127.56
142.22
150.72
157.44
162.91
164.84
161.03
152.09
142.09
134.59
133.27
139.26
150.15
161.74
169.97
172.93
171.48
167.87
163.77
158.90
151.57
139.60
122.30
100.86
77.72
54.88
32.76
10.22
-14.38
-40.60
-65.82
-86.49
-100.27
-107.54
-110.93
-113.37
-111.91
-102.44
-80.51
-46.02
-5.70
28.60
44.99
37.03
6.64
-37.25
-84.48
-125.24
-153.03
-165.75
-165.00
-154.31
-137.31
-117.19
-93.73
-69.68
-47.52
-29.52
-17.32
-11.10
-9.44
-9.71
-9.48
-7.81
-6.98
-9.62
-18.64
-35.97
-60.72
-88.50
-110.02
-115.37
-99.03
-64.89
-22.37
17.83
48.86
71.88
90.91
109.49
128.80
147.94
161.56
168.05
168.63
166.22
160.07
150.89
140.75
132.16
131.21
135.38
141.27
146.20
144.87
134.88
116.51
92.11
65.13
38.60
12.94
-12.07
-37.45
-64.05
-89.90
-110.49
-120.87
-118.21
-103.78
-83.44
-63.43
-45.33
-29.49
-14.31
1.21
14.81
21.32
15.53
-4.60
-34.79
-67.69
-95.26
-111.81
-116.16
-111.27
-101.51
-90.73
-81.95
-76.81
-73.05
-68.80
-63.39
-57.77
-53.70
-51.98
-52.57
-55.67
-62.13
-72.27
-85.93
-103.48
-125.35
-150.19
-172.90
-182.28
-169.67
-135.01
-92.04
-50.22
-14.48
14.33
36.82
56.79
78.28
102.69
127.26
149.20
167.42
181.61
191.93
193.06
183.67
166.89
156.88
156.89
166.62
180.99
196.12
208.02
213.29
210.80
200.07
180.08
148.07
104.36
52.79
-0.12
-47.43
-83.33
-103.50
-107.12
-95.25
-73.69
-48.88
-25.84
-6.86
6.69
12.78
9.27
-5.43
-30.76
-64.00
-98.79
-128.32
-147.78
-156.31
-156.30
-150.70
-141.23
-127.84
-111.77
-91.90
-69.39
-47.64
-31.06
-22.80
-22.93
-28.45
-34.59
-36.72
-31.47
-18.51
-0.79
16.15
26.03
24.29
9.54
-16.14
-47.99
-78.55
-98.69
-100.80
-82.31
-47.09
-3.08
40.49
75.95
99.09
109.75
110.80
106.67
101.57
97.90
96.52
96.40
95.59
92.67
87.34
79.80
69.95
58.28
43.24
25.44
7.07
-8.96
-19.99
-25.30
-26.50
-26.79
-29.07
-34.13
-38.79
-38.13
-28.19
-7.72
20.34
50.17
75.51
92.57
97.47
93.06
85.28
77.96
69.92
55.29
28.51
-11.16
-57.73
-101.05
-130.43
-140.49
-135.46
-120.95
-102.98
-85.40
-69.86
-56.22
-44.42
-34.28
-26.80
-23.35
-24.18
-28.72
-35.30
-43.02
-50.88
-59.83
-71.00
-85.59
-103.51
-121.88
-136.30
-138.48
-123.49
-92.09
-51.93
-12.24
20.27
44.73
65.37
85.86
108.53
133.21
160.35
184.67
202.48
211.09
209.96
201.21
187.72
177.35
168.65
158.09
142.45
121.08
95.39
66.09
37.10
12.03
-7.59
-23.83
-40.02
-58.61
-78.73
-96.83
-108.49
-110.79
-104.87
-95.41
-85.04
-75.33
-65.14
-50.87
-30.60
-7.19
11.73
17.33
4.33
-24.92
-61.99
-96.27
-118.97
-126.47
-120.65
-107.35
-90.35
-73.48
-58.39
-44.64
-31.63
-19.54
-9.89
-4.67
-5.73
-14.14
-29.45
-49.84
-72.96
-97.22
-121.04
-142.25
-153.80
-148.74
-124.95
-86.80
-46.15
-7.72
27.51
60.37
90.59
117.27
139.19
155.21
166.57
176.22
182.75
183.52
176.95
163.90
147.60
136.04
128.87
124.33
120.91
118.66
115.34
111.56
108.89
108.18
107.45
100.99
83.84
54.25
15.68
-24.95
-59.74
-83.88
-97.11
-103.03
-107.05
-110.98
-112.30
-102.46
-75.84
-34.56
9.92
42.34
51.26
33.39
-4.15
-49.90
-92.27
-123.50
-140.98
-146.91
-146.02
-139.78
-130.65
-119.75
-107.17
-92.64
-77.02
-61.92
-48.88
-38.22
-29.34
-21.93
-16.14
-13.34
-15.78
-25.76
-43.56
-66.01
-84.08
-87.58
-70.74
-36.07
7.19
48.81
82.32
106.20
122.46
134.06
142.19
146.42
145.80
140.29
131.23
120.88
111.10
102.78
96.65
89.31
77.23
58.49
34.02
7.59
-15.62
-31.95
-41.11
-46.31
-52.83
-63.76
-77.57
-88.20
-88.38
-73.32
-43.75
-5.33
35.25
70.59
95.92
110.00
115.35
114.86
108.81
93.85
66.26
26.24
-20.87
-65.71
-99.02
-115.46
-117.97
-110.76
-98.62
-85.45
-72.98
-61.27
-49.38
-36.82
-24.55
-14.89
-10.14
-12.06
-20.53
-33.80
-49.28
-64.79
-79.52
-94.09
-109.26
-123.86
-131.06
-123.96
-98.99
-59.40
-13.96
28.10
61.35
85.30
102.97
117.75
130.55
140.70
146.95
148.64
146.50
141.90
136.05
129.75
124.82
119.12
110.28
96.03
74.75
47.08
16.21
-12.78
-34.72
-46.76
-50.80
-51.50
-54.04
-61.56
-72.75
-83.32
-88.92
-87.75
-78.45
-63.96
-47.64
-28.88
-7.01
19.17
48.41
74.93
89.78
84.65
55.96
8.51
-46.67
-98.30
-136.13
-154.38
-153.06
-136.85
-112.72
-87.68
-66.31
-48.85
-36.24
-28.52
-25.30
-25.99
-29.49
-34.44
-39.69
-43.68
-45.62
-46.14
-46.17
-46.69
-48.17
-47.99
-42.71
-29.56
-7.65
20.06
47.50
68.77
80.43
82.84
79.76
77.73
79.54
85.57
93.87
101.68
107.37
111.06
114.17
118.70
126.18
134.15
140.74
144.04
142.56
135.76
123.85
107.28
86.86
63.63
38.85
14.16
-9.24
-30.42
-48.41
-62.19
-70.85
-73.01
-67.30
-50.04
-20.77
15.26
48.63
70.75
78.01
71.82
57.43
39.17
19.76
0.55
-17.59
-33.42
-45.32
-49.70
-46.01
-36.43
-25.29
-17.34
-16.49
-24.34
-39.73
-59.20
-78.35
-93.85
-104.07
-109.61
-112.93
-117.75
-127.41
-143.30
-164.13
-186.50
-206.79
-222.24
-231.66
-234.78
-231.34
-220.32
-199.93
-168.48
-125.73
-73.90
-17.57
36.98
82.91
114.04
126.28
118.75
94.62
60.86
26.86
2.35
-5.16
7.62
38.91
82.47
129.43
170.94
200.54
215.59
217.42
210.13
198.63
186.88
176.86
168.56
160.63
151.23
138.67
121.67
99.61
72.52
41.09
6.54
-29.71
-66.61
-103.79
-141.21
-178.18
-212.24
-238.83
-252.24
-247.74
-224.00
-184.29
-135.69
-86.61
-43.81
-10.49
13.69
31.11
44.13
53.91
60.50
63.86
64.77
65.03
66.73
71.14
77.96
85.39
90.78
92.11
89.00
83.16
77.80
76.33
80.87
91.33
105.40
119.46
129.95
134.50
132.47
124.85
113.68
101.20
89.19
78.45
68.65
58.51
46.45
31.39
13.50
-5.75
-23.99
-38.89
-49.08
-54.47
-55.96
-54.76
-51.68
-46.97
-40.58
-32.77
-24.39
-16.85
-11.59
-9.52
-10.66
-14.13
-18.50
-22.28
-24.39
-24.43
-22.77
-20.36
-18.44
-18.26
-20.75
-26.33
-34.74
-45.02
-55.53
-64.18
-68.87
-68.01
-61.11
-49.15
-34.39
-19.89
-8.65
-2.65
-2.33
-6.55
-13.01
-19.04
-22.29
-21.23
-15.28
-4.67
9.74
26.64
44.33
60.84
74.19
82.75
85.72
83.32
76.76
67.83
58.30
49.38
41.48
34.34
27.26
19.40
9.98
-1.76
-16.48
-34.65
-56.29
-80.59
-105.88
-129.68
-149.16
-161.70
-165.53
-160.12
-146.39
-126.52
-103.48
-80.39
-59.81
-43.31
-31.20
-22.87
-17.09
-12.59
-8.28
-3.35
2.75
10.38
19.73
30.72
43.00
55.99
68.97
81.16
91.67
99.45
103.28
102.00
94.83
81.81
63.82
42.35
18.92
-5.60
-30.91
-57.05
-83.35
-107.88
-127.35
-137.97
-136.83
-123.12
-98.76
-67.93
-36.00
-8.03
12.29
23.29
25.21
19.75
9.54
-2.51
-13.62
-21.51
-24.55
-21.95
-13.81
-1.06
14.64
31.13
46.17
57.88
65.09
67.53
65.71
60.56
53.12
44.25
34.54
24.28
13.49
1.70
-11.98
-28.87
-50.19
-76.39
-106.31
-136.81
-163.12
-179.87
-182.76
-169.92
-142.64
-105.04
-62.91
-22.04
13.14
40.45
59.91
73.15
82.52
90.24
97.89
106.25
115.34
124.69
133.68
141.71
148.35
153.41
156.89
158.77
158.77
156.03
149.18
136.66
117.37
91.23
59.58
24.72
-10.88
-45.32
-77.81
-108.29
-136.83
-163.04
-185.78
-203.34
-213.90
-215.97
-208.72
-192.39
-168.36
-139.08
-107.75
-77.53
-50.67
-27.96
-8.93
7.73
23.16
37.97
52.14
65.44
77.81
89.45
100.43
110.36
118.21
122.48
121.81
115.49
103.80
88.08
70.21
52.02
34.59
17.74
-0.06
-21.20
-47.89
-80.96
-118.88
-157.54
-191.21
-214.11
-222.23
-214.61
-193.55
-163.74
-130.86
-99.97
-74.40
-55.20
-41.24
-29.88
-17.88
-2.29
18.67
45.29
76.43
109.93
143.36
174.53
201.91
224.71
242.85
256.74
266.87
273.43
275.88
272.78
262.27
242.68
213.32
174.96
129.58
79.50
26.48
-28.95
-86.84
-146.66
-205.98
-260.21
-303.60
-331.39
-341.73
-336.49
-320.32
-298.61
-275.59
-253.41
-232.56
-212.94
-194.79
-178.78
-165.35
-154.05
-143.37
-131.19
-115.75
-96.21
-72.86
-46.66
-18.72
10.38
40.52
71.92
104.65
138.13
170.98
201.12
226.21
244.23
254.27
256.93
254.30
249.28
244.65
242.11
241.79
242.31
241.17
235.28
221.04
194.52
152.01
91.25
12.95
-78.21
-173.79
-263.53
-338.19
-392.07
-424.04
-436.76
-434.55
-421.29
-399.32
-369.48
-332.27
-288.79
-241.26
-192.35
-144.22
-97.74
-52.50
-7.67
36.96
80.10
119.16
151.16
174.14
188.00
194.44
196.16
195.67
194.61
193.58
192.73
192.36
193.18
195.92
200.84
207.25
213.52
217.81
218.77
216.34
211.67
206.58
202.64
200.51
199.77
199.23
197.59
193.90
187.84
179.73
170.27
160.08
149.52
138.51
126.70
113.80
99.64
84.35
68.29
52.09
36.68
23.28
13.03
6.31
2.09
-2.16
-9.84
-23.82
-45.21
-72.68
-102.83
-131.44
-154.94
-171.41
-180.95
-185.41
-187.76
-191.02
-197.20
-206.52
-217.43
-227.39
-234.12
-236.77
-236.05
-233.72
-231.28
-229.14
-226.47
-221.80
-213.92
-202.50
-188.05
-171.28
-152.34
-130.43
-104.15
-72.46
-35.73
3.79
42.24
75.42
100.26
115.90
123.68
126.02
125.08
121.93
116.56
108.80
99.14
89.01
80.13
73.53
68.90
64.57
58.29
48.17
33.47
14.91
-5.53
-25.16
-41.22
-51.59
-55.28
-52.63
-45.10
-34.73
-23.41
-12.62
-3.38
3.66
8.21
10.39
10.99
11.53
13.73
18.88
26.99
36.88
46.69
54.93
61.23
66.46
72.11
79.37
88.60
99.25
110.27
120.56
129.18
135.40
138.68
138.75
135.73
130.18
122.83
114.10
103.71
90.63
73.68
52.44
27.82
2.10
-21.62
-40.47
-52.53
-57.15
-54.89
-47.21
-36.35
-25.05
-16.30
-12.64
-15.38
-23.97
-35.96
-47.72
-55.64
-57.33
-52.33
-41.93
-28.57
-14.87
-3.10
5.33
9.82
10.64
8.88
6.21
4.47
5.03
8.38
13.97
20.76
27.78
34.65
41.55
48.91
56.93
65.39
73.71
81.25
87.43
91.57
92.64
89.42
80.79
66.53
47.62
26.07
4.06
-16.94
-36.52
-55.02
-72.52
-88.19
-100.11
-106.08
-104.74
-96.46
-83.34
-68.41
-54.45
-43.10
-34.78
-29.16
-25.87
-24.91
-26.54
-30.92
-37.67
-45.81
-53.93
-60.74
-65.36
-67.64
-68.05
-67.57
-67.43
-68.74
-72.18
-77.62
-83.98
-89.32
-91.23
-87.56
-77.14
-60.27
-38.77
-15.51
6.46
24.79
38.31
47.16
52.35
55.26
57.13
58.88
61.11
64.20
68.38
73.77
80.27
87.58
95.26
102.82
109.89
116.09
120.99
123.96
124.27
121.27
114.75
105.17
93.51
80.76
67.39
53.14
37.37
19.69
0.55
-18.71
-36.28
-50.61
-60.70
-66.10
-66.50
-61.68
-51.66
-37.41
-21.00
-5.36
6.75
13.85
16.30
16.09
15.74
17.25
21.36
27.50
34.40
40.74
45.72
49.07
50.82
51.01
49.62
46.86
43.40
40.58
39.97
42.71
48.58
55.56
60.01
57.70
45.13
20.72
-14.56
-57.38
-102.93
-146.19
-183.06
-211.19
-230.16
-241.08
-245.99
-247.12
-246.39
-245.03
-243.38
-240.78
-235.69
-226.12
-210.29
-187.47
-158.45
-125.49
-91.60
-59.45
-30.52
-4.94
18.09
39.47
59.57
77.91
93.52
105.33
112.72
115.68
114.88
111.36
106.27
100.52
94.59
88.54
82.20
75.42
68.13
60.46
52.53
44.40
35.98
27.09
17.69
7.80
-2.53
-13.40
-25.09
-37.87
-51.62
-65.43
-77.37
-84.73
-84.66
-75.11
-55.69
-28.07
4.26
36.83
65.52
87.45
101.54
108.16
108.59
104.29
96.73
87.22
77.21
68.06
60.76
55.48
51.26
46.22
38.12
25.04
6.02
-18.41
-46.43
-75.13
-101.31
-122.18
-136.07
-142.62
-142.75
-138.18
-131.01
-123.36
-117.13
-113.93
-114.77
-119.74
-127.63
-136.05
-141.76
-141.55
-133.06
-115.38
-89.26
-56.91
-21.51
13.46
44.96
70.92
90.66
104.84
115.10
123.19
130.26
136.21
139.76
139.07
132.57
119.94
102.43
82.65
63.76
48.59
38.98
35.60
38.02
44.96
54.55
64.37
71.71
74.02
69.53
58.03
41.13
22.05
4.71
-7.46
-12.49
-10.45
-3.02
7.26
18.11
28.31
38.15
49.02
62.54
79.56
99.48
120.33
139.41
154.30
163.56
167.12
165.80
160.73
152.63
141.68
127.48
109.32
86.56
58.84
26.53
-8.92
-44.88
-77.80
-103.99
-120.69
-127.02
-124.36
-115.92
-105.82
-97.82
-94.42
-96.33
-102.61
-111.28
-120.04
-126.94
-130.85
-131.57
-129.48
-125.17
-119.15
-111.75
-103.13
-93.32
-82.14
-69.28
-54.29
-36.84
-17.21
3.27
22.30
37.10
45.40
46.25
40.29
29.25
15.00
-1.38
-19.83
-40.79
-64.23
-88.79
-111.67
-129.30
-138.48
-137.62
-127.34
-110.27
-90.12
-70.53
-53.94
-41.13
-31.44
-23.49
-15.97
-8.16
0.09
8.48
16.57
23.70
29.03
31.56
30.68
26.97
22.74
21.78
28.14
44.32
69.91
101.22
132.15
156.04
167.46
163.53
144.20
111.93
70.79
25.72
-18.35
-57.13
-87.58
-108.33
-119.70
-123.44
-122.00
-117.79
-112.63
-107.52
-102.65
-97.73
-92.31
-85.97
-78.45
-69.72
-59.97
-49.69
-39.64
-30.62
-23.38
-18.49
-16.25
-16.72
-19.37
-22.79
-24.49
-21.18
-9.81
11.02
39.94
72.60
102.88
124.92
135.18
133.37
122.05
105.11
86.02
66.82
48.12
29.87
