1697721196.00
64.000000
-0.00
-0.00
-0.00
-0.00
-0.00
-0.00
-0.00
-0.00
-0.00
-0.00
0.00
0.01
0.01
-0.00
-0.03
-0.05
-0.05
0.00
0.13
0.36
0.66
1.01
1.37
1.72
2.06
2.40
2.79
3.24
3.80
4.42
5.06
5.66
6.20
6.68
7.15
7.68
8.31
9.14
10.09
11.04
11.88
12.56
13.14
13.76
14.65
15.96
17.91
20.32
22.90
25.38
27.58
29.57
31.68
34.32
37.81
42.54
48.15
54.10
59.83
64.97
69.58
74.14
79.34
85.71
93.76
103.00
112.62
121.73
129.77
136.75
143.30
150.75
157.77
166.64
177.95
191.79
206.97
220.57
228.25
225.36
208.53
176.87
132.76
80.05
23.07
-34.94
-92.44
-149.16
-205.23
-260.37
-313.74
-363.87
-409.83
-450.91
-486.50
-515.74
-537.23
-549.22
-549.96
-538.37
-514.21
-478.67
-433.88
-382.45
-327.02
-269.84
-212.63
-156.66
-102.95
-52.37
-5.90
35.58
71.43
101.35
125.50
144.38
158.69
169.15
176.37
180.75
182.57
182.07
179.51
175.23
169.65
163.18
156.15
148.81
141.30
133.69
126.02
118.33
110.69
103.16
95.80
88.68
81.83
75.25
68.95
62.95
57.25
51.86
46.78
42.03
37.59
33.45
29.61
26.07
22.81
19.83
17.11
14.67
12.48
10.54
8.83
7.35
6.08
4.99
4.07
3.28
2.61
2.02
1.52
1.12
0.79
0.56
0.38
0.25
0.12
-0.01
-0.14
-0.27
-0.37
-0.43
-0.43
-0.40
-0.38
-0.39
-0.47
-0.60
-0.76
-0.89
-0.94
-0.91
-0.82
-0.75
-0.79
-1.00
-1.37
-1.81
-2.18
-2.37
-2.35
-2.18
-2.05
-2.15
-2.60
-3.38
-4.30
-5.07
-5.47
-5.44
-5.11
-4.82
-4.92
-5.61
-6.82
-8.25
-9.44
-10.09
-10.10
-9.67
-9.21
-9.10
-9.54
-10.63
-12.30
-14.44
-16.69
-18.34
-18.36
-15.76
-10.08
-1.90
7.24
15.48
21.47
24.99
26.96
28.77
31.40
34.79
38.01
39.85
39.66
37.62
34.55
31.23
28.03
24.74
21.02
16.79
12.26
8.07
4.71
2.35
0.63
-1.00
-2.97
-5.32
-7.74
-9.80
-11.22
-12.02
-12.35
-12.44
-12.40
-12.21
-11.87
-11.42
-11.14
-11.25
-11.87
-12.98
-14.27
-15.40
-16.04
-15.99
-15.25
-13.80
-11.54
-8.36
-4.06
1.31
7.33
13.21
17.77
20.07
19.71
17.05
13.17
9.33
6.46
4.77
3.81
2.88
1.59
0.04
-1.24
-1.73
-1.30
-0.33
0.40
0.30
-0.77
-2.43
-4.01
-5.04
-5.53
-5.87
-6.77
-8.70
-11.72
-15.56
-19.79
-23.86
-27.60
-31.24
-35.26
-40.07
-45.61
-51.26
-55.77
-57.71
-55.95
-50.12
-40.92
-29.84
-18.71
-9.10
-1.79
3.32
7.01
10.32
13.87
17.82
21.87
25.55
28.71
31.56
34.56
38.15
42.31
46.55
50.07
52.12
52.42
51.18
49.00
46.50
43.97
41.39
38.43
34.79
30.43
25.67
21.01
16.96
13.67
10.97
8.38
5.39
1.70
-2.67
-7.37
-11.81
-15.37
-17.45
-17.56
-15.48
-11.27
-5.37
1.42
8.13
13.80
17.75
19.71
19.82
18.60
16.68
14.74
13.28
12.57
12.71
13.67
15.41
17.98
21.36
25.44
29.78
33.67
36.29
36.98
35.47
32.02
27.24
21.87
16.52
11.41
6.46
1.43
-3.99
-9.92
-16.30
-22.91
-29.30
-34.90
-38.88
-40.31
-38.43
-32.87
-24.00
-12.94
-1.39
8.77
16.00
19.46
19.16
15.79
10.44
4.24
-1.89
-7.36
-11.92
-15.51
-18.17
-19.87
-20.58
-20.26
-18.94
-16.92
-14.64
-12.63
-11.35
-10.96
-11.33
-12.10
-12.90
-13.60
-14.34
-15.46
-17.29
-19.89
-23.09
-26.60
-30.17
-33.77
-37.32
-40.48
-42.40
-41.80
-37.48
-28.92
-16.74
-2.71
10.79
21.57
28.34
31.03
30.55
28.19
25.03
21.54
17.74
13.52
8.99
4.72
1.52
0.03
0.46
2.34
4.82
7.03
8.37
8.72
8.30
7.41
6.26
4.85
3.00
0.56
-2.50
-5.98
-9.49
-12.63
-15.04
-16.65
-17.65
-18.43
-19.40
-20.81
-22.70
-24.98
-27.53
-30.30
-33.22
-35.99
-37.97
-38.12
-35.32
-28.86
-18.84
-6.37
6.73
18.41
27.06
32.02
33.58
32.63
30.16
26.76
22.60
17.67
12.12
6.57
2.01
-0.63
-0.86
1.06
4.22
7.50
9.97
11.29
11.70
11.74
11.85
12.09
12.13
11.42
9.58
6.66
3.22
0.06
-2.12
-3.13
-3.41
-3.80
-5.23
-8.20
-12.68
-18.15
-23.77
-28.77
-32.40
-34.06
-33.19
-29.29
-22.23
-12.48
-1.14
10.11
19.51
25.76
28.31
27.54
24.39
19.99
15.27
10.71
6.49
2.65
-0.68
-3.20
-4.53
-4.42
-2.96
-0.64
1.82
3.67
4.43
4.02
2.71
0.90
-1.05
-3.05
-5.15
-7.46
-10.04
-12.77
-15.49
-18.12
-20.69
-23.39
-26.30
-29.18
-31.34
-31.70
-29.18
-23.14
-13.77
-2.20
9.80
20.37
28.09
32.38
33.44
31.99
28.85
24.56
19.37
13.41
7.03
0.91
-4.04
-7.00
-7.64
-6.39
-4.18
-2.11
-0.96
-0.91
-1.66
-2.74
-3.86
-5.06
-6.59
-8.66
-11.23
-14.00
-16.59
-18.76
-20.55
-22.37
-24.73
-27.94
-31.81
-35.44
-37.35
-35.90
-29.98
-19.52
-5.76
9.12
22.70
33.13
39.61
42.35
42.11
39.61
35.30
29.46
22.46
15.10
8.53
3.94
2.10
3.06
6.18
10.44
14.83
18.70
21.76
23.98
25.44
26.08
25.88
24.78
22.84
20.14
16.80
12.87
8.47
3.71
-1.15
-5.78
-9.89
-13.28
-16.03
-18.42
-20.89
-24.04
-28.39
-34.13
-40.87
-47.48
-52.21
-53.23
-49.22
-40.03
-26.78
-11.57
3.18
15.52
24.36
29.50
31.35
30.51
27.47
22.66
16.50
9.56
2.63
-3.42
-7.84
-10.32
-11.03
-10.57
-9.73
-9.07
-8.77
-8.56
-8.00
-6.90
-5.41
-4.03
-3.40
-3.84
-5.20
-6.90
-8.15
-8.32
-7.21
-5.02
-2.32
0.20
1.92
2.38
1.32
-1.36
-5.56
-10.84
-16.33
-20.64
-22.21
-19.77
-12.90
-2.37
9.91
21.63
30.75
36.25
38.16
37.19
34.17
29.60
23.70
16.71
9.22
2.26
-3.09
-6.11
-6.79
-5.83
-4.22
-2.81
-1.92
-1.36
-0.74
0.22
1.37
2.15
1.86
-0.04
-3.57
-8.17
-12.76
-16.16
-17.45
-16.29
-13.01
-8.42
-3.51
0.81
3.91
5.55
5.93
5.58
5.30
5.99
8.37
12.75
18.88
25.90
32.57
37.54
39.72
38.61
34.43
28.02
20.51
12.99
6.22
0.52
-4.05
-7.44
-9.49
-9.94
-8.67
-5.96
-2.48
0.73
2.68
2.81
1.08
-1.93
-5.43
-8.65
-11.23
-13.30
-15.36
-18.04
-21.73
-26.43
-31.71
-36.95
-41.36
-44.17
-44.53
-41.65
-34.97
-24.40
-10.62
4.84
19.99
32.75
41.61
45.94
46.01
42.75
37.36
30.93
24.28
17.91
12.14
7.29
3.64
1.47
0.83
1.48
2.90
4.43
5.58
6.09
5.93
5.22
4.01
2.18
-0.46
-4.08
-8.63
-13.72
-18.78
-23.14
-26.36
-28.37
-29.59
-30.83
-32.95
-36.44
-41.09
-45.83
-48.94
-48.71
-44.01
-34.76
-22.05
-7.69
6.34
18.42
27.62
33.66
36.70
37.01
34.86
30.59
24.63
17.76
11.00
5.40
1.82
0.56
1.37
3.57
6.29
8.84
10.85
12.22
12.91
12.77
11.56
9.12
5.55
1.33
-2.82
-6.28
-8.77
-10.61
-12.55
-15.43
-19.81
-25.54
-31.69
-36.71
-38.90
-37.06
-30.85
-20.95
-8.89
3.49
14.53
23.03
28.45
30.65
29.83
26.45
21.13
14.70
8.06
2.01
-2.84
-6.31
-8.48
-9.62
-10.04
-9.90
-9.23
-8.00
-6.19
-4.02
-1.87
-0.14
0.91
1.37
1.64
2.42
4.35
7.88
13.07
19.68
27.11
34.61
41.35
46.53
49.61
50.36
49.08
46.64
44.31
43.62
45.89
51.71
60.70
71.37
81.54
88.98
92.05
90.28
84.20
74.95
63.80
51.68
39.15
26.66
14.74
4.13
-4.48
-10.64
-14.42
-16.44
-17.71
-19.27
-21.95
-26.05
-31.40
-37.49
-43.68
-49.55
-54.95
-59.94
-64.64
-69.03
-73.01
-76.56
-79.91
-83.60
-88.03
-92.93
-96.94
-97.71
-92.76
-80.59
-61.61
-38.27
-14.23
6.91
22.77
32.71
37.44
38.20
35.94
30.97
23.25
13.03
1.24
-10.33
-19.68
-25.18
-26.29
-23.72
-19.14
-14.45
-11.11
-9.66
-9.83
-10.95
-12.48
-14.31
-16.71
-20.08
-24.58
-29.99
-35.87
-41.79
-47.49
-52.97
-58.18
-62.68
-65.54
-65.36
-60.87
-51.52
-37.96
-22.10
-6.44
6.71
15.95
21.19
23.24
23.30
22.27
20.47
17.82
14.27
10.16
6.37
3.95
3.78
6.03
10.07
14.69
18.58
20.85
21.40
20.65
19.28
17.89
16.60
15.23
13.48
11.09
7.96
4.13
-0.11
-4.11
-6.86
-7.06
-3.37
5.25
19.26
38.47
62.05
88.61
116.11
142.03
163.52
177.97
183.62
179.83
167.13
146.72
119.90
87.81
51.42
11.95
-28.48
-66.88
-100.01
-125.33
-142.29
-152.58
-159.47
-166.36
-175.21
-185.87
-196.69
-205.82
-212.54
-217.38
-221.39
-224.68
-225.86
-222.61
-213.22
-197.97
-179.44
-161.25
-146.34
-135.63
-127.91
-120.89
-112.58
-102.18
-90.09
-77.41
-65.20
-54.12
-44.27
-35.21
-26.08
-15.56
-2.37
14.27
34.06
55.68
77.38
97.83
116.77
134.92
153.18
171.84
190.32
207.48
222.40
234.84
245.35
254.72
263.48
271.61
278.57
283.59
286.16
286.22
283.98
279.66
273.28
264.50
252.63
236.61
215.40
188.51
156.37
120.30
82.06
43.42
5.85
-29.90
-63.78
-96.66
-129.52
-163.18
-197.96
-233.41
-267.71
-297.22
-317.34
-324.12
-316.59
-296.47
-268.29
-237.88
-210.70
-189.75
-173.69
-158.20
-138.34
-112.30
-79.57
-41.18
1.24
45.06
87.05
124.81
155.69
176.20
180.31
165.30
132.22
86.36
34.73
-14.98
-53.66
-73.35
-69.59
-45.57
-5.96
43.46
97.99
153.45
196.42
216.13
210.95
207.66
216.48
239.79
267.71
295.09
318.87
337.93
353.80
367.84
379.32
382.58
374.48
354.89
326.99
293.31
254.27
209.60
158.67
101.73
38.57
-27.37
-91.59
-150.62
-204.81
-256.83
-308.02
-356.80
-398.98
-431.19
-450.41
-456.02
-449.42
-434.05
-413.78
-391.45
-368.98
-347.79
-329.20
-312.39
-294.35
-271.04
-240.09
-202.73
-164.12
-131.67
-111.64
-106.27
-112.27
-122.65
-129.99
-129.70
-121.14
-106.62
-89.28
-71.27
-53.29
-35.31
-17.53
-0.99
12.68
22.06
26.60
26.96
24.87
22.50
21.72
23.56
28.46
37.23
51.75
74.66
108.01
151.70
202.46
254.11
299.33
331.80
348.39
349.11
335.72
310.46
276.08
236.24
195.19
155.93
118.52
80.76
39.45
-7.38
-58.69
-109.96
-154.70
-187.51
-206.96
-215.01
-213.46
-201.65
-176.63
-135.71
-78.55
-7.50
73.29
159.04
236.79
291.52
314.40
309.46
289.32
265.39
242.98
222.11
199.37
171.40
137.75
101.25
66.74
38.55
18.32
4.86
-4.45
-16.35
-35.10
-60.26
-86.79
-107.73
-118.21
-118.74
-114.63
-110.76
-113.82
-125.61
-142.20
-157.11
-165.96
-168.95
-170.35
-173.60
-177.81
-178.63
-170.44
-151.51
-126.23
-105.13
-94.71
-97.88
-111.26
-126.70
-135.35
-130.93
-112.55
-84.01
-51.16
-18.79
10.01
34.25
53.73
66.94
73.77
75.49
74.00
71.59
70.44
71.56
75.49
82.16
91.43
102.62
113.59
121.05
122.36
116.98
106.88
97.65
91.50
89.25
89.40
88.70
83.85
73.30
57.77
39.58
21.63
6.15
-5.26
-12.22
-15.47
-16.35
-15.71
-13.46
-8.69
-0.32
11.42
25.13
38.19
47.79
51.52
49.47
44.19
39.51
38.74
43.13
52.02
63.15
73.89
82.06
86.57
87.11
83.65
76.26
65.09
50.81
34.77
18.86
4.88
-6.07
-14.28
-21.12
-28.27
-36.51
-44.99
-51.77
-54.93
-53.85
-49.74
-45.01
-41.91
-41.43
-42.90
-44.70
-45.57
-45.45
-45.60
-47.58
-52.08
-58.26
-64.12
-67.67
-68.20
-66.86
-66.48
-70.32
-80.71
-98.01
-120.53
-145.41
-169.89
-192.11
-211.37
-227.78
-241.62
-252.73
-259.98
-261.28
-254.38
-237.27
-208.84
-168.92
-118.66
-60.81
0.19
58.77
109.25
146.62
167.78
172.84
165.63
152.38
139.82
132.75
132.70
138.14
144.98
148.55
145.49
134.34
117.50
99.66
83.90
68.58
52.02
33.86
14.84
-3.93
-19.05
-29.20
-34.83
-37.63
-39.46
-41.03
-42.11
-41.91
-39.40
-33.94
-26.09
-17.38
-10.13
-6.30
-6.44
-9.91
-15.22
-20.60
-24.59
-26.64
-26.85
-25.63
-23.22
-19.44
-14.09
-7.33
0.30
8.03
14.90
20.16
23.35
24.49
24.08
22.76
21.11
19.55
18.16
16.81
15.36
13.77
12.28
11.31
11.14
11.72
12.60
13.11
12.75
11.46
9.72
8.36
8.04
9.02
10.88
12.75
13.79
13.50
12.05
10.12
8.58
8.19
9.26
11.77
15.53
20.35
26.12
32.68
39.66
46.46
52.21
56.07
57.47
56.23
52.54
46.79
39.42
30.93
21.89
13.09
5.58
0.43
-1.64
-0.59
2.68
6.61
9.33
9.44
6.39
0.66
-6.52
-13.74
-20.06
-25.23
-29.73
-34.36
-39.72
-45.96
-52.52
-58.40
-62.45
-63.72
-61.80
-56.94
-49.86
-41.53
-32.82
-24.29
-16.27
-8.91
-2.53
2.44
5.52
6.51
5.68
3.84
2.07
1.37
2.27
4.71
8.15
11.83
15.12
17.67
19.41
20.48
20.94
20.83
20.11
18.74
16.80
14.36
11.47
8.07
4.01
-0.78
-6.09
-11.24
-15.15
-16.64
-14.94
-10.02
-2.80
5.14
12.13
16.97
19.28
19.38
17.96
15.58
12.40
8.24
2.95
-3.23
-9.57
-15.05
-18.83
-20.60
-20.79
-20.28
-19.96
-20.30
-21.20
-22.08
-22.33
-21.62
-20.23
-18.82
-18.15
-18.75
-20.63
-23.42
-26.56
-29.52
-31.98
-33.65
-34.14
-32.83
-29.01
-22.14
-12.33
-0.46
11.86
22.83
31.01
35.71
37.06
35.78
32.73
28.66
24.01
19.10
14.30
10.12
7.19
6.06
6.90
9.49
13.11
16.91
20.15
22.42
23.69
24.17
24.09
23.56
22.46
20.65
18.11
15.02
11.78
8.76
6.21
4.14
2.43
1.07
0.39
1.08
4.05
10.00
19.05
30.47
42.80
54.20
63.13
68.74
71.09
70.87
68.93
65.87
61.83
56.70
50.54
43.76
37.19
31.67
27.66
24.92
22.73
20.25
17.07
13.41
9.97
7.46
6.19
5.78
5.21
3.21
-1.25
-8.56
-18.30
-29.29
-40.08
-49.39
-56.56
-61.55
-64.60
-65.70
-64.22
-59.07
-49.24
-34.55
-16.24
3.35
21.52
36.14
46.35
52.53
55.70
56.72
55.83
52.69
46.94
38.78
29.38
20.50
13.93
10.71
10.72
12.82
15.44
17.21
17.42
16.10
13.71
10.82
7.77
4.60
1.21
-2.51
-6.54
-10.78
-15.16
-19.67
-24.40
-29.36
-34.15
-37.91
-39.34
-37.20
-30.91
-20.97
-9.01
2.76
12.34
18.60
21.52
21.84
20.50
18.13
14.87
10.58
5.29
-0.55
-6.11
-10.42
-12.83
-13.23
-12.10
-10.35
-8.86
-8.22
-8.53
-9.48
-10.61
-11.54
-12.26
-13.03
-14.27
-16.29
-19.19
-22.85
-27.03
-31.47
-35.80
-39.55
-41.86
-41.73
-38.19
-30.82
-20.05
-7.25
5.49
16.04
22.80
25.24
23.93
20.24
15.71
11.55
8.23
5.63
3.39
1.30
-0.37
-1.07
-0.30
1.99
5.18
8.24
10.17
10.50
9.45
7.67
5.76
3.82
1.35
-2.48
-8.29
-16.13
-25.31
-34.80
-43.63
-51.26
-57.55
-62.48
-65.77
-66.76
-64.59
-58.63
-48.97
-36.46
-22.65
-9.25
2.38
11.46
17.83
21.81
23.80
24.20
23.35
21.66
19.74
18.30
18.15
19.78
23.19
27.83
32.68
36.73
39.30
40.30
40.23
39.82
39.62
39.78
39.90
39.33
37.40
33.75
28.37
21.62
13.96
5.87
-2.34
-10.54
-18.57
-26.01
-32.03
-35.40
-34.97
-30.21
-21.74
-11.23
-1.01
6.81
11.07
11.74
9.64
5.85
1.09
-4.34
-10.36
-16.80
-23.11
-28.47
-32.12
-33.64
-33.15
-31.23
-28.57
-25.78
-23.09
-20.55
-18.14
-15.95
-14.37
-13.80
-14.50
-16.37
-18.85
-21.22
-22.81
-23.38
-23.25
-23.08
-23.61
-25.29
-27.92
-30.63
-32.05
-30.74
-25.68
-16.66
-4.31
10.01
24.70
38.27
49.59
58.01
63.19
65.09
63.99
60.38
55.05
48.86
42.68
37.27
33.12
30.51
29.56
30.29
32.56
36.03
40.02
43.55
45.23
43.77
38.27
28.63
15.75
1.31
-12.79
-25.08
-34.97
-42.82
-49.52
-56.08
-63.12
-70.86
-79.19
-87.61
-95.35
-101.23
-103.76
-101.64
-94.20
-81.98
-66.74
-51.05
-37.57
-28.35
-24.32
-25.34
-30.51
-38.59
-48.37
-58.80
-69.00
-78.15
-85.35
-89.67
-90.15
-85.90
-76.19
-60.60
-39.27
-13.13
15.98
45.28
71.52
91.64
103.61
107.07
103.33
94.92
84.66
74.70
66.10
58.87
52.39
46.14
40.07
34.83
31.45
30.87
33.33
37.99
43.11
46.58
46.64
42.46
34.31
23.44
11.84
2.07
-3.03
-1.22
7.74
20.95
32.47
35.22
24.10
-1.27
-35.85
-71.20
-99.45
-116.68
-123.99
-125.89
-126.92
-129.11
-131.42
-131.42
-127.73
-121.30
-115.06
-112.17
-114.26
-120.63
-128.79
-135.67
-139.16
-138.68
-135.22
-130.54
-126.14
-122.35
-117.87
-110.10
-96.22
-74.41
-44.75
-9.25
29.08
67.40
103.96
138.15
169.70
197.78
220.69
236.36
243.48
242.43
235.38
225.52
215.67
207.27
200.14
193.08
184.87
174.73
162.52
148.36
132.27
114.15
94.02
72.14
49.10
25.43
1.36
-23.21
-48.41
-73.94
-98.77
-121.21
-139.27
-151.08
-155.15
-150.25
-135.45
-110.11
-74.23
-28.91
23.31
78.37
131.16
176.48
210.03
229.47
234.76
227.95
212.44
192.00
169.94
148.64
129.36
112.52
97.87
84.83
72.73
61.04
49.46
37.86
26.09
13.80
0.39
-14.89
-32.62
-52.88
-75.20
-98.63
-122.10
-144.71
-165.78
-184.72
-200.82
-213.27
-221.49
-225.69
-227.21
-228.10
-230.26
-234.40
-239.40
-242.89
-242.33
-236.46
-226.03
-213.28
-200.72
-189.71
-179.54
-167.78
-151.55
-128.97
-100.29
-67.87
-35.23
-5.79
18.29
36.51
49.59
58.70
64.76
68.15
69.11
68.04
65.73
63.15
60.92
59.03
56.74
53.24
48.17
42.13
36.61
33.48
34.32
39.75
49.26
61.34
74.03
85.40
94.08
99.32
100.98
99.35
94.87
88.13
79.85
70.94
62.47
55.46
50.56
47.86
46.83
46.57
46.29
45.39
43.68
41.10
37.61
33.19
27.78
21.60
15.16
9.12
4.03
0.08
-3.07
-6.07
-9.68
-14.30
-19.72
-25.07
-28.89
-29.66
-26.26
-18.51
-7.35
5.43
17.73
27.78
34.63
38.11
38.64
36.81
33.05
27.66
21.06
13.89
7.11
1.74
-1.44
-2.22
-0.98
1.38
3.88
5.67
6.28
5.60
3.80
1.11
-2.31
-6.41
-11.23
-16.78
-22.99
-29.67
-36.55
-43.39
-50.05
-56.35
-61.95
-66.19
-68.11
-66.77
-61.66
-53.03
-42.03
-30.41
-19.91
-11.71
-6.18
-3.00
-1.57
-1.43
-2.48
-4.81
-8.36
-12.64
-16.61
-18.97
-18.64
-15.10
-8.70
-0.44
8.32
16.18
21.96
24.80
24.30
20.64
14.54
7.26
0.37
-4.61
-6.40
-4.09
2.76
14.32
30.40
50.55
74.16
100.66
129.64
160.83
193.82
227.63
260.38
289.47
312.19
326.56
332.05
329.55
321.04
308.80
294.75
280.29
266.46
254.08
243.88
236.15
230.44
225.51
219.57
210.92
198.64
182.71
163.84
142.86
120.20
95.83
69.49
41.22
11.67
-17.92
-45.95
-70.87
-91.56
-107.70
-120.08
-130.42
-140.82
-152.92
-167.22
-182.95
-198.49
-212.19
-222.87
-230.01
-233.51
-233.59
-230.93
-226.96
-223.89
-224.04
-228.74
-237.33
-247.06
-254.35
-256.28
-251.93
-242.49
-230.07
-216.38
-201.75
-185.24
-165.39
-141.52
-114.05
-84.50
-55.18
-28.52
-6.48
9.71
19.77
24.31
24.27
21.19
16.88
12.98
10.90
11.57
15.05
20.54
26.73
32.08
36.35
40.75
46.30
53.69
62.11
68.94
71.50
70.95
67.81
62.88
56.96
50.28
41.43
30.07
16.61
2.35
-10.83
-21.62
-29.05
-32.98
-34.12
-33.64
-32.67
-32.15
-32.52
-33.75
-35.93
-38.85
-42.26
-45.90
-49.35
-52.10
-53.78
-54.42
-54.33
-54.21
-54.39
-54.51
-53.59
-50.20
-42.88
-30.78
-13.82
7.22
30.77
54.94
77.67
97.11
111.80
120.88
124.28
122.68
117.36
109.96
102.09
94.89
88.85
83.67
78.61
72.80
65.58
56.71
46.33
34.88
22.92
10.97
-0.37
-10.46
-18.67
-24.51
-27.83
-29.09
-29.31
-29.94
-32.41
-37.57
-45.41
-54.85
-64.27
-71.86
-76.33
-77.19
-74.62
-69.28
-61.94
-53.36
-44.27
-35.56
-28.11
-22.69
-19.71
-18.96
-19.78
-21.22
-22.44
-22.85
-22.15
-20.29
-17.15
-12.53
-6.11
2.32
12.58
23.94
35.20
44.87
51.73
55.19
55.40
53.13
49.31
44.72
39.75
34.39
28.56
22.23
15.53
8.81
2.58
-2.58
-5.90
-6.71
-4.59
0.38
7.46
15.43
22.91
28.81
32.63
34.41
34.70
34.23
33.70
33.77
34.96
37.68
42.15
48.23
55.40
62.94
70.25
77.28
84.49
92.63
102.03
112.12
121.42
128.07
130.70
129.01
123.79
116.39
108.02
99.28
90.31
81.27
72.75
66.08
63.01
65.32
74.22
89.74
110.48
133.57
155.04
170.56
176.41
170.39
152.38
124.19
89.09
50.82
12.87
-22.05
-52.25
-76.97
-96.19
-110.44
-120.53
-127.51
-132.58
-136.95
-141.80
-147.89
-155.37
-163.71
-171.87
-178.63
-183.08
-184.78
-183.92
-181.09
-177.13
-172.99
-169.71
-168.39
-169.98
-174.82
-182.36
-191.02
-198.63
-203.20
-203.65
-200.27
-194.60
-188.64
-184.13
-181.89
-181.74
-182.86
-184.15
-184.76
-184.08
-181.83
-178.01
-172.90
-166.98
-160.74
-154.15
-146.40
-135.94
-120.94
-100.22
-73.99
-43.98
-13.05
15.91
40.88
61.11
76.87
88.71
96.86
101.06
100.78
95.79
86.56
74.43
61.39
49.65
41.20
37.36
38.50
44.12
53.07
63.89
75.31
86.30
96.05
103.78
108.53
109.34
105.62
97.52
86.10
73.15
60.75
50.71
44.14
41.35
41.89
44.77
48.78
52.68
55.50
56.70
56.10
53.92
50.59
46.60
42.48
38.60
35.15
32.00
28.68
24.73
20.00
15.18
11.92
12.45
18.78
31.85
50.91
73.66
96.94
117.67
133.57
143.43
146.94
144.35
136.24
123.56
107.75
90.65
74.35
60.66
50.70
44.64
41.74
40.62
39.65
37.28
32.35
24.28
13.17
-0.27
-14.90
-29.39
-42.58
-53.71
-62.59
-69.67
-75.77
-81.92
-88.99
-97.28
-106.19
-114.22
-119.26
-119.32
-113.24
-101.24
-85.07
-67.47
-51.24
-38.37
-29.57
-24.49
-22.31
-22.40
-24.64
-29.29
-36.66
-46.51
-57.75
-68.57
-77.06
-82.01
-83.35
-82.21
-80.52
-80.65
-84.30
-91.87
-102.47
-114.43
-125.82
-134.55
-138.58
-136.32
-128.26
-116.65
-104.92
-96.37
-93.02
-94.40
-97.18
-96.32
-87.17
-68.81
-43.56
-15.31
12.34
36.90
57.25
73.55
86.70
97.47
104.20
104.40
96.38
80.25
57.49
30.32
1.48
-26.16
-40.56
-34.23
-9.89
21.04
47.80
65.91
75.83
79.87
80.05
77.49
70.77
58.54
41.43
22.05
4.57
-7.60
-12.64
-10.87
-4.23
3.13
7.59
8.09
6.54
6.20
9.63
17.95
29.05
40.28
48.49
52.05
51.80
50.28
49.86
50.99
52.08
50.55
44.78
34.60
22.01
10.40
3.00
1.38
4.70
10.55
16.30
20.41
22.64
23.55
23.80
23.30
21.11
15.94
7.08
-5.06
-18.86
-32.48
-44.81
-56.12
-67.93
-82.18
-100.24
-122.39
-147.82
-174.98
-202.04
-226.95
-247.35
-260.57
-264.06
-256.05
-236.10
-205.08
-164.61
-116.22
-61.16
-0.71
62.96
126.03
183.51
230.42
263.55
282.61
289.98
289.30
283.68
274.45
261.21
243.07
220.10
194.40
169.65
149.98
138.32
135.34
139.43
147.55
156.48
163.80
168.41
170.35
170.33
169.21
167.80
166.41
164.96
162.94
159.28
152.52
140.97
123.28
99.42
71.13
41.61
14.64
-6.68
-20.76
-27.65
-28.59
-25.04
-17.92
-7.70
4.65
17.15
27.16
32.33
32.13
28.71
26.20
29.77
43.43
67.33
97.96
129.62
156.27
173.44
178.88
171.78
153.44
126.66
93.49
55.93
16.17
-23.80
-62.72
-100.16
-137.37
-174.63
-210.91
-247.03
-284.12
-322.32
-360.20
-394.94
-423.20
-443.72
-454.97
-454.65
-442.90
-419.67
-383.82
-334.34
-271.85
-190.83
-99.83
-17.99
54.08
119.69
180.76
237.71
288.96
331.51
362.54
379.55
383.90
380.49
371.94
358.77
339.78
312.39
274.19
224.61
164.60
98.58
33.34
-26.77
-79.11
-122.10
-155.32
-179.81
-198.39
-215.66
-234.86
-255.64
-275.08
-288.00
-289.16
-276.35
-251.69
-220.39
-188.19
-158.23
-130.49
-104.57
-81.31
-63.36
-53.95
-54.47
-62.92
-74.48
-83.29
-85.16
-79.41
-68.20
-54.71
-41.09
-27.45
-12.40
5.71
27.51
52.43
79.39
107.72
137.65
169.63
203.29
236.55
265.65
286.38
295.53
292.10
277.57
255.09
228.13
199.14
168.89
136.90
102.72
67.03
32.26
1.90
-21.17
-36.19
-45.18
-51.96
-60.66
-74.36
-94.39
-120.34
-150.23
-180.28
-204.98
-217.86
-213.52
-190.30
-151.76
-106.13
-63.21
-30.45
-10.30
-0.12
5.25
10.30
16.66
23.07
26.91
26.41
21.60
14.47
8.00
4.75
5.71
9.99
14.97
16.86
11.52
-4.59
-33.10
-72.60
-118.20
-161.99
-194.61
-207.50
-195.39
-158.13
-101.41
-35.92
25.24
70.05
91.15
88.05
66.98
38.63
14.34
2.55
6.89
26.17
56.13
91.76
128.57
163.05
192.48
214.72
228.43
233.54
231.34
224.12
214.50
204.25
193.52
180.56
162.46
136.58
102.33
62.48
22.78
-9.84
-30.16
-37.01
-34.10
-28.73
-28.95
-40.45
-64.50
-97.66
-133.16
-163.29
-181.63
-184.62
-172.23
-147.36
-114.93
-80.16
-47.08
-17.65
8.10
31.00
51.37
68.32
80.05
84.98
82.74
74.24
60.89
43.68
22.90
-0.87
-25.76
-48.50
-65.99
-77.59
-86.63
-99.51
-122.41
-157.55
-201.15
-244.65
-278.53
-296.39
-297.10
-284.14
-262.89
-237.78
-211.09
-183.33
-154.67
-126.14
-99.62
-77.04
-59.16
-45.10
-32.65
-19.58
-4.82
10.95
25.64
36.86
43.07
44.33
41.95
37.85
33.55
29.69
26.08
22.23
17.89
13.34
9.13
5.82
3.65
2.53
2.20
2.35
2.57
2.25
0.56
-3.33
-9.83
-18.59
-28.44
-37.64
-44.35
-47.19
-45.53
-39.56
-30.16
-18.62
-6.36
5.28
15.21
22.75
27.54
29.65
29.49
27.80
25.59
23.95
23.70
25.28
28.72
33.93
40.96
50.07
61.34
74.12
86.73
96.87
102.36
102.17
96.88
88.36
78.94
70.35
63.14
56.73
49.84
41.14
29.65
14.81
-3.34
-24.04
-45.65
-65.59
-80.75
-88.18
-85.97
-73.83
-53.17
-26.67
2.44
31.10
56.84
78.01
93.69
103.66
108.38
108.86
106.45
102.46
97.74
92.64
87.32
82.14
77.91
75.81
76.96
81.86
90.08
100.32
110.92
120.36
127.67
132.51
134.89
134.94
132.55
127.53
119.74
109.28
96.63
82.49
67.48
52.05
36.46
21.01
6.33
-6.70
-17.24
-24.88
-29.85
-32.80
-34.37
-34.67
-33.33
-29.84
-24.15
-17.10
-10.12
-4.68
-1.56
-0.44
0.02
1.60
5.89
13.68
24.70
37.79
51.15
62.88
71.23
74.73
72.17
62.67
45.81
21.91
-7.84
-41.27
-75.64
-108.13
-136.29
-158.47
-173.98
-183.19
-187.39
-188.30
-187.49
-185.85
-183.43
-179.87
-174.95
-169.12
-163.46
-159.08
-156.36
-154.47
-151.40
-144.70
-132.36
-113.52
-88.73
-59.58
-28.13
3.67
34.47
63.60
90.77
115.70
137.53
154.78
165.70
168.97
164.35
152.78
135.99
116.02
94.74
73.86
54.95
39.32
27.67
19.73
14.39
10.27
6.64
4.06
4.40
9.80
21.48
38.96
60.01
81.54
100.52
114.74
122.74
123.62
116.90
102.74
82.38
58.23
33.48
11.31
-5.98
-17.57
-23.77
-25.29
-22.40
-14.62
-0.94
19.33
46.02
77.86
112.88
149.03
184.45
217.23
244.88
264.12
271.47
264.67
243.99
212.42
174.49
134.20
93.35
51.34
6.51
-41.93
-92.43
-141.27
-183.90
-216.72
-238.37
-249.66
-252.75
-250.21
-244.19
-236.29
-227.55
-218.54
-209.37
-199.85
-189.66
-178.67
-166.99
-154.91
-142.62
-130.17
-117.64
-105.35
-94.08
-84.94
-78.85
-76.06
-75.80
-76.56
-76.84
-75.76
-73.33
-70.30
-67.36
-64.62
-61.50
-57.04
-50.66
-42.50
-33.41
-24.50
-16.57
-9.90
-4.32
0.42
4.30
7.02
8.31
8.17
7.15
6.11
5.88
6.81
8.65
10.68
12.11
12.50
11.90
10.77
9.59
8.65
7.80
6.62
4.76
2.07
-1.23
-4.79
-8.43
-12.36
-17.15
-23.22
-30.28
-37.08
-41.52
-41.50
-35.81
-24.75
-10.07
5.76
20.55
33.01
42.82
50.24
55.46
58.32
58.51
55.93
51.10
45.12
39.38
34.96
32.31
31.16
30.69
30.02
28.63
26.46
23.91
21.49
19.48
17.79
15.91
13.29
9.63
5.00
-0.17
-5.41
-10.48
-15.44
-20.55
-25.88
-30.99
-34.95
-36.57
-34.88
-29.51
-20.85
-9.90
2.18
14.51
26.73
39.05
51.87
65.42
79.41
92.84
104.39
112.79
117.33
118.08
115.71
111.09
104.91
97.37
88.47
78.38
67.73
57.59
49.01
42.47
37.57
33.10
27.64
20.20
10.52
-0.82
-12.83
-24.44
-34.80
-43.34
-49.64
-53.34
-54.26
-52.43
-48.27
-42.60
-36.46
-30.97
-27.02
-25.16
-25.52
-27.80
-31.46
-35.84
-40.34
-44.67
-48.76
-52.71
-56.59
-60.26
-63.35
-65.48
-66.39
-66.22
-65.32
-64.10
-62.76
-61.24
-59.39
-57.18
-54.72
-52.12
-49.22
-45.37
-39.65
-31.08
-19.12
-3.86
14.04
33.37
52.80
71.15
87.56
101.71
113.59
123.27
130.55
134.71
134.85
130.30
121.18
108.66
94.66
81.15
69.54
60.19
52.75
46.53
41.01
36.09
31.86
28.36
25.32
22.14
18.13
12.94
6.69
0.04
-6.25
-11.73
-16.40
-20.74
-25.23
-29.86
-33.93
-36.19
-35.41
-30.96
-23.18
-13.27
-2.81
6.81
14.70
20.62
24.60
26.77
27.19
25.81
22.75
18.46
13.65
9.23
5.93
4.08
3.59
3.91
4.33
4.29
3.55
2.25
0.80
-0.46
-1.42
-2.42
-4.05
-6.89
-11.26
-16.96
-23.41
-29.79
-35.25
-39.09
-40.82
-40.07
-36.73
-30.88
-22.97
-13.85
-4.62
3.49
9.42
12.56
12.85
10.85
7.52
3.89
0.84
-1.29
-2.51
-3.06
-3.10
-2.57
-1.33
0.73
3.44
6.31
8.72
10.20
10.50
9.67
7.79
4.84
0.70
-4.93
-12.15
-20.72
-29.95
-38.67
-45.52
-49.31
-49.40
-46.03
-40.18
-33.25
-26.50
-20.60
-15.59
-11.17
-7.09
-3.49
-0.78
0.63
0.78
0.21
-0.21
0.28
1.95
4.39
6.80
8.39
8.78
8.20
7.29
6.74
6.96
7.85
8.90
9.48
9.02
7.28
4.32
0.46
-3.81
-8.01
-11.61
-14.06
-14.84
-13.61
-10.32
-5.35
0.54
6.26
10.81
13.49
14.12
13.01
10.78
7.99
5.02
1.84
-1.62
-5.36
-9.07
-12.18
-14.19
-14.89
-14.60
-14.06
-14.11
-15.33
-17.80
-21.09
-24.64
-28.05
-31.33
-34.83
-38.91
-43.47
-47.75
-50.43
-50.11
-45.86
-37.60
-25.97
-11.89
3.95
21.28
40.06
59.89
79.62
97.38
111.02
118.98
120.90
117.63
110.83
102.17
92.77
83.03
72.88
62.25
51.42
41.04
31.87
24.44
18.72
14.14
9.81
4.92
-0.89
-7.47
-14.22
-20.54
-26.10
-30.98
-35.62
-40.40
-45.43
-50.44
-54.87
-58.18
-60.15
-60.99
-61.27
-61.60
-62.44
-63.88
-65.72
-67.51
-68.74
-68.92
-67.58
-64.35
-58.87
-51.01
-40.87
-28.96
-16.20
-3.75
7.07
15.28
20.40
22.58
22.49
21.02
18.96
16.75
14.48
12.09
9.65
7.46
6.00
5.68
6.57
8.34
10.27
11.67
12.09
11.46
10.10
8.41
6.76
5.27
3.84
2.22
0.23
-2.21
-4.94
-7.58
-9.70
-11.06
-11.74
-12.16
-12.87
-14.33
-16.60
-19.42
-22.41
-25.24
-27.85
-30.20
-32.02
-32.64
-31.09
-26.53
-18.77
-8.55
2.56
12.71
20.42
24.99
26.68
26.33
24.85
22.90
20.66
18.06
15.05
11.86
9.05
7.29
7.05
8.35
10.63
13.05
14.84
15.58
15.32
14.48
13.48
12.58
11.66
10.40
8.43
5.62
2.19
-1.34
-4.37
-6.48
-7.70
-8.46
-9.35
-10.88
-13.19
-16.09
-19.22
-22.28
-25.14
-27.69
-29.64
-30.35
-28.98
-24.80
-17.69
-8.31
1.92
11.35
18.66
23.30
25.50
26.03
25.61
24.61
22.95
20.34
16.68
12.36
8.14
4.93
3.32
3.39
4.62
6.29
7.77
8.76
9.36
9.79
10.21
10.53
10.40
9.43
7.41
4.51
1.27
-1.62
-3.62
-4.54
-4.74
-4.88
-5.70
-7.67
-10.81
-14.70
-18.60
-21.73
-23.38
-23.07
-20.52
-15.66
-8.67
-0.03
9.47
18.83
26.89
32.72
35.77
36.03
34.04
30.63
26.64
22.69
19.04
15.69
12.58
9.73
7.36
5.77
5.13
5.39
6.13
6.76
6.70
5.66
3.73
1.20
-1.58
-4.47
-7.61
-11.28
-15.62
-20.49
-25.37
-29.65
-32.98
-35.50
-37.94
-41.17
-45.70
-51.23
-56.52
-59.87
-59.81
-55.83
-48.75
-40.40
-32.86
-27.66
-25.19
-24.83
-25.52
-26.32
-26.97
-27.78
-29.26
-31.73
-35.01
-38.52
-41.51
-43.20
-42.82
-39.54
-32.39
-20.54
-3.66
17.53
41.18
64.53
84.62
99.16
107.06
108.50
104.60
96.81
86.45
74.60
62.06
49.60
37.96
27.71
19.14
12.24
6.87
2.96
0.69
0.38
2.33
6.70
13.18
21.10
29.46
37.14
42.94
45.92
45.56
41.85
35.81
28.85
22.42
17.62
14.70
13.20
12.30
11.38
10.16
9.51
10.18
12.57
16.32
20.37
23.44
24.62
23.82
21.30
18.51
16.08
13.99
11.59
7.98
2.55
-4.79
-13.71
-24.25
-35.16
-45.60
-54.16
-58.93
-58.14
-51.02
-38.48
-19.91
-3.25
9.07
15.44
16.16
13.22
9.69
8.74
12.91
23.42
39.18
58.51
77.86
93.49
102.70
104.65
100.33
91.80
80.99
68.47
54.60
38.66
20.38
0.45
-19.52
-37.70
-52.96
-65.37
-76.14
-85.94
-94.88
-101.85
-105.23
-103.96
-98.58
-91.16
-84.31
-79.83
-77.43
-75.57
-72.60
-68.17
-63.57
-60.64
-60.05
-60.15
-57.29
-47.54
-29.13
-3.73
24.05
48.75
66.55
76.70
81.13
82.87
84.25
85.89
86.91
86.03
82.82
78.04
73.34
70.20
69.34
70.55
72.91
75.36
76.94
76.90
74.64
69.40
60.02
45.44
25.14
-0.41
-29.62
-59.90
-88.10
-111.25
-127.51
-137.36
-142.70
-145.73
-147.88
-149.55
-150.10
-148.41
-143.40
-134.70
-124.08
-113.39
-103.33
-93.39
-82.73
-71.05
-58.99
-47.59
-38.55
-35.50
-40.60
-52.92
-68.71
-83.62
-94.42
-100.13
-101.29
-100.35
-103.17
-114.34
-134.66
-160.97
-188.63
-212.94
-230.42
-237.78
-216.90
-161.58
-82.05
0.21
67.19
112.24
138.80
154.74
171.05
194.40
224.15
256.56
287.92
316.37
336.17
342.61
325.29
282.48
222.82
159.48
104.08
62.20
33.69
15.19
3.63
-2.80
-3.60
1.08
7.97
12.78
12.84
8.24
1.02
-5.83
-10.04
-9.72
-4.88
2.11
8.04
10.86
10.28
7.35
3.94
1.59
1.77
4.86
9.92
15.08
18.89
20.57
20.04
17.79
14.47
11.02
8.05
5.75
3.14
-0.51
-6.09
-14.22
-24.97
-37.73
-51.20
-63.85
-73.33
-79.81
-83.62
-85.62
-86.79
-87.89
-89.45
-91.82
-96.05
-100.73
-104.15
-103.33
-95.18
-77.99
-52.89
-23.93
3.30
24.16
37.22
43.99
48.14
52.83
59.05
65.33
69.00
67.79
61.14
50.31
37.28
24.26
12.92
4.47
-0.59
-2.55
-2.36
-1.63
-2.05
-5.05
-11.37
-20.79
-31.87
-42.14
-48.49
-48.16
-39.63
-23.27
-1.50
22.50
44.21
60.06
68.86
71.89
72.00
72.06
73.58
76.43
79.36
80.83
80.23
77.97
75.07
72.55
70.92
70.19
70.07
70.30
70.84
71.93
73.70
75.94
77.96
78.88
78.08
75.42
71.30
66.19
60.36
53.61
45.19
34.28
20.50
4.26
-13.13
-30.02
-44.95
-57.04
-66.29
-73.27
-78.73
-83.27
-87.14
-90.43
-93.24
-95.82
-98.44
-101.15
-103.66
-105.45
-105.95
-104.94
-102.66
-99.67
-96.71
-94.29
-92.54
-91.28
-90.13
-88.74
-86.90
-84.56
-81.78
-78.52
-74.67
-70.06
-64.56
-58.40
-52.23
-47.03
-43.85
-43.28
-45.03
-47.94
-50.15
-49.84
-45.79
-37.74
-26.45
-13.28
0.29
13.00
24.10
33.28
40.46
45.65
48.77
49.71
48.55
45.60
41.56
37.27
33.59
31.06
29.78
29.50
29.73
30.02
30.10
29.83
29.17
28.10
26.56
24.54
22.11
19.45
16.86
14.52
12.38
10.11
7.10
2.80
-2.95
-9.67
-16.05
-20.31
-20.57
-15.52
-4.96
10.00
27.09
43.55
57.03
66.07
70.43
70.80
68.17
63.41
57.02
49.33
40.83
32.35
24.96
19.59
16.56
15.48
15.51
15.76
15.80
15.59
15.37
15.24
14.90
13.76
11.22
7.07
1.76
-3.85
-8.79
-12.49
-15.08
-17.30
-20.12
-24.36
-30.15
-36.85
-43.16
-47.43
-48.27
-44.90
-37.34
-26.43
-13.46
0.15
13.14
24.57
33.75
40.21
43.74
44.36
42.47
38.83
34.37
30.04
26.38
23.62
21.59
20.01
18.74
17.84
17.52
18.01
19.30
21.06
22.70
23.54
23.09
21.17
17.98
13.97
9.63
5.33
1.22
-2.71
-6.49
-10.26
-14.15
-18.37
-23.12
-28.44
-33.90
-38.54
-40.97
-39.77
-34.09
-24.12
-11.22
2.52
14.95
24.55
30.81
34.13
35.32
35.10
33.75
31.21
27.42
22.61
17.55
13.25
10.57
9.86
10.72
12.29
13.62
14.06
13.60
12.67
11.87
11.60
11.78
11.90
11.24
9.27
5.95
1.68
-2.81
-6.85
-10.18
-12.90
-15.38
-17.95
-20.71
-23.57
-26.39
-29.26
-32.41
-35.95
-39.56
-42.30
-42.78
-39.66
-32.30
-21.11
-7.66
5.94
17.75
26.57
32.28
35.44
36.91
37.32
36.84
35.41
33.07
30.17
27.42
25.51
24.82
25.25
26.22
27.10
27.41
27.06
26.32
25.59
25.14
24.92
24.56
23.45
21.04
17.05
11.65
5.46
-0.72
-6.11
-10.36
-13.53
-16.04
-18.48
-21.33
-24.80
-28.79
-32.85
-36.32
-38.33
-38.01
-34.70
-28.16
-18.78
-7.55
4.15
14.86
23.40
29.07
31.69
31.49
28.88
24.38
18.58
12.05
5.46
-0.51
-5.23
-8.21
-9.18
-8.16
-5.41
-1.44
3.21
7.98
12.42
16.22
19.13
20.97
21.62
21.16
19.90
18.47
17.61
17.99
19.95
23.40
27.83
32.43
36.30
38.72
39.28
38.18
36.18
34.53
34.51
37.01
42.09
48.96
56.22
62.38
66.28
67.34
65.56
61.16
54.53
46.07
36.33
25.99
15.81
6.41
-1.81
-8.88
-15.05
-20.68
-26.04
-31.16
-35.88
-39.94
-43.07
-45.25
-46.62
-47.43
-47.99
-48.47
-48.92
-49.25
-49.37
-49.32
-49.32
-49.69
-50.75
-52.54
-54.83
-57.10
-58.63
-58.68
-56.58
-51.86
-44.42
-34.59
-23.29
-11.78
-1.47
6.44
11.21
12.72
11.37
8.00
3.58
-1.02
-5.09
-8.16
-10.01
-10.78
-10.84
-10.65
-10.56
-10.70
-11.10
-11.90
-13.26
-15.50
-19.11
-24.34
-31.01
-38.40
-45.39
-51.13
-55.18
-57.49
-58.41
-58.90
-59.92
-61.92
-64.63
-66.96
-68.24
-67.93
-65.58
-60.93
-54.69
-47.90
-41.22
-34.67
-26.97
-17.82
-7.06
5.68
20.30
34.97
47.20
55.02
57.99
58.25
56.79
54.58
52.83
51.95
50.06
43.92
30.34
7.48
-23.37
-61.61
-105.29
-150.81
-183.92
-192.75
-175.48
-142.20
-116.83
-102.78
-98.39
-101.53
-106.36
-111.00
-116.16
-122.56
-129.14
-132.80
-128.59
-115.58
-95.11
-69.28
-40.22
-9.73
21.44
53.48
86.46
120.42
152.14
178.22
197.55
211.73
224.24
238.85
257.88
280.91
305.40
325.79
336.62
334.52
318.58
290.00
251.49
206.64
159.37
113.73
72.44
37.23
9.08
-11.64
-24.93
-31.19
-31.41
-27.41
-21.76
-17.74
-18.33
-25.22
-38.30
-55.59
-73.83
-89.18
-98.05
-98.27
-89.81
-75.17
-58.79
-45.63
-39.66
-43.16
-56.91
-80.84
-114.12
-154.39
-196.85
-234.36
-259.27
-266.58
-256.31
-233.81
-207.43
-184.78
-169.79
-162.13
-159.03
-158.06
-158.96
-163.44
-173.57
-189.80
-209.94
-229.74
-244.58
-251.64
-251.19
-246.60
-242.74
-243.62
-250.44
-261.23
-271.99
-279.09
-281.14
-279.39
-276.52
-274.50
-273.04
-269.58
-260.55
-243.41
-217.81
-185.49
-149.00
-110.19
-69.17
-24.55
25.30
80.74
140.02
199.56
255.05
303.01
341.82
371.97
395.47
414.56
430.70
444.34
455.28
463.55
469.94
475.95
483.25
493.04
505.23
518.49
530.83
540.20
544.61
541.87
529.44
504.91
467.71
419.34
363.92
307.66
257.22
217.47
190.02
173.26
163.94
160.17
160.58
164.13
169.86
176.48
182.56
186.80
188.79
189.41
192.10
198.55
207.43
215.15
217.48
211.33
195.40
170.16
137.49
102.18
67.12
32.51
-2.96
-41.04
-82.71
-128.31
-177.51
-242.60
-320.04
-395.15
-452.58
-486.35
-500.26
-500.44
-490.54
-471.23
-442.58
-404.32
-360.68
-320.49
-288.93
-267.29
-251.83
-236.30
-215.92
-189.73
-159.11
-129.09
-105.74
-93.28
-93.05
-103.55
-120.50
-139.19
-155.43
-164.92
-165.20
-155.84
-138.43
-116.59
-93.37
-70.27
-46.89
-20.73
12.29
55.63
110.77
176.63
241.87
291.10
311.15
298.12
259.12
206.49
151.37
101.31
60.10
28.20
4.78
-9.66
-17.39
-20.31
-20.38
-19.76
-19.64
-19.88
-19.48
-16.39
-8.40
5.85
24.86
45.58
63.00
72.77
73.23
66.01
55.68
48.16
48.03
56.88
72.09
85.93
89.38
75.99
43.60
-5.46
-65.78
-130.55
-188.92
-226.86
-238.13
-229.44
-215.08
-206.75
-207.41
-211.55
-209.26
-197.24
-171.78
-136.17
-97.91
-64.19
-38.70
-21.14
-8.94
0.33
7.11
9.95
5.35
-8.44
-28.69
-48.06
-57.26
-49.32
-22.16
20.23
69.94
116.87
152.14
170.19
169.38
151.87
122.49
87.91
54.43
26.49
4.89
-12.61
-29.59
-48.45
-68.00
-84.17
-90.57
-82.35
-58.00
-19.79
27.85
78.88
125.12
160.62
184.41
201.44
216.24
230.06
241.54
248.04
246.85
235.18
216.72
188.46
149.86
103.02
52.65
4.95
-34.58
-62.90
-79.68
-86.40
-87.27
-83.83
-77.85
-74.73
-79.13
-90.92
-103.79
-109.10
-100.77
-80.64
-56.08
-37.64
-33.38
-44.23
-66.66
-91.89
-112.61
-124.82
-129.27
-128.28
-125.12
-122.90
-123.74
-129.24
-140.82
-160.48
-184.50
-210.16
-233.35
-249.97
-256.67
-251.21
-233.36
-203.95
-165.27
-120.26
-72.87
-26.60
15.42
50.38
76.10
90.54
92.88
83.69
65.68
43.11
21.72
6.68
0.41
1.61
3.92
-0.54
-18.40
-51.96
-98.14
-149.12
-195.38
-229.08
-244.90
-243.85
-227.75
-198.79
-158.54
-108.80
-52.68
4.38
55.46
97.09
124.27
139.74
150.23
163.03
181.93
205.02
225.03
232.74
225.57
197.99
154.15
101.26
46.74
-3.36
-44.00
-71.32
-82.48
-70.44
-40.78
4.20
60.61
124.80
194.89
271.85
355.47
407.68
459.70
493.31
497.64
467.92
408.56
333.02
261.32
210.59
189.73
203.57
239.44
287.26
337.01
380.32
410.98
426.47
423.54
398.52
353.74
286.70
202.29
106.68
5.99
-108.06
-225.33
-322.30
-376.84
-381.38
-352.30
-312.68
-283.79
-277.23
-291.79
-315.80
-338.54
-354.87
-364.69
-373.79
-386.58
-405.08
-428.31
-447.82
-455.49
-446.92
-422.35
-385.09
-340.13
-291.03
-239.98
-188.20
-136.24
-84.52
-34.74
10.42
48.49
78.62
101.73
119.70
134.23
146.32
156.15
163.26
166.90
166.45
162.03
154.34
144.29
132.65
119.86
105.83
90.23
72.69
53.06
31.69
9.26
-13.40
-35.49
-56.19
-74.66
-89.93
-100.98
-107.01
-107.42
-101.84
-90.18
-72.91
-51.54
-28.89
-8.23
7.87
18.98
27.45
37.52
53.31
76.70
106.16
137.44
165.31
185.69
196.87
199.51
195.91
188.89
180.83
172.93
164.75
154.38
139.39
118.02
90.78
61.11
34.19
15.18
6.90
8.76
17.39
28.14
36.78
40.39
37.34
27.52
12.35
-5.13
-20.84
-31.23
-35.06
-34.33
-33.64
-38.22
-51.77
-75.47
-108.51
-149.46
-197.12
-249.98
-304.73
-355.14
-392.80
-409.52
-400.33
-365.82
-311.86
-247.27
-180.79
-118.31
-62.01
-11.15
36.11
80.73
121.81
156.69
181.90
194.67
193.97
181.09
159.28
132.78
105.69
81.25
61.49
47.48
39.63
37.88
41.60
49.50
59.93
71.55
83.94
97.80
114.42
134.21
155.57
174.49
185.92
186.35
175.84
158.30
139.54
124.27
113.94
106.71
99.51
90.69
81.29
74.11
71.17
71.57
71.27
64.96
48.94
23.03
-9.73
-44.90
-79.11
-111.07
-141.09
-169.86
-197.22
-221.83
-241.78
-255.70
-263.27
-264.99
-261.43
-252.48
-237.28
-214.92
-185.33
-149.97
-111.69
-73.98
-39.78
-10.56
14.00
35.57
56.27
77.83
100.67
123.55
143.85
158.32
164.36
161.10
150.36
136.66
126.23
124.85
135.63
157.44
184.55
208.09
218.18
207.14
172.25
117.08
50.89
-13.28
-61.62
-82.97
-72.15
-32.20
26.35
88.89
141.00
172.00
177.07
157.43
118.43
67.20
9.48
-49.68
-104.34
-147.22
-171.14
-171.22
-146.41
-99.90
-38.39
27.58
87.51
134.41
165.84
182.15
184.41
173.31
149.41
113.36
63.21
-2.49
-81.64
-167.48
-251.02
-323.09
-376.12
-404.99
-395.70
-344.94
-268.63
-194.89
-144.29
-119.38
-108.54
-96.16
-71.33
-29.84
21.96
72.75
112.82
138.05
149.15
150.39
142.83
126.03
105.88
88.70
77.37
70.12
64.55
56.94
45.50
29.72
10.40
-11.88
-35.83
-59.17
-77.94
-87.12
-83.96
-69.49
-48.87
-28.99
-16.30
-16.22
-31.78
-62.05
-101.93
-143.87
-179.46
-201.29
-203.76
-184.44
-145.85
-95.55
-44.34
-2.82
22.08
29.94
26.95
23.98
32.29
58.54
101.61
152.96
200.37
233.02
245.93
241.36
226.75
210.63
198.06
188.47
176.69
156.26
122.73
75.79
18.83
-42.64
-102.72
-156.03
-198.19
-226.15
-238.53
-235.86
-220.13
-193.66
-158.38
-116.36
-71.16
-28.62
3.92
20.63
20.72
10.36
0.88
3.85
25.41
63.21
108.04
148.81
178.30
195.69
205.33
212.75
221.07
229.88
236.52
238.63
235.28
226.45
211.43
188.07
153.38
105.28
44.18
-26.87
-103.72
-183.17
-263.66
-344.22
-422.11
-491.28
-542.66
-566.94
-557.99
-515.23
-443.77
-352.01
-248.92
-142.24
-38.45
56.07
134.38
189.90
218.71
221.57
204.39
176.22
146.04
120.05
100.70
87.68
79.45
74.69
72.63
72.65
73.88
75.30
76.40
77.60
80.27
86.16
96.50
111.13
128.65
146.96
164.08
178.88
191.10
201.23
210.08
218.53
227.37
237.16
248.04
259.39
269.78
277.16
279.39
274.92
263.13
244.45
219.96
190.79
157.84
121.72
83.19
43.45
3.74
-35.18
-73.52
-112.47
-153.31
-196.39
-240.35
-282.32
-319.14
-348.87
-371.70
-389.71
-405.62
-421.35
-437.41
-453.19
-467.78
-480.34
-489.92
-494.63
-491.45
-477.00
-449.42
-410.26
-365.05
-321.78
-287.64
-266.03
-255.13
-249.23
-241.68
-227.75
-206.04
-177.85
-145.38
-110.20
-72.97
-34.13
5.30
43.49
78.57
110.04
139.63
170.93
207.70
251.48
299.75
345.69
379.91
394.29
385.89
359.30
325.59
298.36
287.86
296.54
317.90
339.19
346.44
329.50
284.87
216.04
131.99
44.75
-33.04
-90.28
-119.34
-117.62
-89.02
-43.26
6.95
50.00
78.73
92.27
94.74
92.42
90.57
91.34
93.30
92.60
85.07
68.37
43.51
14.94
-11.04
-28.44
-33.68
-26.63
-10.34
10.53
31.05
47.53
57.55
59.32
50.82
29.68
-6.31
-57.55
-121.05
-189.37
-251.54
-295.78
-313.21
-300.80
-262.09
-205.51
-141.42
-79.46
-27.33
9.93
30.45
36.81
36.40
39.57
55.45
86.79
127.45
164.35
183.57
177.07
146.14
100.43
53.09
15.28
-7.24
-14.67
-11.60
-4.93
-2.53
-12.05
-39.35
-86.58
-150.15
-220.56
-284.64
-329.36
-345.49
-330.23
-287.12
-224.41
-152.44
-80.52
-15.98
36.08
73.51
98.26
116.07
133.94
156.44
182.23
205.63
218.47
214.10
190.78
153.23
109.72
67.34
29.25
-5.56
-36.06
-58.62
-68.37
-62.46
-41.59
-10.18
24.73
57.27
84.17
109.54
140.48
182.45
235.64
296.17
358.00
414.02
458.47
465.39
417.80
320.75
202.19
93.26
11.36
-39.28
-71.95
-97.41
-122.18
-145.21
-163.20
-172.42
-173.54
-169.35
-162.11
-153.23
-142.29
-129.47
-113.45
-94.09
-74.20
-59.95
-57.62
-70.43
-97.30
-132.10
-166.74
-191.66
-199.97
-190.08
-166.50
-136.94
-108.47
-85.29
-67.50
-53.12
-38.92
-22.60
-3.69
16.31
35.32
51.57
63.80
71.61
74.94
74.46
71.38
66.96
62.13
57.61
53.90
51.43
50.39
50.45
50.68
49.64
46.10
39.40
29.84
18.77
8.11
-0.27
-5.07
-5.85
-3.02
2.62
10.04
18.29
26.60
34.36
40.97
45.77
48.07
47.30
43.54
37.56
30.73
24.56
19.96
16.74
13.58
8.82
1.14
-8.77
-19.11
-27.52
-32.39
-33.96
-34.36
-36.78
-44.18
-58.55
-78.73
-102.14
-124.83
-142.39
-150.94
-147.95
-133.22
-109.30
-81.98
-56.65
-38.90
-32.04
-35.97
-47.33
-60.82
-71.13
-74.85
-72.70
-66.16
-59.22
-55.50
-56.60
-61.42
-66.56
-68.16
-57.30
-42.19
-24.32
-7.12
6.23
13.67
14.62
10.05
2.02
-6.48
-13.20
-13.99
-5.91
12.12
38.73
70.28
102.19
130.16
151.33
163.55
167.82
166.32
161.55
155.36
148.40
140.52
130.87
118.36
100.86
72.65
32.60
-14.62
-60.71
-98.34
-123.50
-138.09
-144.76
-146.51
-145.68
-143.23
-139.43
-132.50
-122.19
-108.76
-92.93
-75.35
-56.84
-37.85
-18.01
2.62
22.75
39.74
50.77
53.69
47.82
33.41
11.47
-16.03
-46.99
-79.44
-111.85
-142.69
-170.54
-194.01
-212.22
-224.72
-231.27
-231.62
-225.18
-210.88
-186.97
-151.80
-104.91
-48.18
14.12
76.48
133.89
183.06
222.81
253.33
275.06
288.12
292.45
288.82
279.34
267.28
256.01
247.63
242.18
237.79
231.60
221.05
204.84
183.34
158.34
132.32
107.64
85.94
67.79
52.98
40.99
31.54
24.76
20.99
20.39
22.55
26.37
30.50
33.79
35.57
35.71
34.19
30.76
24.81
15.55
2.53
-13.79
-31.79
-48.81
-61.84
-68.39
-67.21
-58.80
-45.11
-28.89
-12.78
1.32
12.45
20.28
24.69
25.48
22.62
16.61
8.81
1.21
-4.25
-6.49
-5.74
-3.41
-1.30
-0.80
-2.34
-5.46
-9.32
-13.27
-17.14
-21.27
-26.08
-31.76
-38.12
-44.52
-50.15
-54.31
-56.52
-56.72
-55.19
-52.40
-48.86
-44.89
-40.69
-36.37
-32.08
-28.25
-25.44
-24.20
-24.83
-27.07
-30.23
-33.31
-35.40
-36.04
-35.27
-33.51
-31.27
-28.81
-26.02
-22.50
-17.85
-11.97
-5.17
1.94
8.70
14.72
19.93
24.44
28.33
31.35
33.06
33.12
31.55
29.09
26.89
26.10
27.32
30.21
33.72
36.57
37.85
37.35
35.29
31.82
26.59
18.77
7.69
-6.33
-21.69
-35.77
-46.01
-50.96
-50.89
-47.52
-43.08
-39.32
-36.95
-35.75
-35.19
-34.96
-35.05
-35.64
-36.70
-37.77
-38.26
-37.65
-35.96
-33.69
-31.55
-30.05
-29.13
-28.10
-26.04
-22.16
-16.28
-8.96
-1.33
5.23
9.56
11.06
9.70
6.05
0.93
-4.75
-10.23
-14.97
-18.59
-20.85
-21.64
-20.87
-18.64
-15.22
-11.08
-6.80
-2.89
0.28
2.67
4.50
6.16
8.02
10.27
12.73
14.99
16.55
17.01
16.40
15.14
13.91
13.44
14.17
16.20
19.36
23.36
27.95
32.91
37.88
42.22
44.96
45.11
42.02
35.74
27.11
17.43
7.93
-0.64
-8.26
-15.38
-22.61
-30.22
-37.92
-44.98
-50.55
-53.97
-55.20
-54.67
-53.10
-51.24
-49.46
-47.81
-46.01
-43.76
-40.94
-37.62
-33.99
-30.19
-26.18
-21.85
-17.22
-12.54
-8.32
-5.01
-2.77
-1.30
0.13
2.20
5.24
8.94
12.43
14.71
15.06
13.39
10.31
6.78
3.79
2.03
1.66
2.50
4.24
6.60
9.48
12.78
16.36
19.87
22.77
24.59
25.08
24.38
23.00
21.60
20.72
20.60
21.07
21.74
22.19
22.11
21.33
19.79
17.41
14.09
9.74
4.53
-1.03
-6.15
-9.99
-11.99
-12.12
-10.86
-9.03
-7.38
-6.37
-6.11
-6.38
-6.91
-7.49
-8.00
-8.49
-8.96
-9.39
-9.66
-9.63
-9.23
-8.48
-7.47
-6.40
-5.37
-4.41
-3.43
-2.22
-0.66
1.25
3.32
5.11
6.20
6.23
5.11
2.97
0.09
-3.27
-6.92
-10.73
-14.43
-17.54
-19.37
-19.20
-16.64
-11.91
-5.82
0.43
5.78
9.53
11.59
12.30
12.13
11.43
10.21
8.28
5.44
1.75
-2.38
-6.26
-9.23
-10.93
-11.45
-11.33
-11.26
-11.76
-13.05
-14.91
-16.95
-18.73
-20.05
-20.97
-21.70
-22.47
-23.42
-24.45
-25.39
-26.00
-26.10
-25.63
-24.52
-22.64
-19.82
-15.75
-10.27
-3.47
4.19
11.95
18.99
24.75
29.11
32.40
35.10
37.60
39.94
41.78
42.63
42.21
40.55
38.10
35.38
32.75
30.22
27.48
24.19
20.28
16.04
12.09
9.03
7.19
6.45
6.24
5.85
4.74
2.65
-0.28
-3.70
-7.14
-10.19
-12.55
-13.95
-14.15
-12.95
-10.21
-6.06
-0.96
4.33
8.81
11.60
12.21
10.67
7.54
3.59
-0.38
-3.80
-6.36
-7.90
-8.32
-7.50
-5.42
-2.25
1.54
5.25
8.11
9.55
9.38
7.81
5.33
2.48
-0.35
-3.03
-5.73
-8.65
-11.90
-15.41
-18.91
-22.05
-24.50
-26.03
-26.49
-25.77
-23.75
-20.35
-15.56
-9.61
-3.00
3.51
9.01
12.76
14.44
14.26
13.01
11.64
11.02
11.59
13.24
15.57
18.15
20.71
23.27
25.90
28.46
30.56
31.58
31.05
28.98
25.91
22.76
20.43
19.41
19.61
20.48
21.42
22.01
22.23
22.27
22.31
22.42
22.55
22.71
23.14
24.27
26.49
29.79
33.56
36.74
38.20
37.11
33.31
27.28
19.86
11.94
4.21
-2.96
-9.29
-14.63
-18.75
-21.44
-22.59
-22.21
-20.47
-17.71
-14.33
-10.82
-7.74
-5.65
-4.96
-5.81
-7.99
-10.94
-13.99
-16.63
-18.65
-20.17
-21.56
-23.12
-25.07
-27.44
-30.15
-33.10
-36.07
-38.66
-40.26
-40.13
-37.71
-32.96
-26.43
-19.25
-12.65
-7.51
-4.08
-1.97
-0.44
1.20
3.31
5.81
8.45
10.98
13.41
15.89
18.54
21.21
23.37
24.20
22.92
19.23
13.38
6.25
-1.10
-7.84
-13.57
-18.46
-22.84
-26.93
-30.62
-33.48
-35.05
-35.03
-33.45
-30.64
-26.97
-22.71
-18.01
-12.97
-7.85
-3.18
0.34
1.88
0.87
-2.81
-8.82
-16.35
-24.50
-32.49
-39.84
-46.39
-52.08
-56.63
-59.51
-59.91
-57.16
-51.02
-41.90
-30.88
-19.35
-8.64
0.26
7.00
11.63
14.45
15.70
15.31
12.95
8.31
1.32
-7.56
-17.45
-27.23
-35.87
-42.70
-47.31
-49.51
-49.09
-45.79
-39.54
-30.64
-19.88
-8.46
2.48
12.17
20.44
27.67
34.42
41.00
47.27
52.61
56.28
57.91
57.60
56.02
53.92
51.77
49.54
46.71
42.70
37.21
30.44
23.05
15.80
9.28
3.77
-0.82
-4.71
-8.14
-11.24
-14.03
-16.55
-18.84
-21.03
-23.21
-25.33
-27.07
-27.85
-26.89
-23.58
-17.65
-9.37
0.48
10.83
20.70
29.44
36.85
43.02
48.15
52.35
55.52
57.58
58.57
58.81
58.83
59.13
59.90
60.86
61.29
60.35
57.49
52.75
46.72
40.29
34.20
28.68
23.39
17.69
11.12
3.70
-3.91
-10.75
-16.01
-19.40
-21.30
-22.42
-23.35
-24.28
-24.84
-24.46
-22.71
-19.65
-15.84
-12.10
-9.08
-6.97
-5.44
-3.83
-1.49
1.93
6.30
11.15
15.85
19.88
23.01
25.28
26.88
28.02
28.75
29.03
28.80
28.07
26.91
25.34
23.14
19.90
14.99
7.92
-1.46
-12.81
-25.32
-38.02
-49.95
-60.48
-69.44
-77.01
-83.48
-88.97
-93.15
-95.28
-94.42
-89.78
-81.18
-69.15
-54.88
-39.82
-25.36
-12.54
-1.98
6.12
11.91
15.79
18.41
20.46
22.48
24.67
26.80
28.40
28.91
28.06
25.88
22.65
18.78
14.62
10.53
6.91
4.34
3.45
4.85
8.92
15.70
24.83
35.63
47.14
58.01
66.78
72.13
73.29
70.42
64.59
57.28
49.83
42.80
35.96
28.69
20.42
11.26
1.89
-6.71
-13.70
-18.75
-21.97
-23.77
-24.72
-25.38
-26.38
-28.36
-31.81
-36.80
-42.87
-48.98
-53.85
-56.36
-55.93
-52.68
-47.29
-40.78
-34.02
-27.52
-21.26
-14.78
-7.44
1.19
11.12
21.76
32.19
41.46
49.01
54.81
59.20
62.56
65.01
66.24
65.78
63.39
59.18
53.71
47.52
40.79
33.19
23.96
12.47
-1.34
-16.67
-31.94
-45.28
-55.12
-60.66
-62.07
-60.30
-56.65
-52.41
-48.41
-45.03
-42.32
-40.25
-38.94
-38.66
-39.66
-41.99
-45.33
-49.06
-52.45
-54.95
-56.38
-56.97
-57.17
-57.43
-57.91
-58.39
-58.36
-57.16
-54.33
-49.76
-43.89
-37.64
-32.18
-28.58
-27.47
-28.75
-31.61
-34.78
-36.98
-37.37
-35.86
-33.18
-30.62
-29.47
-30.42
-32.86
-34.68
-32.57
-22.86
-2.81
28.30
68.65
114.31
160.41
202.44
237.14
262.92
279.52
287.49
287.66
280.67
266.65
245.13
215.40
177.37
132.50
84.28
37.81
-1.62
-30.12
-46.33
-51.56
-48.86
-41.88
-33.81
-27.02
-23.05
-22.70
-25.96
-32.02
-39.35
-46.16
-50.90
-52.70
-51.57
-48.14
-43.46
-38.68
-34.64
-31.55
-28.80
-24.99
-18.53
-8.30
5.60
21.57
37.07
49.41
56.78
58.82
56.38
50.96
43.86
35.74
26.66
16.40
4.86
-7.82
-21.44
-35.87
-51.15
-67.27
-83.82
-99.88
-114.14
-125.35
-132.70
-136.10
-135.99
-133.11
-128.12
-121.42
-113.18
-103.42
-92.15
-79.29
-64.78
-48.57
-30.79
-11.95
7.05
25.05
40.90
53.95
64.29
72.67
80.09
87.21
93.95
99.45
102.45
101.95
97.69
90.31
81.11
71.62
63.19
56.79
53.03
52.21
54.20
58.17
62.47
64.93
63.64
57.75
47.90
35.89
23.73
12.67
2.74
-6.99
-17.40
-28.54
-39.57
-49.18
-56.47
-61.55
-65.38
-69.12
-73.35
-77.75
-81.50
-84.01
-85.40
-86.53
-88.45
-91.83
-96.68
-102.44
-108.43
-114.28
-120.23
-126.73
-133.96
-141.44
-148.19
-153.22
-156.04
-156.61
-155.20
-152.26
-147.73
-141.16
-131.84
-119.48
-104.78
-89.21
-74.18
-60.55
-48.59
-37.48
-25.78
-11.74
6.06
28.17
54.18
83.19
113.89
144.37
171.82
191.69
200.55
198.75
189.79
177.46
164.36
154.11
145.74
138.03
129.92
120.84
110.79
100.07
87.78
74.60
61.40
48.31
35.53
23.40
12.88
5.28
0.92
-1.65
-4.91
-11.98
-24.50
-40.00
-53.28
-59.74
-58.19
-51.99
-46.72
-46.51
-51.93
-60.20
-67.20
-70.45
-71.72
-73.26
-76.78
-81.67
-84.90
-83.27
-75.93
-65.22
-55.50
-50.52
-50.72
-53.10
-52.56
-44.23
-24.83
5.29
43.15
84.14
122.85
153.83
172.01
174.29
161.18
137.50
110.95
89.28
77.01
73.87
75.95
78.45
78.09
74.23
68.22
62.05
57.57
56.31
59.70
68.54
82.02
97.01
108.27
109.72
96.45
66.15
19.46
-40.99
-111.98
-189.71
-268.79
-341.15
-396.49
-424.45
-418.07
-376.36
-304.90
-214.70
-118.76
-28.46
48.82
110.02
155.32
186.52
205.79
215.12
215.23
206.34
189.31
166.57
142.15
120.61
104.94
93.00
82.32
69.68
52.49
29.99
3.67
-23.71
-49.25
-72.08
-91.83
-107.44
-118.04
-123.14
-123.21
-119.59
-114.19
-106.89
-98.39
-88.74
-77.35
-64.22
-50.17
-36.82
-25.87
-18.30
-13.98
-12.29
-12.23
-12.94
-14.39
-16.42
-18.72
-20.70
-21.84
-22.22
-22.78
-24.19
-25.93
-25.86
-20.16
-5.74
18.08
48.90
82.21
113.40
139.63
160.54
177.11
190.54
200.04
202.94
196.49
180.03
155.98
129.05
104.02
78.91
53.17
27.77
5.07
-12.80
-25.64
-35.31
-44.73
-56.14
-69.50
-82.07
-90.70
-93.65
-91.82
-88.36
-87.10
-90.61
-98.84
-106.98
-109.14
-100.46
-79.23
-47.46
-10.14
26.57
56.93
76.68
83.78
78.75
64.48
45.70
28.20
17.12
15.23
21.88
33.00
43.85
51.21
54.73
56.38
59.54
66.81
78.47
92.25
103.75
108.81
105.16
93.08
74.57
52.73
30.62
10.60
-5.88
-19.22
-30.32
-40.52
-48.53
-54.30
-58.29
-61.47
-64.95
-69.66
-77.04
-87.31
-99.43
-111.54
-122.20
-131.26
-140.17
-151.27
-159.03
-159.55
-151.09
-135.59
-117.28
-100.66
-88.65
-82.07
-79.46
-77.86
-75.24
-70.26
-63.24
-55.67
-49.60
-46.50
-46.30
-47.29
-46.84
-44.77
-40.04
-32.85
-24.38
-16.22
-9.63
-4.85
-1.02
3.24
8.39
14.14
19.42
22.95
24.33
24.23
24.68
28.19
36.70
50.59
67.10
82.90
94.86
101.29
101.43
96.27
87.58
77.17
66.14
54.88
43.63
32.70
23.38
15.66
9.86
5.70
2.35
-1.27
-6.02
-12.38
-20.82
-30.83
-44.40
-62.31
-84.58
-109.98
-135.71
-157.94
-172.87
-178.05
-171.62
-156.59
-135.47
-110.47
-82.75
-52.52
-20.00
13.73
37.13
58.25
73.86
84.32
91.70
98.44
105.74
112.77
117.28
117.31
114.26
109.11
106.00
108.81
119.14
135.57
154.30
170.98
182.63
189.65
191.99
191.24
188.16
182.31
172.74
159.11
142.39
124.75
109.49
98.03
91.22
88.34
87.44
85.90
81.11
71.18
55.59
35.60
12.85
-10.16
-31.14
-48.38
-60.75
-67.73
-69.31
-66.21
-59.94
-52.84
-47.14
-44.17
-43.92
-45.25
-46.52
-46.38
-44.28
-40.62
-36.40
-32.77
-30.60
-30.41
-32.32
-36.18
-41.66
-48.32
-55.62
-62.67
-67.81
-69.03
-64.32
-52.32
-32.96
-7.57
20.92
48.37
70.39
83.70
86.65
79.55
64.48
44.57
23.29
3.45
-13.52
-27.52
-38.86
-48.28
-56.50
-63.98
-70.88
-76.76
-79.86
-78.71
-72.74
-60.91
-41.84
-14.79
18.54
51.87
75.88
81.77
65.18
26.04
-27.05
-80.94
-123.27
-146.44
-148.59
-132.20
-102.26
-65.40
-29.38
-1.76
11.56
9.28
-3.60
-16.96
-19.71
-5.12
26.11
66.77
107.60
141.37
164.89
178.32
182.73
178.32
164.44
141.38
112.01
82.11
58.56
46.55
47.88
60.22
77.99
94.26
102.78
99.81
84.90
60.46
30.49
-0.86
-30.51
-56.95
-80.45
-102.78
-127.05
-157.39
-198.06
-252.09
-319.28
-394.98
-470.22
-533.64
-574.63
-586.51
-568.14
-523.60
-460.12
-385.15
-304.11
-219.75
-133.13
-45.72
39.31
117.26
184.05
238.46
283.18
323.59
364.82
408.99
454.09
495.51
528.49
550.54
561.76
563.63
556.93
540.89
513.93
475.66
428.62
378.14
330.03
287.56
249.66
211.83
169.53
122.08
74.58
36.59
17.78
23.19
50.58
91.20
133.73
168.67
191.10
200.43
198.32
186.18
164.36
132.93
93.10
48.37
3.91
-34.90
-64.54
-84.42
-96.99
-106.33
-116.43
-129.76
-146.67
-165.82
-185.28
-203.67
-221.04
-238.87
-259.64
-285.94
-319.73
-361.40
-409.13
-458.89
-505.16
-542.37
-566.55
-575.90
-570.31
-550.31
-516.46
-470.28
-415.70
-359.39
-309.23
-271.50
-248.57
-238.54
-237.30
-241.14
-248.01
-256.91
-266.11
-272.12
-270.66
-259.30
-239.63
-217.40
-200.00
-192.79
-196.69
-208.03
-220.74
-229.09
-229.47
-220.81
-203.89
-179.90
-149.27
-111.19
-64.62
-10.41
46.75
97.99
132.43
141.35
122.60
82.15
32.41
-12.31
-40.97
-49.08
-38.49
-14.52
17.63
54.99
96.56
141.83
189.17
235.63
277.87
313.49
341.90
364.33
382.58
397.32
407.17
409.04
399.68
377.73
344.90
305.50
264.85
227.59
196.56
172.74
155.88
145.08
139.07
136.09
134.07
131.27
127.13
122.88
120.98
123.78
132.21
145.33
160.86
176.43
190.31
201.66
210.28
216.16
219.16
219.01
215.08
206.29
191.47
170.24
144.09
116.71
92.95
76.37
66.73
59.29
46.78
23.54
-10.58
-48.88
-80.48
-95.61
-90.66
-69.54
-40.87
-13.07
9.22
25.16
34.99
36.97
27.03
1.47
-39.12
-87.86
-133.42
-164.70
-175.84
-168.46
-150.17
-130.39
-116.35
-111.05
-113.78
-122.13
-133.36
-144.84
-153.63
-156.16
-148.48
-127.26
-91.13
-41.53
17.26
79.13
137.50
186.98
224.50
249.70
264.40
271.38
272.92
269.61
260.10
242.17
214.44
177.93
136.47
95.49
59.95
32.52
12.84
-1.41
-12.77
-22.41
-29.70
-33.21
-32.17
-27.39
-21.04
-15.39
-11.72
-10.00
-9.76
-11.36
-16.37
-27.05
-44.99
-69.81
-99.03
-129.08
-156.90
-181.04
-201.54
-218.95
-233.27
-243.58
-248.47
-247.08
-239.49
-226.83
-210.61
-192.14
-172.12
-150.69
-127.75
-103.61
-79.58
-58.19
-42.65
-35.45
-36.93
-44.40
-52.91
-57.39
-55.21
-47.63
-39.10
-34.71
-37.36
-46.24
-57.66
-67.29
-72.40
-72.90
-70.47
-67.09
-63.82
-60.46
-56.25
-50.87
-44.80
-39.21
-35.24
-33.40
-33.34
-33.99
-34.05
-32.35
-28.14
-21.35
-12.52
-2.66
7.04
15.81
23.43
30.24
36.78
43.23
49.29
54.29
57.68
59.46
60.24
60.77
61.56
62.39
62.51
61.07
57.66
52.67
47.02
41.70
37.36
34.08
31.69
30.11
29.57
30.48
33.01
36.77
40.73
43.57
44.31
42.80
39.73
36.37
33.82
32.60
32.59
33.21
33.88
34.30
34.48
34.57
34.60
34.48
34.11
33.59
33.36
34.09
36.35
40.29
45.33
50.32
53.81
54.64
52.50
48.20
43.42
40.03
39.19
40.85
43.78
45.90
45.12
39.95
29.74
14.55
-5.01
-27.63
-51.22
-73.34
-92.39
-108.72
-124.85
-143.95
-167.78
-195.10
-221.59
-241.74
-251.14
-248.71
-236.63
-218.63
-197.14
-172.39
-143.11
-108.48
-69.45
-28.13
12.48
50.04
83.20
112.63
139.77
165.45
189.34
210.51
229.36
246.94
264.67
283.15
303.14
324.18
344.23
360.01
368.11
367.25
356.84
336.94
307.53
271.11
231.64
193.36
159.10
121.58
77.19
25.69
-23.50
-68.80
-109.74
-146.28
-176.83
-200.52
-217.69
-228.26
-233.22
-234.20
-233.65
-232.70
-232.06
-232.20
-233.52
-235.81
-237.29
-236.90
-234.59
-231.06
-226.11
-219.10
-209.24
-196.17
-180.16
-161.89
-143.29
-126.20
-110.20
-91.78
-66.12
-29.10
21.36
84.98
160.05
239.05
309.99
361.37
386.18
382.90
353.50
301.53
232.45
154.40
81.47
19.63
-26.19
-53.10
-61.84
-56.34
-41.32
-20.13
5.87
35.23
65.48
93.60
115.80
127.75
125.80
108.55
77.26
35.15
-14.26
-67.45
-120.61
-167.97
-202.09
-218.65
-219.09
-209.23
-195.14
-184.49
-177.24
-171.12
-163.95
-155.28
-146.67
-138.19
-129.92
-121.13
-111.03
-99.12
-86.17
-73.26
-61.21
-50.23
-38.76
-23.51
-1.86
25.79
56.03
83.19
102.60
112.31
112.96
108.34
104.78
107.95
120.84
143.19
171.87
203.01
233.15
259.25
269.89
257.62
222.43
172.37
118.47
68.53
25.82
-5.75
-29.80
-48.81
-62.46
-70.06
-71.74
-68.76
-64.23
-59.94
-56.75
-55.47
-55.64
-55.31
-52.57
-46.29
-36.67
-24.95
-12.61
-1.23
7.51
13.19
16.97
20.50
25.16
31.43
38.69
45.78
51.18
53.41
52.15
48.60
44.86
43.46
46.65
55.81
71.31
92.05
115.35
137.76
155.68
166.27
168.03
161.06
146.70
127.04
104.18
79.96
56.00
33.63
13.86
-3.02
-17.40
-30.18
-42.20
-53.70
-64.23
-72.93
-79.03
-82.14
-82.36
-79.89
-74.89
-67.41
-57.69
-46.34
-34.32
-22.83
-12.90
-5.34
-0.52
1.61
1.58
0.18
-1.56
-2.79
-3.04
-2.27
-1.00
0.19
0.93
1.18
1.15
1.04
0.99
1.19
1.86
2.91
4.12
4.97
4.59
1.90
-3.99
-13.32
-25.42
-38.73
-52.27
-65.13
-76.44
-85.59
-92.24
-96.51
-98.73
-99.23
-98.07
-97.20
-98.29
-102.15
-108.58
-116.88
-126.55
-137.25
-148.54
-159.16
-170.36
-182.53
-194.51
-203.88
-208.42
-207.27
-201.09
-191.43
-179.43
-170.38
-168.53
-175.70
-190.94
-211.72
-235.58
-260.76
-286.15
-289.33
-258.57
-195.84
-116.42
-38.31
27.14
76.45
110.72
128.87
137.67
139.03
134.59
127.03
120.07
117.05
119.28
127.05
138.36
152.41
163.92
169.14
167.65
161.78
154.68
149.54
146.18
143.52
142.27
141.59
141.70
141.32
140.23
139.11
138.34
137.30
131.09
117.04
94.03
64.56
37.07
14.15
-3.69
-17.18
-28.77
-39.77
-49.64
-57.34
-61.22
-60.08
-54.11
-44.08
-31.50
-18.23
-5.48
6.78
18.74
30.31
40.71
48.55
53.30
55.46
56.25
57.28
60.15
65.57
73.34
82.58
91.99
100.71
108.17
113.77
116.94
117.13
114.06
107.87
99.16
88.91
78.26
68.17
59.05
50.74
42.83
34.89
26.71
18.45
10.42
2.71
-4.93
-13.12
-22.61
-33.87
-46.75
-60.22
-72.55
-81.80
-86.79
-87.32
-84.01
-77.76
-69.36
-59.27
-47.74
-35.21
-22.71
-12.25
-5.71
-3.72
-5.12
-7.60
-8.94
-8.13
-5.84
-4.11
-5.80
-12.82
-25.16
-40.69
-56.62
-70.64
-81.65
-89.69
-91.64
-85.83
-73.03
-56.82
-41.64
-31.24
-27.61
-30.99
-39.97
-51.90
-64.09
-73.92
-81.44
-84.93
-83.04
-75.59
-63.61
-48.98
-33.90
-20.59
-10.56
-4.43
-1.87
-2.13
-4.10
-6.68
-8.06
-5.94
1.51
14.45
30.65
46.49
59.04
67.75
74.75
83.68
97.12
115.07
134.53
150.90
156.67
147.86
126.43
100.00
77.43
63.61
58.32
57.80
57.93
56.57
54.64
54.44
57.50
64.45
71.95
76.13
74.41
66.47
54.21
41.35
31.56
27.00
27.62
31.18
34.98
36.61
34.55
28.34
18.70
6.85
-6.10
-19.69
-34.29
-50.37
-68.26
-87.88
-108.74
-129.96
-150.58
-169.89
-187.37
-202.66
-215.24
-224.48
-229.84
-230.99
-227.74
-220.06
-208.16
-192.57
-174.30
-154.61
-134.73
-115.44
-96.89
-78.93
-61.53
-45.18
-30.74
-18.80
-9.13
-0.66
7.79
16.76
25.92
34.57
42.48
50.43
59.57
70.12
80.10
85.60
82.63
69.61
48.86
25.95
7.08
-3.92
-6.93
-4.70
-0.25
5.41
13.89
28.08
49.75
77.88
108.60
136.73
157.85
169.78
172.76
168.67
159.73
147.49
132.37
113.81
91.06
64.06
33.90
2.81
-26.64
-52.46
-73.75
-90.49
-102.69
-109.68
-110.10
-102.59
-86.68
-63.18
-33.78
-0.49
34.93
70.74
104.70
133.96
155.55
167.64
170.42
166.29
158.76
150.93
144.22
138.12
130.87
120.46
105.52
85.46
60.60
31.98
1.38
-28.78
-55.93
-77.92
-93.82
-104.18
-110.66
-115.25
-119.43
-123.72
-127.73
-130.67
-131.79
-130.70
-127.19
-121.11
-112.30
-100.66
-86.43
-70.28
-53.30
-36.81
-22.00
-9.54
0.63
9.26
17.31
25.42
33.64
41.35
47.77
52.53
56.15
60.03
65.93
74.99
87.24
101.64
116.46
129.99
141.23
150.12
157.52
164.67
172.10
178.88
182.95
181.49
172.24
154.55
129.90
101.42
72.81
46.48
23.05
2.03
-17.74
-36.96
-55.76
-73.90
-92.15
-109.51
-124.66
-137.26
-147.69
-156.37
-162.55
-164.62
-161.27
-152.56
-140.14
-126.87
-117.05
-111.05
-107.66
-104.62
-99.65
-91.30
-79.31
-64.40
-48.08
-31.89
-16.55
-2.28
11.30
24.19
36.15
46.41
54.03
58.15
58.47
55.76
51.17
45.80
40.16
33.99
26.50
17.07
5.60
-7.34
-20.57
-33.06
-44.17
-53.81
-62.20
-69.57
-75.96
-81.13
-84.78
-86.77
-87.31
-86.85
-85.81
-84.17
-81.42
-76.76
-69.50
-59.53
-47.40
-34.27
-21.44
-9.90
-0.08
8.08
14.95
20.80
25.66
29.32
31.39
31.65
30.11
27.17
23.58
20.24
18.12
18.03
20.49
25.56
32.79
41.28
49.91
57.43
62.99
66.34
67.59
66.99
64.81
61.29
56.90
52.23
47.68
43.42
39.33
34.91
29.63
23.19
15.74
7.87
0.15
-7.57
-15.60
-23.82
-31.73
-38.51
-43.34
-45.86
-45.87
-43.66
-41.06
-39.68
-40.19
-42.94
-48.10
-55.49
-64.34
-72.04
-75.43
-74.37
-69.66
-62.28
-54.66
-49.95
-50.98
-59.31
-72.93
-87.90
-103.28
-117.46
-126.73
-128.62
-122.27
-108.52
-89.26
-63.89
-30.49
8.76
52.95
103.98
162.25
225.84
290.67
336.60
345.08
334.81
319.69
296.74
267.38
233.33
196.32
158.12
120.50
87.59
63.16
44.50
28.22
13.42
-0.71
-14.45
-27.46
-38.99
-46.34
-47.15
-43.64
-37.97
-29.89
-19.09
-5.44
10.93
29.63
51.29
75.86
100.46
122.44
141.02
155.62
165.77
171.12
171.37
167.48
159.65
147.09
129.66
108.55
85.00
59.91
33.57
5.88
-22.56
-52.49
-84.71
-118.95
-153.51
-186.23
-215.58
-241.14
-263.74
-276.92
-275.95
-259.68
-231.74
-198.21
-164.31
-133.10
-105.79
-85.91
-71.36
-61.27
-55.25
-52.74
-52.89
-54.72
-57.62
-59.27
-58.85
-55.58
-50.69
-45.74
-41.83
-38.97
-36.10
-31.71
-24.45
-14.03
-0.67
13.45
25.72
34.11
37.91
37.64
34.47
29.51
23.23
16.11
8.12
-0.35
-8.30
-14.38
-17.52
-17.54
-15.12
-11.52
-7.62
-3.89
-0.09
4.30
9.60
15.54
21.25
25.75
28.33
29.14
28.99
29.03
30.22
32.91
36.84
41.30
45.51
48.95
51.41
52.87
53.23
52.18
49.33
44.47
37.76
29.87
21.71
14.14
7.65
2.31
-2.19
-6.14
-9.74
-12.92
-15.46
-17.20
-18.12
-18.41
-18.36
-18.26
-18.45
-19.30
-21.12
-24.07
-27.84
-31.61
-34.23
-34.57
-32.11
-27.16
-20.84
-14.59
-9.63
-6.59
-5.51
-6.06
-7.92
-10.82
-14.55
-18.73
-22.73
-25.74
-26.99
-25.98
-22.67
-17.41
-10.94
-4.32
1.33
5.00
5.93
3.75
-1.70
-10.26
-21.42
-34.31
-47.86
-60.82
-71.91
-79.96
-84.02
-83.83
-79.93
-73.58
-66.49
-60.19
-55.12
-50.17
-42.89
-30.33
-10.49
17.07
51.76
92.78
137.47
180.95
216.39
237.26
240.17
225.51
197.01
160.34
121.25
83.81
49.87
20.64
-5.30
-28.07
-46.69
-60.03
-67.64
-70.35
-70.44
-69.36
-69.55
-72.98
-80.05
-89.63
-99.42
-106.55
-108.79
-105.37
-97.03
-86.85
-76.48
-67.07
-59.58
-54.56
-51.91
-50.73
-49.44
-46.30
-40.18
-30.71
-18.54
-4.94
7.90
18.27
25.38
29.26
30.40
29.27
26.40
22.24
17.21
11.69
6.11
0.66
-4.61
-9.53
-13.51
-15.31
-13.65
-7.92
1.40
12.77
24.17
33.84
40.94
45.62
48.57
50.33
50.96
50.07
47.38
43.13
38.23
33.98
31.50
31.25
32.94
35.80
39.09
42.42
45.65
48.67
51.02
51.96
50.76
47.17
41.78
35.82
30.68
27.29
25.78
25.56
25.81
25.84
25.40
24.48
23.15
21.42
19.18
16.29
12.75
8.63
4.07
-0.87
-6.33
-12.65
-20.30
-29.69
-40.92
-53.60
-66.82
-79.12
-88.83
-94.24
-94.00
-87.16
-73.29
-52.53
-25.73
5.47
38.52
70.26
97.40
117.33
128.76
131.86
127.98
118.82
105.73
89.39
69.98
47.68
23.13
-2.55
-28.04
-52.25
-74.58
-94.88
-113.14
-129.22
-142.72
-153.01
-159.45
-161.60
-159.34
-152.83
-142.57
-129.17
-113.25
-95.38
-76.03
-55.55
-34.18
-11.96
11.19
35.38
60.55
86.24
111.69
136.02
158.40
178.31
195.34
209.14
219.33
225.49
227.39
225.04
218.54
208.10
193.90
176.52
157.30
138.22
121.31
107.56
96.15
84.52
69.38
48.41
21.30
-10.04
-42.37
-72.27
-97.08
-115.21
-126.02
-129.72
-127.47
-121.67
-115.63
-112.77
-115.37
-123.62
-135.70
-148.51
-159.00
-165.08
-165.69
-160.50
-149.70
-134.01
-115.07
-95.40
-77.60
-63.23
-51.82
-41.08
-28.18
-11.50
8.22
28.19
45.00
56.39
62.12
63.37
61.36
56.25
46.99
32.37
12.20
-12.18
-38.42
-64.05
-87.35
-107.52
-124.37
-137.63
-146.50
-149.56
-145.12
-131.77
-109.25
-79.03
-44.56
-10.57
18.16
38.37
49.21
52.08
49.52
43.82
36.17
27.06
17.18
8.09
2.03
0.75
4.27
10.56
16.27
18.59
16.91
13.32
11.52
14.73
23.63
35.95
47.73
55.65
58.81
58.85
58.51
59.81
63.34
68.12
72.55
75.47
76.46
75.45
72.32
66.58
58.00
47.76
37.50
28.67
21.91
17.04
13.59
11.49
10.92
12.29
16.98
25.71
38.42
54.38
72.65
92.31
112.78
133.21
152.57
171.19
188.72
203.90
214.55
218.25
212.94
197.87
172.96
131.32
72.90
4.20
-63.63
-120.24
-159.94
-184.45
-196.13
-197.10
-189.67
-173.95
-152.72
-130.59
-112.18
-99.64
-91.59
-83.70
-72.05
-55.71
-36.42
-18.98
-8.39
-7.43
-15.44
-28.85
-42.96
-54.30
-61.37
-63.40
-60.58
-53.56
-43.77
-33.69
-26.54
-25.33
-31.90
-45.94
-64.35
-82.54
-96.00
-101.76
-99.31
-90.41
-77.93
-64.71
-52.60
-42.00
-32.46
-23.38
-14.39
-5.43
3.51
12.58
21.92
31.42
40.47
48.14
53.59
56.46
57.08
56.15
54.39
52.11
49.14
45.06
39.46
32.19
23.36
13.32
2.48
-8.58
-19.26
-28.83
-36.65
-42.20
-45.25
-45.87
-44.45
-41.54
-37.77
-33.68
-29.61
-25.72
-22.02
-18.51
-15.19
-12.12
-9.39
-7.10
-5.22
-3.60
-1.94
0.15
3.03
6.90
11.65
16.86
21.98
26.41
29.76
31.83
32.54
31.78
29.30
24.82
18.32
10.30
1.83
-5.50
-10.06
-10.62
-6.83
0.71
10.55
20.80
29.69
35.94
38.99
38.92
36.18
31.48
25.58
19.28
13.46
8.94
6.34
5.87
7.17
9.45
11.75
13.32
13.77
13.14
11.72
9.86
7.82
5.78
3.94
2.54
1.86
2.09
3.29
5.34
7.97
10.97
14.29
18.14
22.84
28.78
36.14
44.81
54.23
63.58
71.92
78.46
82.79
84.90
85.09
83.74
81.14
77.50
73.00
67.89
62.50
57.08
51.69
46.07
39.79
32.39
23.62
13.44
2.03
-10.47
-23.96
-38.39
-53.60
-69.17
-84.35
-98.12
-109.47
-117.57
-122.01
-122.88
-120.78
-116.61
-111.29
-105.49
-99.44
-93.00
-85.96
-78.32
-70.56
-63.48
-57.91
-54.36
-52.88
-53.10
-54.52
-56.79
-59.70
-63.02
-66.31
-68.91
-70.15
-69.75
-67.98
-65.52
-63.21
-61.47
-60.21
-58.94
-57.12
-54.53
-51.39
-48.06
-44.84
-41.56
-37.72
-32.63
-25.77
-16.96
-6.37
5.60
18.43
31.64
44.83
57.62
69.71
80.80
90.62
98.89
105.27
109.59
111.90
112.59
112.23
111.29
109.80
107.29
102.98
96.34
87.54
77.60
68.13
60.71
56.30
54.90
55.60
57.05
58.09
58.04
56.96
55.35
53.86
52.91
52.44
52.05
51.24
49.78
47.99
46.54
46.16
47.24
49.49
52.20
54.53
55.95
56.44
56.26
55.59
54.23
51.59
47.06
40.38
31.75
21.64
10.47
-1.63
-14.74
-28.91
-43.82
-58.69
-72.39
-83.74
-91.82
-96.21
-96.92
-94.44
-89.48
-82.88
-75.40
-67.56
-59.69
-52.03
-44.92
-38.94
-34.70
-32.54
-32.32
-33.39
-34.87
-36.02
-36.49
-36.34
-35.68
-34.32
-31.53
-26.32
-17.95
-6.54
6.80
20.34
32.49
42.47
50.48
57.28
63.49
69.04
73.34
75.73
76.26
76.00
76.59
79.47
84.93
91.81
97.99
101.20
99.97
94.08
84.37
72.22
58.92
45.41
32.21
19.55
7.71
-2.96
-12.05
-19.27
-24.61
-28.45
-31.49
-34.52
-38.13
-42.40
-46.88
-50.76
-53.28
-54.13
-53.59
-52.42
-51.46
-51.27
-51.94
-53.18
-54.50
-55.58
-56.27
-56.68
-56.95
-57.20
-57.40
-57.30
-56.65
-55.31
-53.39
-51.36
-49.87
-49.37
-49.90
-50.89
-51.46
-50.77
-48.35
-44.38
-39.42
-34.12
-28.90
-23.83
-18.78
-13.79
-9.15
-5.44
-3.24
-2.81
-3.92
-5.87
-7.94
-9.74
-11.57
-14.29
-18.86
-25.74
-34.47
-43.65
-51.49
-56.62
-58.72
-58.75
-58.56
-60.03
-64.27
-71.11
-79.29
-87.10
-93.19
-97.24
-99.99
-102.78
-106.85
-112.71
-119.93
-127.37
-133.62
-137.55
-138.46
-136.16
-130.88
-123.15
-113.77
-103.63
-93.34
-82.88
-71.28
-56.83
-37.64
-12.46
18.55
53.65
89.89
123.85
152.63
174.48
189.04
197.23
200.70
201.24
200.47
199.27
197.95
196.35
194.05
190.65
185.85
179.60
172.18
164.11
156.04
148.63
142.20
136.62
131.34
125.60
118.90
111.14
102.76
94.36
86.35
78.89
71.70
64.28
56.28
47.48
38.00
28.10
17.98
7.80
-2.04
-11.25
-19.51
-26.69
-32.79
-37.71
-41.32
-43.42
-43.77
-41.74
-37.19
-30.87
-24.21
-18.83
-15.40
-13.43
-11.57
-8.26
-1.57
9.19
23.43
39.82
57.02
74.87
93.74
113.59
133.21
151.23
165.46
173.45
173.30
164.28
147.86
126.53
102.79
72.70
36.38
-2.29
-37.05
-61.45
-75.93
-82.24
-81.65
-73.93
-58.90
-35.62
-4.21
33.43
73.39
110.26
138.63
154.70
160.02
157.46
150.32
140.05
127.47
112.82
96.15
78.28
60.36
43.42
27.73
14.12
3.42
-3.92
-8.55
-12.55
-18.39
-28.31
-43.51
-64.10
-88.58
-114.88
-141.22
-166.72
-191.17
-214.01
-233.91
-248.67
-256.17
-254.99
-245.41
-229.66
-211.34
-194.12
-180.23
-169.69
-160.89
-151.92
-141.75
-130.83
-120.69
-112.96
-108.49
-107.10
-108.16
-111.41
-117.39
-127.29
-142.11
-161.91
-185.81
-212.26
-239.62
-266.66
-292.44
-316.05
-335.87
-349.32
-353.21
-344.74
-322.80
-288.64
-245.53
-197.75
-149.35
-103.46
-62.45
-28.27
-2.91
11.97
15.98
10.65
-0.68
-13.99
-25.81
-34.02
-37.36
-35.29
-27.70
-14.92
2.05
21.52
41.31
59.91
76.78
93.25
110.54
128.63
146.11
161.27
173.52
183.93
195.21
210.03
231.24
259.18
291.74
325.37
356.81
384.14
406.24
422.96
433.90
440.31
442.90
441.63
435.75
424.52
407.75
385.39
358.68
316.14
253.92
176.33
94.26
18.52
-45.42
-94.78
-135.28
-171.01
-203.37
-229.96
-248.67
-257.73
-257.66
-250.43
-238.31
-223.76
-208.05
-192.32
-176.17
-159.57
-143.12
-128.19
-115.99
-107.05
-101.38
-97.80
-95.06
-91.14
-84.89
-76.39
-67.00
-58.49
-52.17
-48.61
-47.01
-46.00
-43.75
-39.00
-31.44
-21.95
-11.92
-2.68
4.78
10.36
14.36
17.41
19.92
21.81
22.64
22.03
19.98
17.10
14.39
12.79
12.75
14.03
15.91
17.56
18.44
18.51
18.15
17.83
17.84
18.02
17.85
16.73
14.38
11.05
7.56
4.94
4.01
4.85
6.87
8.98
10.12
9.66
7.51
3.98
-0.45
-5.47
-10.88
-16.42
-21.74
-26.37
-30.00
-32.79
-35.30
-38.39
-42.69
-48.23
-54.37
-59.90
-63.48
-63.94
-60.59
-53.26
-42.32
-28.59
-13.32
1.95
15.58
26.12
32.62
34.74
32.79
27.68
20.71
13.41
7.26
3.49
2.74
4.94
9.39
15.04
20.89
26.24
30.83
34.70
38.03
40.88
43.27
45.30
47.26
49.62
52.77
56.75
61.13
65.08
67.79
68.82
68.33
66.90
65.18
63.42
61.36
58.25
53.28
46.00
36.64
26.16
15.93
7.28
1.05
-2.71
-4.58
-5.42
-6.00
-6.55
-6.78
-6.30
-4.93
-3.04
-1.32
-0.34
-0.23
-0.57
-0.68
0.01
1.40
2.75
3.05
1.72
-1.01
-4.07
-6.13
-6.08
-3.08
2.72
10.36
18.46
25.68
31.27
35.02
36.86
37.10
36.88
37.14
38.42
40.71
43.72
47.16
50.75
53.71
55.61
57.61
60.89
66.27
73.94
83.35
93.68
103.99
112.56
118.88
125.01
133.37
146.02
163.83
186.24
212.15
240.32
268.99
284.74
277.79
243.92
187.37
118.52
48.34
-15.02
-61.53
-93.27
-113.07
-121.69
-120.18
-110.52
-95.70
-80.74
-69.45
-64.35
-67.41
-77.89
-92.32
-106.90
-118.64
-126.44
-131.02
-133.76
-135.85
-138.34
-140.52
-140.44
-136.79
-129.63
-120.36
-110.93
-102.64
-95.82
-90.45
-85.84
-81.32
-76.99
-73.40
-70.99
-69.66
-68.67
-67.21
-65.19
-62.92
-61.07
-60.15
-60.14
-60.34
-59.74
-57.48
-53.31
-47.65
-41.26
-34.79
-28.57
-22.55
-16.45
-10.08
-3.55
2.72
7.98
11.53
13.00
12.47
10.45
7.60
4.50
1.50
-1.30
-3.83
-5.98
-7.54
-8.31
-8.30
-7.82
-7.42
-7.79
-9.43
-12.44
-16.47
-20.76
-24.52
-27.17
-28.60
-29.12
-29.20
-29.15
-28.99
-28.44
-27.26
-25.39
-22.99
-20.11
-16.33
-10.50
-0.83
14.64
37.23
67.02
102.49
140.62
177.51
209.20
232.39
244.93
246.03
236.21
217.11
191.17
161.37
130.80
102.02
76.63
54.88
35.82
17.89
-0.36
-19.50
-39.03
-57.72
-74.23
-87.69
-97.97
-105.36
-110.34
-113.14
-113.62
-111.44
-106.33
-98.58
-89.14
-79.40
-70.88
-64.69
-61.30
-60.18
-59.93
-58.98
-56.34
-52.13
-47.52
-44.11
-43.24
-45.86
-51.79
-59.96
-68.97
-77.87
-86.60
-95.88
-106.51
-118.75
-132.32
-145.51
-155.54
-159.63
-156.63
-147.79
-136.26
-125.62
-118.21
-115.28
-115.84
-117.21
-116.08
-109.48
-95.21
-71.77
-38.54
8.10
64.96
122.15
166.65
189.54
190.67
177.27
158.86
142.17
129.13
117.03
102.66
85.29
67.17
52.31
44.03
43.55
50.00
61.33
74.22
85.79
94.01
97.83
96.97
91.66
82.66
70.46
56.57
42.30
28.94
17.60
9.08
3.60
0.74
-0.62
-2.15
-5.36
-11.43
-20.41
-31.07
-41.55
-50.20
-55.94
-58.54
-57.98
-53.86
-45.68
-33.02
-16.20
3.17
22.66
40.17
54.56
66.06
75.68
84.14
91.08
95.10
94.19
85.21
67.27
42.32
14.71
-10.70
-31.21
-47.13
-59.54
-69.87
-79.61
-88.63
-97.43
-106.54
-116.24
-126.18
-135.23
-141.96
-145.45
-145.62
-142.80
-137.55
-129.98
-119.63
-105.78
-87.97
-66.54
-42.95
-19.50
1.96
20.60
37.25
53.84
72.20
93.23
116.74
141.76
166.99
191.36
213.95
234.03
250.88
263.92
272.88
277.80
278.71
274.43
262.67
240.82
207.39
163.38
112.20
58.76
8.25
-35.07
-69.10
-93.59
-109.81
-120.18
-127.83
-136.42
-149.00
-166.43
-182.81
-189.32
-178.71
-150.51
-112.19
-74.23
-44.97
-27.89
-22.31
-25.87
-37.30
-56.44
-82.19
-112.09
-138.87
-153.43
-149.13
-125.30
-88.37
-49.76
-21.12
-9.44
-15.60
-35.06
-60.32
-83.83
-100.30
-107.62
-106.27
-100.16
-89.48
-72.81
-48.38
-15.08
26.66
74.48
123.08
165.07
193.14
202.70
192.78
166.52
130.62
93.32
61.66
39.89
29.40
29.52
38.91
55.83
78.23
101.35
119.72
128.03
122.71
103.03
71.37
33.12
-2.87
-31.86
-50.94
-59.30
-58.54
-51.90
-42.91
-34.30
-27.86
-24.46
-24.45
-26.96
-30.14
-31.87
-30.32
-24.71
-15.77
-5.63
2.74
6.32
3.85
-3.72
-13.63
-22.40
-27.39
-27.81
-24.75
-20.44
-17.11
-15.90
-16.86
-19.54
-23.68
-29.50
-37.41
-47.57
-59.45
-72.05
-84.16
-94.84
-103.18
-108.10
-108.62
-104.31
-95.83
-85.01
-74.31
-65.79
-60.40
-56.83
-51.72
-41.20
-22.69
3.73
35.11
66.82
93.95
112.55
121.34
122.21
119.48
118.83
126.30
147.07
184.33
238.08
297.75
347.26
370.27
357.45
310.93
241.93
163.61
86.28
16.07
-42.07
-88.36
-121.76
-140.92
-146.39
-141.50
-132.06
-124.20
-122.40
-127.09
-134.86
-140.42
-139.37
-132.95
-123.25
-113.28
-104.83
-99.32
-96.95
-96.71
-96.55
-94.58
-89.80
-81.85
-71.31
-59.00
-45.60
-31.38
-16.58
-1.47
13.28
26.49
37.31
45.19
50.27
53.31
55.36
56.89
57.59
56.34
51.88
43.85
32.85
20.30
7.58
-4.66
-16.76
-29.33
-42.35
-54.30
-62.36
-63.69
-56.89
-43.01
-25.16
-7.28
7.57
18.40
26.23
33.17
40.95
49.91
58.98
66.38
70.73
71.76
70.35
67.83
65.27
62.79
59.83
55.62
49.85
43.04
36.29
30.71
26.85
24.34
22.13
19.15
14.90
9.83
5.10
1.94
0.94
1.62
2.81
3.16
1.85
-1.13
-5.12
-9.33
-13.28
-16.96
-20.72
-24.83
-29.35
-34.11
-38.89
-43.55
-48.10
-52.63
-57.10
-61.22
-64.37
-65.76
-64.77
-61.23
-55.38
-48.07
-40.44
-33.70
-28.78
-26.07
-25.46
-26.54
-28.63
-30.79
-32.12
-31.97
-30.29
-27.47
-24.11
-20.65
-17.23
-13.47
-8.18
-0.03
11.94
27.59
45.49
63.32
78.46
88.50
92.44
91.55
88.96
88.83
94.84
108.99
131.03
158.56
187.49
209.31
216.27
204.75
177.98
144.10
111.10
83.08
61.85
44.28
28.28
14.12
3.04
-4.25
-8.63
-11.67
-15.13
-19.97
-26.47
-34.16
-42.36
-50.72
-59.10
-67.55
-76.05
-84.69
-93.67
-103.63
-114.98
-127.54
-140.43
-152.40
-162.45
-170.19
-175.89
-179.85
-182.15
-182.07
-178.40
-170.11
-156.89
-139.51
-119.68
-99.51
-80.95
-65.36
-53.23
-44.48
-38.62
-34.98
-32.79
-31.08
-28.82
-25.02
-19.12
-11.29
-2.46
6.06
13.23
18.91
23.90
29.52
36.88
46.15
56.43
66.28
74.44
80.51
85.11
89.34
94.20
100.01
106.66
114.04
122.54
133.14
146.84
163.83
182.88
201.37
216.16
224.74
226.27
221.86
213.98
205.18
196.86
188.59
178.52
164.35
144.60
119.45
90.66
60.88
32.57
7.05
-15.68
-36.48
-56.30
-75.57
-93.92
-110.51
-124.40
-135.04
-142.51
-147.46
-150.62
-152.42
-152.88
-151.72
-148.77
-144.18
-138.29
-131.89
-125.91
-121.02
-117.50
-115.23
-113.93
-113.70
-114.68
-116.76
-119.91
-123.81
-127.59
-130.08
-130.41
-128.58
-126.13
-125.02
-126.57
-131.54
-139.64
-149.26
-158.01
-163.58
-164.23
-159.57
-149.49
-133.46
-111.80
-85.71
-56.85
-27.36
0.51
28.26
55.28
76.94
93.36
107.00
119.13
129.88
138.55
144.13
145.94
143.46
137.22
128.90
119.62
109.74
99.41
88.76
78.00
67.63
57.84
49.06
42.18
37.27
33.75
30.89
28.09
25.22
22.61
20.62
19.67
20.14
21.60
23.13
23.88
23.58
22.50
21.43
21.14
22.21
25.02
29.45
35.10
41.56
48.41
55.10
61.05
65.52
67.71
67.03
63.06
55.89
46.17
35.11
24.12
14.65
7.76
3.75
2.04
1.36
0.22
-2.54
-7.23
-13.37
-19.53
-23.89
-24.87
-21.55
-13.89
-2.50
11.60
27.32
41.42
50.47
52.05
46.34
36.17
25.45
17.23
12.59
10.93
10.59
10.19
9.33
8.49
8.46
9.51
11.63
13.34
13.26
10.70
6.35
1.95
-0.51
0.03
3.82
9.80
16.05
21.05
23.58
23.30
20.70
16.58
11.72
6.48
0.84
-5.31
-11.77
-18.26
-24.45
-29.58
-34.82
-41.87
-53.97
-73.33
-98.55
-124.13
-143.12
-150.58
-145.90
-132.59
-115.45
-97.64
-79.36
-59.06
-36.14
-12.81
6.42
17.42
18.60
12.27
3.14
-4.39
-8.47
-10.32
-12.76
-18.33
-26.69
-35.62
-41.97
-43.27
-38.72
-29.15
-16.42
-2.41
11.73
25.81
40.03
54.61
69.48
84.01
96.66
105.36
108.25
104.48
96.18
84.60
71.40
58.11
45.41
33.02
20.29
6.76
-7.31
-21.01
-33.48
-43.85
-51.73
-57.32
-61.30
-64.33
-66.85
-68.81
-69.97
-69.86
-68.46
-66.08
-63.22
-60.26
-57.18
-53.63
-49.09
-43.20
-36.19
-28.67
-21.43
-15.20
-10.28
-6.35
-2.62
1.84
7.67
14.82
22.70
30.42
37.19
42.55
46.44
48.88
49.56
47.77
42.71
34.01
22.21
8.77
-4.43
-15.72
-24.23
-29.92
-33.08
-33.93
-32.38
-28.24
-21.65
-13.29
-4.28
4.34
11.91
18.12
22.76
25.35
25.12
21.37
14.01
4.04
-6.31
-14.48
-18.48
-17.66
-12.96
-6.38
-0.14
4.46
7.66
11.57
18.89
31.76
50.96
75.72
103.98
132.95
159.73
181.69
197.43
206.08
207.67
203.32
194.99
184.89
174.60
164.44
153.61
141.46
127.06
109.86
89.92
67.88
44.73
21.33
-1.66
-27.55
-56.53
-87.01
-116.39
-142.25
-163.05
-178.00
-186.71
-189.33
-188.28
-184.28
-178.12
-170.51
-161.87
-152.30
-141.75
-130.61
-119.75
-109.59
-100.14
-91.04
-81.49
-70.68
-58.40
-45.52
-33.90
-25.63
-22.05
-22.70
-25.58
-28.10
-28.16
-25.00
-19.19
-12.06
-4.99
1.09
5.85
9.51
12.67
16.11
21.03
29.14
42.26
61.36
85.66
112.20
137.11
157.19
170.89
178.85
183.55
188.55
197.41
212.63
228.73
239.43
239.87
228.49
207.22
179.43
147.79
113.51
77.04
41.50
7.14
-24.04
-49.26
-66.67
-76.64
-81.69
-85.41
-91.16
-99.66
-110.60
-122.38
-133.43
-142.87
-150.88
-157.97
-164.19
-168.89
-171.20
-170.81
-167.53
-161.67
-153.57
-143.73
-132.20
-118.15
-100.03
-76.35
-46.74
-12.13
25.10
61.35
91.59
110.20
112.66
97.17
65.70
24.07
-19.48
-56.42
-77.20
-76.58
-57.51
-30.51
-7.49
4.42
4.63
-3.92
-17.68
-34.07
-51.86
-69.87
-85.80
-96.47
-101.59
-99.89
-92.15
-80.55
-67.47
-54.91
-43.73
-33.51
-22.99
-11.15
2.22
15.67
27.01
34.21
35.52
30.40
20.07
7.30
-4.61
-12.67
-15.62
-13.99
-9.62
-4.83
-1.51
-0.26
-0.42
-0.62
0.46
2.89
5.68
7.36
7.11
5.29
3.30
2.79
4.82
9.31
15.10
20.63
24.75
27.89
31.10
35.32
40.38
44.81
46.69
44.60
38.33
28.97
19.52
12.97
11.61
16.02
25.16
37.12
49.81
61.51
71.04
79.61
89.45
103.43
123.51
150.04
181.90
217.39
254.88
283.83
295.34
283.68
249.63
199.08
139.71
78.61
21.49
-27.19
-64.81
-87.90
-98.12
-97.92
-90.69
-79.97
-68.75
-58.85
-50.74
-44.50
-38.51
-31.92
-23.77
-14.30
-4.85
3.06
8.55
12.29
14.84
17.34
20.44
23.72
25.62
24.63
20.29
13.29
5.77
-1.90
-10.19
-19.96
-32.63
-49.56
-71.34
-97.83
-128.68
-162.60
-200.14
-241.47
-277.90
-298.71
-295.15
-265.15
-214.53
-161.89
-113.79
-72.81
-39.04
-10.73
15.18
39.65
62.63
83.41
101.14
115.70
126.10
132.74
137.93
143.46
149.40
154.12
156.47
154.22
147.31
135.93
120.97
103.58
84.14
61.91
35.72
5.04
-30.42
-69.38
-109.94
-148.94
-182.25
-206.09
-218.24
-218.30
-207.41
-187.68
-160.85
-128.96
-94.31
-59.66
-27.90
-1.33
19.30
34.89
46.95
56.77
64.38
68.86
69.22
65.36
58.29
49.69
41.08
32.99
25.12
16.91
8.18
-0.51
-8.18
-14.02
-17.72
-19.71
-20.71
-21.05
-20.21
-16.82
-9.33
3.28
20.91
42.15
64.82
86.67
106.03
122.16
135.04
144.81
151.49
154.80
154.48
150.77
144.40
136.42
127.52
117.74
106.37
92.48
75.47
55.46
33.25
10.09
-12.74
-34.11
-53.12
-69.12
-81.66
-90.47
-95.48
-96.67
-94.18
-88.41
-80.26
-71.34
-63.71
-59.35
-59.50
-64.05
-71.71
-80.51
-88.70
-95.45
-100.86
-105.61
-110.40
-115.46
-120.54
-125.06
-128.35
-129.83
-128.82
-124.52
-116.11
-102.91
-84.88
-62.88
-38.67
-14.65
6.72
23.53
34.82
40.79
42.65
42.19
41.18
40.72
41.02
41.54
41.43
40.26
38.18
35.83
33.85
32.34
30.78
28.50
25.15
21.12
17.46
15.31
15.30
17.17
19.98
22.66
24.51
25.45
25.81
25.99
26.16
26.18
25.80
24.97
24.05
23.75
24.78
27.50
31.59
35.96
39.15
39.80
37.19
31.45
23.39
14.05
4.36
-5.17
-14.30
-22.87
-30.63
-37.29
-42.78
-47.39
-51.86
-57.11
-63.82
-72.15
-81.68
-91.60
-101.03
-109.22
-115.40
-118.80
-118.59
-114.07
-105.03
-91.96
-75.98
-58.47
-40.61
-23.08
-6.11
10.21
25.71
40.30
54.16
67.95
82.57
98.73
116.44
134.93
152.96
169.30
183.12
194.18
202.78
209.54
215.27
220.76
226.66
233.29
240.49
247.61
253.62
257.40
258.13
255.48
249.56
240.71
229.18
214.96
197.64
176.60
151.51
122.74
91.64
60.22
30.92
5.84
-13.80
-28.23
-38.91
-48.07
-57.87
-69.57
-83.23
-97.45
-109.71
-117.29
-118.20
-111.74
-98.45
-79.52
-56.24
-30.20
-2.68
25.12
51.95
76.50
97.61
114.76
128.10
138.15
143.78
143.65
136.75
122.74
101.92
75.18
43.93
10.00
-24.72
-61.70
-102.00
-145.40
-190.30
-234.86
-277.97
-319.55
-360.26
-401.26
-448.06
-503.44
-565.27
-626.90
-680.46
-720.35
-744.61
-754.25
-751.78
-745.21
-739.08
-732.38
-720.21
-698.07
-665.11
-624.14
-579.49
-497.10
-363.74
-189.87
-5.27
159.31
286.00
370.80
418.71
439.40
442.68
433.72
416.00
393.28
370.12
350.41
336.43
329.37
329.96
338.00
347.41
352.38
349.98
340.98
328.28
314.76
302.16
290.72
279.47
264.16
241.90
213.01
181.03
150.88
126.75
111.19
104.85
106.72
113.19
120.33
125.15
126.16
123.07
116.34
106.89
95.83
84.07
71.46
57.44
41.40
23.13
2.97
-18.19
-39.00
-57.98
-73.97
-86.46
-95.70
-102.47
-107.61
-111.76
-115.29
-118.36
-121.16
-123.72
-125.71
-126.20
-123.89
-117.64
-107.29
-94.19
-80.92
-70.40
-64.57
-63.57
-65.70
-68.31
-68.97
-66.29
-60.21
-51.43
-40.79
-28.89
-16.09
-2.83
10.07
21.47
30.24
35.71
38.00
37.90
36.57
34.96
33.51
32.13
30.37
27.81
24.36
20.31
16.17
12.40
9.19
6.41
3.78
1.05
-1.82
-4.67
-7.24
-9.39
-11.16
-12.79
-14.62
-16.89
-19.51
-22.01
-23.60
-23.43
-20.89
-15.91
-9.01
-1.20
6.43
12.99
17.99
21.32
23.01
23.09
21.39
17.73
12.11
4.92
-3.09
-11.05
-18.32
-24.72
-30.48
-36.06
-41.67
-47.15
-51.93
-55.38
-57.07
-57.03
-55.79
-54.15
-52.81
-52.10
-51.79
-51.09
-48.83
-43.77
-34.98
-22.10
-5.34
14.57
36.80
60.56
85.18
109.98
133.97
155.87
174.36
188.39
197.62
202.34
203.27
201.02
195.85
187.70
176.64
163.14
148.18
132.86
117.99
103.84
90.16
76.63
63.28
50.69
39.78
31.41
25.89
22.89
21.36
19.99
17.72
14.17
10.09
7.24
7.85
13.77
25.39
41.29
58.57
73.76
83.94
87.46
83.95
73.99
58.47
38.39
14.91
-10.53
-36.12
-60.11
-81.33
-99.52
-115.37
-129.94
-144.05
-157.84
-170.65
-181.41
-189.02
-192.64
-191.77
-186.16
-175.80
-160.97
-142.44
-121.56
-100.08
-79.70
-61.75
-46.80
-34.76
-25.11
-17.15
-10.29
-4.05
1.89
7.71
13.40
18.82
23.71
27.82
30.95
33.03
34.08
34.11
33.16
31.36
28.93
26.33
24.03
22.46
21.82
22.02
22.73
23.66
24.66
25.79
27.20
28.85
30.39
31.06
30.01
26.66
21.03
13.92
6.69
0.76
-2.80
-3.71
-2.44
0.12
3.02
5.75
8.21
10.66
13.30
15.98
18.19
19.29
18.89
17.16
14.70
12.26
10.25
8.52
6.54
3.78
0.10
-4.02
-7.72
-10.22
-11.22
-11.07
-10.53
-10.35
-10.95
-12.24
-13.81
-15.19
-16.05
-16.25
-15.75
-14.46
-12.19
-8.76
-4.16
1.31
7.12
12.51
16.85
19.71
21.02
21.04
20.22
19.00
17.65
16.24
14.67
12.81
10.67
8.44
6.40
4.78
3.68
2.96
2.36
1.66
0.75
-0.28
-1.36
-2.44
-3.62
-5.05
-6.82
-8.79
-10.59
-11.75
-11.82
-10.52
-7.86
-4.16
0.10
4.39
8.28
11.49
13.86
15.30
15.68
14.84
12.68
9.29
5.09
0.81
-2.72
-4.88
-5.48
-4.83
-3.59
-2.36
-1.47
-0.85
-0.18
0.82
2.19
3.60
4.53
4.44
3.04
0.43
-2.97
-6.56
-9.68
-11.88
-12.84
-12.38
-10.43
-7.01
-2.34
3.11
8.59
13.17
15.99
16.57
14.89
11.48
7.15
2.71
-1.27
-4.58
-7.28
-9.52
-11.37
-12.71
-13.35
-13.10
-11.95
-10.16
-8.08
-6.07
-4.36
-3.02
-2.06
-1.53
-1.52
-2.25
-3.82
-6.02
-8.32
-9.81
-9.55
-6.89
-1.80
4.94
12.02
18.02
21.91
23.46
23.15
21.75
19.97
18.02
15.76
13.01
9.87
6.84
4.54
3.40
3.40
4.00
4.53
4.51
3.90
3.08
2.52
2.49
2.87
3.09
2.46
0.46
-2.99
-7.46
-12.12
-15.97
-18.15
-18.15
-15.96
-11.92
-6.72
-1.11
4.16
8.53
11.61
13.20
13.26
11.95
9.59
6.69
3.82
1.51
0.03
-0.70
-1.06
-1.53
-2.41
-3.66
-5.03
-6.22
-7.10
-7.81
-8.63
-9.78
-11.26
-12.89
-14.42
-15.79
-17.02
-18.20
-19.25
-19.75
-19.05
-16.44
-11.53
-4.51
3.87
12.44
20.01
25.80
29.52
31.50
32.28
32.34
31.89
30.81
28.90
26.03
22.35
18.25
14.21
10.61
7.58
4.95
2.45
-0.15
-2.87
-5.45
-7.52
-8.76
-9.12
-8.81
-8.26
-7.84
-7.74
-7.90
-8.12
-8.26
-8.24
-8.18
-8.10
-7.94
-7.40
-6.08
-3.72
-0.33
3.70
7.66
10.83
12.67
13.02
12.14
10.46
8.38
6.18
3.88
1.44
-1.09
-3.45
-5.20
-5.95
-5.49
-4.00
-2.03
-0.23
0.84
0.98
0.37
-0.52
-1.25
-1.59
-1.68
-1.91
-2.68
-4.23
-6.45
-8.98
-11.35
-13.17
-14.19
-14.28
-13.36
-11.34
-8.18
-3.95
1.04
6.27
11.03
14.64
16.63
16.89
15.67
13.47
10.90
8.48
6.51
5.07
4.12
3.54
3.30
3.33
3.47
3.42
2.79
1.23
-1.32
-4.60
-8.03
-11.00
-13.10
-14.25
-14.68
-14.82
-15.03
-15.50
-16.13
-16.61
-16.54
-15.58
-13.59
-10.66
-7.09
-3.24
0.59
4.19
7.48
10.33
12.45
13.50
13.19
11.46
8.68
5.47
2.57
0.51
-0.56
-0.83
-0.67
-0.46
-0.33
-0.32
-0.39
-0.52
-0.87
-1.58
-2.74
-4.27
-5.97
-7.56
-8.90
-10.03
-11.18
-12.61
-14.44
-16.48
-18.24
-19.06
-18.36
-15.91
-11.95
-7.09
-2.12
2.27
5.71
8.15
9.78
10.87
11.49
11.59
11.07
9.93
8.45
7.11
6.40
6.64
7.72
9.20
10.53
11.24
11.22
10.64
9.82
9.01
8.17
7.07
5.44
3.14
0.35
-2.59
-5.30
-7.54
-9.40
-11.14
-13.00
-14.97
-16.67
-17.45
-16.74
-14.30
-10.48
-6.09
-2.04
0.97
2.69
3.19
2.93
2.46
2.08
1.84
1.54
1.12
0.68
0.45
0.56
1.19
2.39
4.11
6.15
8.24
10.26
12.12
13.67
14.41
14.18
13.15
11.81
10.59
9.80
9.95
11.11
12.60
12.31
8.67
1.11
-9.54
-21.31
-31.37
-35.73
-31.64
-19.16
-3.08
11.48
20.62
23.29
20.75
15.92
13.71
17.46
27.51
38.87
48.05
54.16
59.24
65.96
76.67
95.07
123.58
162.50
206.56
252.17
296.94
339.64
378.01
394.43
375.81
319.36
255.05
196.36
148.43
106.29
68.96
35.86
6.38
-17.75
-35.13
-45.83
-55.06
-66.05
-80.03
-96.13
-113.40
-130.68
-144.79
-152.88
-153.82
-151.53
-149.56
-150.84
-156.77
-168.19
-184.70
-203.30
-220.28
-232.65
-240.86
-245.88
-249.04
-251.13
-252.69
-253.35
-251.45
-245.31
-234.25
-219.81
-203.59
-186.63
-168.82
-149.43
-127.76
-103.70
-78.30
-53.57
-31.94
-14.69
-1.67
8.45
17.13
25.24
32.78
39.14
43.69
46.28
47.25
47.20
46.54
45.25
43.02
39.52
34.67
28.86
22.75
17.08
12.45
9.18
7.45
7.26
8.53
11.05
14.46
18.40
22.67
27.35
32.83
39.44
47.32
56.15
65.28
74.04
81.91
88.65
94.14
98.07
99.94
99.23
95.72
89.83
82.67
75.60
69.78
65.70
63.11
61.24
59.28
56.77
53.73
50.55
47.73
45.56
43.95
42.58
41.06
39.14
36.93
34.69
32.78
31.28
30.04
28.71
27.02
25.00
22.89
20.96
19.22
17.28
14.59
10.88
6.51
2.48
-0.03
-0.32
1.50
4.37
6.98
8.39
8.48
7.91
7.51
7.75
8.42
8.76
7.95
5.63
2.08
-1.87
-5.22
-7.13
-7.08
-4.95
-0.90
4.70
11.25
17.95
23.87
28.23
30.63
31.16
30.30
28.62
26.41
23.54
19.54
13.85
6.18
-3.36
-14.10
-24.79
-33.79
-39.28
-39.74
-34.53
-24.27
-11.13
1.48
9.76
10.65
3.13
-11.18
-28.20
-42.56
-49.52
-46.58
-34.17
-15.26
6.12
26.35
43.17
55.64
63.59
67.01
66.05
61.25
53.93
46.04
39.59
35.85
34.89
35.81
37.31
38.42
38.95
39.46
40.80
43.73
48.49
54.79
61.96
69.16
75.68
81.00
84.88
87.34
88.67
89.59
91.29
95.34
103.41
116.69
135.39
158.37
183.11
206.32
224.69
235.76
238.55
233.65
222.93
208.83
193.57
178.75
165.13
152.85
141.77
131.74
122.67
114.46
106.83
99.29
91.31
82.42
72.50
61.69
50.40
39.08
28.16
17.83
8.02
-1.58
-11.45
-22.06
-33.74
-46.44
-59.80
-73.20
-86.07
-98.17
-109.77
-121.73
-135.21
-151.34
-170.73
-193.31
-218.44
-245.24
-273.01
-301.57
-331.35
-363.27
-398.62
-438.85
-485.16
-537.79
-595.10
-653.00
-705.13
-744.18
-764.01
-761.70
-738.52
-699.37
-650.88
-599.34
-549.08
-502.14
-458.90
-419.04
-382.15
-347.78
-314.99
-282.11
-246.99
-207.66
-163.19
-114.25
-63.04
-12.57
34.46
76.50
113.46
146.17
175.53
201.77
224.25
241.84
253.71
259.73
260.52
256.88
249.18
237.15
220.17
198.09
172.08
144.76
119.62
99.73
86.59
79.61
76.37
73.68
68.61
59.21
44.63
24.94
0.78
-26.40
-54.10
-78.90
-97.12
-106.27
-106.25
-99.55
-90.13
-81.53
-75.30
-70.61
-65.23
-57.19
-45.91
-32.20
-17.29
-1.64
15.22
33.82
53.88
73.82
91.31
104.43
112.60
116.84
118.99
120.73
122.56
124.31
125.75
127.08
128.64
130.66
132.93
134.93
136.22
135.92
133.64
129.44
123.49
115.90
106.75
96.36
85.59
75.57
66.44
58.08
50.27
42.93
36.17
30.25
25.55
22.40
26.09
38.33
56.81
76.39
92.42
103.08
109.00
111.89
113.24
113.98
113.09
109.10
100.64
86.93
68.33
46.35
24.05
4.17
-10.61
-19.42
-22.80
-22.26
-19.53
-15.77
-11.73
-7.86
-4.17
-0.37
2.62
3.38
1.81
-2.79
-10.29
-19.82
-30.08
-39.69
-47.15
-51.89
-54.09
-54.55
-54.36
-54.02
-53.27
-50.82
-47.02
-41.20
-32.96
-22.42
-9.95
4.10
19.83
37.45
56.77
76.60
95.12
110.01
119.34
122.33
119.52
112.77
104.16
95.36
87.05
79.23
71.83
64.79
58.25
52.51
47.88
44.32
41.72
39.84
38.56
38.44
39.52
41.25
42.81
43.97
45.38
48.99
56.77
69.65
87.78
109.21
130.80
149.73
164.64
175.10
181.60
184.06
181.77
175.66
166.85
156.66
146.28
136.32
126.14
115.38
103.70
82.43
49.72
9.47
-31.22
-66.82
-92.45
-111.42
-126.60
-139.40
-150.38
-157.90
-160.93
-159.69
-155.42
-149.19
-142.14
-134.08
-124.70
-114.35
-102.00
-89.26
-79.27
-74.49
-74.64
-77.85
-81.43
-84.31
-87.26
-91.16
-96.53
-102.33
-107.45
-108.72
-104.28
-94.00
-79.88
-64.98
-51.79
-41.81
-35.31
-31.51
-28.76
-26.01
-22.42
-17.72
-11.67
-3.87
5.67
16.34
26.89
36.49
44.39
50.49
55.50
60.72
67.18
75.38
84.81
94.63
104.86
115.89
128.35
142.61
158.45
174.72
190.04
202.91
207.26
198.88
176.61
143.33
104.15
63.91
25.36
-9.46
-41.67
-71.33
-96.50
-114.74
-124.43
-125.61
-116.99
-100.15
-77.81
-53.24
-29.22
-8.08
7.16
12.58
4.37
-19.16
-55.91
-98.77
-137.26
-160.24
-159.23
-131.37
-80.32
-14.94
53.24
112.41
153.16
169.64
160.61
129.32
82.74
29.95
-19.31
-57.20
-80.27
-90.24
-93.30
-96.85
-106.07
-121.70
-140.48
-155.93
-161.41
-152.83
-130.01
-96.67
-58.88
-23.14
5.00
21.07
24.00
15.80
1.41
-12.44
-19.52
-15.90
-0.43
29.30
69.41
112.09
148.47
173.86
191.05
203.59
212.61
216.61
213.30
199.76
175.51
140.95
97.38
47.93
-2.01
-47.19
-83.59
-109.42
-132.98
-155.92
-178.71
-202.82
-231.76
-263.98
-300.62
-341.45
-383.51
-421.60
-447.94
-456.32
-443.50
-410.18
-360.78
-302.76
-243.13
-186.62
-135.37
-88.14
-43.16
0.83
43.77
84.03
118.33
144.21
161.19
171.05
177.60
184.12
192.10
201.07
209.21
214.40
215.84
214.28
211.14
207.61
203.51
197.58
188.51
175.82
160.01
142.49
125.03
109.06
95.25
83.30
72.16
60.67
48.14
34.60
20.84
7.92
-3.32
-12.66
-20.58
-27.86
-35.12
-42.50
-49.60
-55.76
-60.28
-62.71
-62.93
-60.96
-56.87
-50.64
-42.31
-32.15
-20.86
-9.58
0.24
7.26
10.65
10.33
6.94
1.49
-5.02
-11.92
-18.93
-25.93
-32.70
-38.73
-43.29
-45.72
-45.66
-43.21
-38.86
-33.29
-27.14
-20.90
-14.89
-9.41
-4.74
-1.10
1.28
2.39
2.31
1.30
-0.26
-1.93
-3.19
-3.57
-2.60
-0.05
3.94
8.84
13.93
18.37
21.37
22.34
20.91
17.26
11.96
5.96
0.34
-4.08
-7.15
-9.64
-13.17
-19.52
-29.55
-42.77
-56.96
-68.56
-73.44
-68.16
-51.30
-24.11
9.62
45.40
78.58
105.46
124.02
134.04
136.54
132.79
123.77
110.15
94.45
79.47
67.96
62.14
63.43
72.33
88.09
108.72
131.50
156.16
182.21
208.50
233.02
253.72
269.43
279.93
285.91
288.66
292.85
301.61
315.00
330.00
342.37
348.98
348.64
342.11
310.76
246.67
153.48
45.05
-62.89
-159.68
-240.22
-303.05
-348.15
-376.56
-387.40
-382.02
-364.45
-340.36
-316.14
-294.29
-275.55
-259.91
-247.37
-235.55
-222.81
-208.67
-193.77
-179.17
-165.49
-153.36
-143.54
-136.79
-132.05
-128.30
-124.66
-120.68
-115.98
-109.94
-102.29
-93.13
-82.92
-71.62
-59.49
-47.11
-35.26
-24.63
-15.59
-8.32
-2.95
0.39
2.04
2.58
2.83
3.83
6.43
11.14
17.83
25.78
34.03
41.74
48.32
53.47
56.92
58.38
57.54
54.21
48.63
41.47
33.71
26.29
19.60
13.43
7.05
-0.26
-8.66
-17.58
-25.94
-32.67
-37.37
-40.36
-42.47
-44.45
-46.43
-47.99
-48.42
-47.33
-44.94
-42.00
-39.25
-36.89
-34.28
-30.15
-23.13
-12.43
1.67
17.88
34.38
49.54
62.51
73.31
82.47
90.50
97.35
102.56
105.49
105.89
104.12
100.93
97.06
92.85
87.97
81.80
73.89
64.34
53.91
43.69
34.54
26.74
19.79
12.77
4.88
-4.08
-13.57
-22.53
-29.98
-35.35
-38.71
-40.48
-40.93
-40.01
-37.35
-32.63
-25.92
-17.86
-9.62
-2.42
2.85
6.00
7.49
8.05
8.42
8.94
9.53
9.80
9.40
8.37
7.34
7.19
8.60
11.62
15.58
19.37
21.88
22.48
21.20
19.01
16.89
15.31
14.04
12.41
9.92
6.48
2.61
-0.76
-1.74
1.14
8.22
18.70
31.19
44.39
57.54
70.38
82.94
96.54
111.83
128.21
144.04
157.53
167.69
174.55
178.77
181.18
184.03
188.72
195.13
201.81
206.99
209.44
208.84
205.39
187.71
150.18
94.35
28.84
-35.43
-90.41
-132.71
-162.50
-181.90
-193.58
-199.03
-198.90
-193.98
-185.61
-175.35
-164.40
-153.52
-143.20
-132.97
-121.46
-107.71
-91.88
-75.39
-60.45
-49.28
-43.26
-42.53
-45.97
-50.71
-53.91
-54.06
-51.55
-48.30
-46.72
-48.65
-54.74
-64.26
-75.04
-84.36
-89.83
-90.07
-84.90
-75.23
-62.68
-49.12
-36.26
-25.21
-16.54
-10.50
-7.03
-5.72
-5.76
-5.94
-5.08
-2.42
1.96
7.23
12.19
15.93
18.28
19.99
22.32
26.45
33.01
41.72
51.61
61.34
69.70
76.06
80.42
83.35
85.63
87.80
89.88
91.36
91.44
89.40
84.95
78.28
69.82
59.87
48.41
35.26
20.36
4.15
-12.43
-28.21
-42.30
-54.48
-65.15
-74.97
-84.41
-93.46
-101.70
-108.64
-114.01
-117.89
-120.56
-122.25
-122.96
-122.44
-120.44
-116.89
-111.98
-106.13
-99.72
-92.95
-85.81
-78.10
-69.60
-60.24
-50.09
-39.47
-28.78
-18.37
-8.51
0.71
9.23
16.85
23.17
27.63
29.76
29.46
27.17
23.85
20.66
18.59
18.15
19.17
21.07
23.16
25.00
26.57
28.20
30.27
33.03
36.33
39.72
42.74
45.15
47.08
49.03
51.47
54.53
57.68
59.89
60.15
57.98
53.82
48.83
44.28
40.77
37.80
34.06
28.22
19.74
9.31
-1.52
-11.12
-18.57
-23.98
-28.11
-31.75
-35.09
-37.61
-38.50
-37.20
-33.86
-29.47
-25.43
-22.98
-22.64
-24.05
-26.25
-28.16
-29.16
-29.36
-29.31
-29.62
-30.45
-31.43
-31.85
-31.18
-29.45
-27.34
-25.86
-25.77
-27.25
-29.77
-32.37
-34.09
-34.46
-33.62
-32.18
-30.81
-29.75
-28.68
-26.79
-23.27
-17.77
-10.65
-2.90
4.35
10.32
14.86
18.39
21.52
24.67
27.76
30.34
31.88
32.15
31.38
30.08
28.86
28.00
27.38
26.56
25.16
23.05
20.58
18.34
16.87
16.35
16.49
16.75
16.69
16.36
16.31
17.32
19.94
24.15
29.20
34.01
37.69
39.91
41.01
41.66
42.37
43.17
43.48
42.40
39.27
33.88
26.76
18.92
11.56
5.76
2.30
1.65
4.01
9.27
17.03
26.45
36.31
45.15
51.54
54.52
53.85
50.21
44.92
39.51
35.13
32.22
30.38
28.72
26.41
22.98
18.52
13.38
7.88
2.12
-4.05
-10.73
-17.73
-24.53
-30.37
-34.54
-36.67
-36.75
-35.15
-32.45
-29.25
-26.12
-23.40
-21.28
-19.81
-18.96
-18.72
-19.05
-19.80
-20.64
-21.02
-20.36
-18.32
-15.00
-11.04
-7.35
-4.78
-3.79
-4.30
-5.81
-7.71
-9.61
-11.47
-13.49
-15.84
-18.47
-20.99
-22.86
-23.59
-23.03
-21.44
-19.26
-16.95
-14.70
-12.40
-9.72
-6.46
-2.71
1.00
3.97
5.61
5.73
4.65
3.05
1.59
0.65
0.11
-0.43
-1.38
-2.83
-4.48
-5.75
-6.11
-5.32
-3.62
-1.62
-0.00
0.75
0.61
-0.12
-0.95
-1.51
-1.78
-2.04
-2.68
-3.92
-5.61
-7.33
-8.56
-8.99
-8.66
-7.87
-6.93
-5.97
-4.85
-3.26
-1.00
1.88
4.95
7.62
9.30
9.68
8.93
7.57
6.28
5.65
5.87
6.71
7.72
8.46
8.79
8.85
8.98
9.46
10.39
11.66
13.14
14.79
16.71
19.02
21.70
24.51
26.93
28.41
28.55
27.33
25.14
22.59
20.35
18.78
17.80
16.81
14.97
11.52
6.16
-0.85
-8.73
-16.53
-23.63
-29.94
-35.99
-42.60
-50.24
-58.79
-67.58
-75.74
-82.67
-88.27
-92.77
-96.44
-99.36
-101.10
-101.01
-98.60
-93.88
-87.35
-79.73
-71.65
-63.38
-54.84
-45.29
-33.62
-19.01
-1.40
18.10
37.48
54.67
69.43
81.54
91.38
99.44
105.61
109.06
108.59
103.55
94.37
82.25
68.16
52.49
35.02
15.90
-3.26
-19.49
-29.76
-32.24
-27.24
-17.09
-4.98
6.16
14.42
19.09
20.55
18.98
14.70
8.13
0.08
-8.29
-15.64
-20.57
-21.62
-17.44
-7.29
8.22
26.78
45.03
59.46
67.45
67.26
59.00
45.85
32.73
23.18
17.66
14.59
12.10
9.27
6.32
3.52
-0.18
-6.16
-16.28
-31.62
-50.48
-68.53
-79.92
-79.48
-65.30
-38.93
-4.90
32.03
64.83
87.54
96.19
89.68
73.15
51.97
29.79
9.44
-7.78
-21.92
-32.79
-39.35
-39.70
-31.96
-15.90
6.98
33.79
60.72
83.99
101.22
111.41
114.67
111.53
102.19
87.03
66.82
42.57
15.28
-13.93
-43.80
-72.96
-100.09
-124.41
-145.86
-165.38
-184.76
-205.97
-229.92
-255.40
-279.12
-296.73
-304.21
-298.93
-280.24
-249.32
-208.65
-160.89
-107.74
-50.36
9.95
70.68
127.91
176.63
212.00
230.94
233.27
222.60
204.81
186.21
171.84
164.49
164.71
171.34
181.94
189.74
188.00
171.16
137.22
89.02
33.42
-21.04
-66.37
-97.68
-116.64
-127.27
-133.99
-139.94
-145.81
-149.52
-147.70
-137.43
-118.48
-91.97
-61.64
-32.14
-7.22
10.83
20.64
22.88
21.45
21.63
27.68
40.99
59.56
79.02
94.61
105.65
111.65
113.20
110.88
104.83
95.22
83.00
70.27
60.05
55.15
55.20
59.04
63.99
66.95
65.74
59.89
50.55
39.56
28.62
18.47
9.41
1.03
-7.46
-16.87
-27.67
-39.63
-51.79
-62.60
-70.78
-75.48
-76.92
-76.22
-74.52
-72.28
-68.93
-63.32
-54.78
-43.82
-32.10
-21.89
-15.06
-12.17
-12.46
-14.36
-16.50
-18.23
-19.59
-20.63
-21.09
-20.37
-18.08
-14.51
-10.79
-8.25
-7.66
-8.60
-9.64
-9.16
-6.37
-1.71
3.34
7.21
9.03
9.01
8.16
7.59
7.88
8.83
9.52
8.86
6.04
0.99
-5.51
-12.06
-17.16
-19.81
-19.88
-18.14
-15.82
-14.11
-13.77
-14.99
-17.65
-21.50
-26.41
-32.19
-38.41
-44.22
-48.41
-49.85
-48.02
-43.35
-37.19
-31.19
-26.52
-23.20
-19.97
-14.79
-5.79
7.86
25.48
45.26
64.91
82.40
96.31
105.76
110.19
109.32
103.21
92.53
78.58
63.08
47.78
33.95
22.21
12.50
4.29
-3.07
-10.13
-17.13
-23.91
-30.01
-34.82
-37.71
-38.39
-36.84
-33.36
-28.40
-22.40
-15.84
-9.26
-3.30
1.31
3.94
4.42
3.02
0.56
-1.99
-3.82
-4.59
-4.56
-4.36
-4.69
-5.96
-8.18
-11.01
-14.07
-17.11
-20.20
-23.58
-27.34
-31.20
-34.32
-35.61
-34.22
-29.89
-23.29
-15.63
-8.15
-1.61
4.01
9.23
14.51
19.80
24.37
27.24
27.74
25.97
22.84
19.60
17.17
15.85
15.16
14.33
12.74
10.26
7.24
4.26
1.87
0.39
-0.10
0.28
1.34
2.73
4.17
5.46
6.59
7.87
9.72
12.55
16.53
21.50
27.02
32.52
37.46
41.48
44.30
45.82
45.98
44.76
42.15
38.13
32.60
25.49
16.73
6.43
-4.91
-16.31
-26.34
-33.51
-36.76
-35.93
-31.99
-26.63
-21.54
-17.77
-15.27
-13.19
-10.48
-6.59
-1.89
2.56
5.53
6.18
4.32
0.33
-5.15
-11.43
-18.07
-24.71
-31.05
-36.72
-41.16
-43.76
-43.95
-41.44
-36.45
-29.62
-21.80
-13.69
-5.59
2.63
11.22
20.20
28.92
36.26
40.95
42.22
40.18
35.78
30.35
25.06
20.48
16.58
12.99
9.39
5.76
2.30
-0.78
-3.47
-6.10
-9.02
-12.34
-15.69
-18.22
-19.02
-17.56
-14.01
-9.26
-4.60
-1.19
0.39
0.43
-0.14
-0.03
1.79
5.54
10.60
15.57
18.85
19.31
16.70
11.77
5.92
0.52
-3.59
-6.37
-8.41
-10.47
-13.04
-16.16
-19.41
-22.38
-24.87
-26.91
-28.69
-30.20
-31.24
-31.48
-30.63
-28.72
-26.07
-23.12
-20.29
-17.80
-15.66
-13.73
-11.90
-10.22
-8.90
-8.28
-8.72
-10.30
-12.84
-15.90
-19.01
-22.01
-25.05
-28.39
-32.02
-35.36
-37.39
-37.10
-34.03
-28.58
-21.77
-14.64
-7.74
-0.81
6.82
15.64
25.50
35.41
43.99
50.13
53.51
54.72
54.95
55.44
56.94
59.44
62.42
65.22
67.47
69.34
71.37
74.17
78.03
82.66
87.28
90.96
92.98
93.20
92.02
90.14
88.11
85.85
82.54
76.76
67.08
52.76
34.24
13.28
-7.52
-25.57
-39.17
-47.93
-52.60
-54.49
-54.78
-54.25
-53.28
-52.29
-51.72
-51.79
-52.04
-51.18
-47.61
-40.47
-30.48
-20.15
-12.89
-11.51
-16.99
-28.19
-42.52
-57.28
-70.63
-81.95
-91.29
-98.67
-103.61
-105.20
-102.75
-96.20
-86.25
-74.12
-60.96
-47.49
-33.90
-20.07
-5.93
8.15
21.30
32.21
39.67
42.95
42.21
38.43
33.04
27.34
22.06
17.20
12.40
7.42
2.53
-1.43
-3.40
-2.71
0.58
5.61
11.10
15.85
19.20
21.17
22.10
22.36
21.91
20.42
17.47
12.95
7.23
1.05
-4.84
-10.13
-15.00
-20.06
-25.52
-31.13
-36.21
-40.04
-42.34
-43.37
-43.79
-44.35
-45.56
-46.93
-47.58
-46.69
-44.05
-40.18
-35.97
-32.24
-29.41
-27.48
-25.27
-21.31
-14.51
-4.74
7.02
19.15
30.06
38.71
44.84
50.36
58.10
71.00
90.87
117.83
150.56
187.02
225.05
255.17
268.48
259.11
227.54
180.33
126.33
72.92
24.56
-16.66
-50.14
-74.87
-90.16
-96.00
-93.62
-85.51
-74.58
-63.40
-53.74
-46.53
-41.17
-36.52
-31.58
-25.95
-20.07
-14.73
-10.74
-8.68
-8.81
-10.47
-12.43
-13.35
-12.40
-9.76
-6.46
-3.98
-3.66
-6.19
-11.03
-16.78
-21.75
-24.42
-24.67
-23.05
-20.55
-18.38
-17.37
-17.70
-18.91
-20.14
-20.64
-20.16
-18.96
-17.72
-17.08
-17.21
-17.79
-18.21
-17.95
-16.96
-15.65
-14.66
-14.43
-14.99
-15.87
-16.43
-16.22
-15.21
-13.62
-11.86
-10.04
-8.05
-5.67
-2.67
0.80
4.26
7.04
8.54
8.53
7.33
5.63
3.90
2.81
2.71
3.51
4.66
5.58
5.94
5.88
5.94
6.60
8.27
10.96
14.36
18.01
21.52
24.69
27.53
30.17
32.56
35.01
38.02
42.08
47.34
53.43
59.74
65.50
70.21
73.14
74.19
73.69
71.96
68.92
64.02
56.85
47.04
34.74
19.54
2.04
-16.02
-32.53
-45.90
-55.87
-63.19
-69.80
-77.60
-88.88
-103.99
-120.95
-136.63
-148.08
-153.57
-152.50
-146.25
-129.23
-101.80
-69.93
-41.51
-21.23
-8.77
-3.92
-2.85
-3.26
-4.04
-5.94
-9.38
-11.86
-12.03
-9.79
-6.44
-3.26
-1.41
-0.87
-1.67
-3.06
-3.91
-3.72
-2.60
-1.15
0.52
2.37
4.83
7.73
10.91
14.35
17.67
20.56
22.66
24.03
24.78
25.18
25.22
24.87
24.13
22.91
21.18
19.03
16.83
14.95
13.69
13.04
12.65
12.11
10.98
9.11
6.59
3.76
0.87
-1.92
-4.60
-7.21
-9.73
-12.17
-14.67
-17.55
-21.28
-26.22
-32.38
-39.19
-45.59
-50.32
-52.37
-51.34
-47.63
-42.26
-36.59
-31.73
-28.20
-25.74
-23.50
-20.50
-16.15
-10.54
-4.44
1.17
5.60
8.75
11.12
13.47
16.42
20.13
24.31
28.36
31.80
34.47
36.56
38.46
40.48
42.64
44.61
45.97
46.46
46.22
45.74
45.62
46.20
47.43
48.75
49.42
48.83
46.72
43.25
38.86
34.03
29.11
24.23
19.46
14.93
10.86
7.50
4.93
2.95
1.15
-1.01
-3.89
-7.55
-11.77
-16.17
-20.49
-24.58
-28.42
-32.01
-35.19
-37.66
-39.05
-39.04
-37.52
-34.63
-30.70
-26.19
-21.49
-16.87
-12.48
-8.44
-4.96
-2.46
-1.47
-2.58
-6.05
-11.68
-18.71
-26.06
-32.68
-37.85
-41.38
-43.55
-44.84
-45.66
-46.13
-46.00
-44.85
-42.24
-37.90
-31.97
-24.88
-17.25
-9.65
-2.36
4.55
11.01
16.85
21.72
25.20
27.05
27.38
26.72
25.73
25.06
25.04
25.65
26.80
28.42
30.55
33.35
36.93
41.38
46.57
52.07
57.29
61.86
65.56
68.18
69.50
69.37
67.79
64.86
60.80
55.87
51.01
47.24
45.03
44.01
43.35
42.22
40.18
37.23
33.67
30.86
30.08
31.64
34.75
38.22
41.28
43.77
45.81
47.40
49.51
53.25
59.10
66.72
75.71
86.09
98.16
112.29
119.51
113.71
95.25
70.75
47.80
29.89
16.07
3.38
-10.53
-23.79
-35.17
-42.66
-45.21
-43.91
-41.31
-39.87
-41.15
-45.59
-52.88
-61.37
-69.13
-75.34
-80.54
-85.83
-91.87
-98.57
-105.33
-111.46
-116.06
-118.31
-118.14
-116.14
-113.12
-109.54
-105.52
-101.08
-96.44
-91.82
-87.23
-82.66
-77.98
-72.93
-67.19
-60.72
-53.88
-47.29
-41.48
-36.51
-32.09
-27.78
-23.21
-18.32
-13.15
-7.73
-1.84
4.98
13.30
23.43
35.26
48.10
61.02
73.06
83.63
92.55
99.98
106.18
111.27
115.11
117.42
117.79
115.78
111.02
103.27
92.52
79.18
64.02
48.27
33.35
20.67
11.23
5.48
3.09
3.16
4.45
5.79
6.52
6.70
7.14
9.14
14.02
22.51
34.24
47.58
59.89
68.10
69.77
63.80
50.93
33.41
13.98
-5.16
-23.05
-39.95
-56.58
-73.30
-89.59
-104.33
-116.51
-125.70
-132.22
-136.70
-139.50
-140.35
-138.62
-133.83
-126.28
-117.14
-108.15
-100.84
-96.03
-93.60
-92.78
-92.74
-93.13
-94.16
-96.28
-99.59
-103.25
-105.38
-103.52
-95.34
-79.35
-55.39
-24.53
11.12
48.87
85.80
119.13
146.58
166.63
178.70
183.06
180.56
172.33
159.59
143.55
125.46
106.57
88.03
70.80
55.51
42.53
32.00
23.99
18.46
15.13
13.46
12.52
11.21
8.44
3.62
-3.14
-10.95
-18.57
-24.96
-29.84
-33.84
-38.07
-43.50
-50.33
-57.82
-64.71
-69.86
-72.64
-73.16
-71.98
-69.70
-66.80
-63.58
-60.27
-57.10
-54.18
-51.46
-48.65
-45.38
-41.42
-36.79
-31.82
-26.95
-22.49
-18.45
-14.53
-10.30
-5.44
0.08
6.08
12.30
18.60
25.07
31.84
38.85
45.61
51.27
54.86
55.76
54.05
50.38
45.77
41.08
36.80
33.02
29.60
26.46
23.66
21.33
19.45
17.70
15.52
12.29
7.47
0.81
-7.68
-17.73
-28.83
-40.39
-51.80
-62.66
-72.87
-82.57
-91.76
-99.96
-106.07
-108.61
-106.37
-98.99
-87.36
-73.22
-58.46
-44.33
-31.07
-18.21
-5.16
8.22
21.30
33.15
43.07
51.07
57.97
64.90
72.65
81.24
89.67
96.42
100.04
99.79
95.83
89.09
80.79
71.97
63.20
54.70
46.48
38.59
31.11
24.14
17.68
11.76
6.44
1.92
-1.57
-3.97
-5.46
-6.46
-7.34
-8.02
-7.93
-6.13
-1.76
5.55
15.56
27.55
40.51
53.34
64.71
73.36
78.33
79.51
77.90
75.25
73.23
72.43
71.92
69.75
64.09
54.42
42.00
29.15
18.07
9.67
3.31
-2.56
-9.39
-17.81
-27.42
-37.32
-46.69
-55.24
-63.29
-71.40
-79.79
-88.18
-95.80
-101.73
-105.33
-106.50
-105.84
-104.22
-102.31
-99.83
-95.80
-89.02
-78.73
-64.95
-48.68
-31.55
-15.09
-0.27
13.41
27.02
41.40
56.58
71.77
85.79
97.54
106.54
112.96
118.27
123.66
129.29
134.05
136.54
135.88
132.09
126.15
119.33
113.78
110.84
110.51
111.56
112.62
112.72
111.34
108.25
96.39
72.80
39.99
4.88
-26.11
-49.78
-65.89
-77.60
-87.42
-97.09
-106.77
-116.60
-125.59
-133.59
-140.35
-145.38
-148.29
-148.77
-147.04
-142.79
-136.00
-127.17
-117.38
-107.58
-98.37
-90.08
-82.79
-76.27
-69.77
-62.79
-55.55
-49.02
-44.20
-41.71
-41.66
-43.38
-45.23
-45.07
-41.18
-33.10
-21.57
-7.92
6.28
19.61
30.99
40.43
48.74
57.01
65.91
75.86
86.93
99.00
111.74
120.96
123.21
117.64
106.86
94.21
81.56
69.06
56.37
43.80
32.49
24.20
19.92
19.92
21.41
21.36
17.72
9.85
-1.60
-15.42
-29.89
-43.46
-54.13
-60.31
-61.46
-58.43
-53.19
-48.08
-44.95
-44.24
-45.65
-47.30
-47.78
-46.13
-42.04
-35.84
-28.12
-19.62
-11.13
-3.40
3.06
7.33
8.88
7.77
4.68
0.89
-2.20
-3.59
-3.11
-1.13
1.53
4.20
6.64
8.93
11.63
15.47
20.75
27.25
34.54
41.95
49.04
55.67
59.62
59.69
57.10
54.40
52.88
51.53
47.75
40.17
29.76
20.44
14.55
13.15
15.20
17.88
18.23
14.13
5.92
-4.22
-14.26
-23.06
-30.61
-37.96
-46.63
-57.62
-71.27
-85.83
-97.96
-104.23
-102.31
-91.15
-71.07
-44.13
-10.67
23.53
50.69
66.25
72.74
75.44
78.71
85.42
95.75
108.85
122.18
133.44
141.32
144.68
142.75
135.81
125.01
111.36
95.08
75.10
50.44
20.70
-15.07
-57.26
-104.35
-152.18
-195.03
-227.03
-243.99
-243.90
-227.41
-199.32
-166.42
-135.20
-110.22
-94.13
-87.76
-90.39
-99.22
-101.70
-89.13
-60.91
-24.50
11.04
39.95
60.54
73.23
79.47
80.69
76.77
68.14
56.12
43.84
34.20
28.37
25.29
23.03
20.00
14.66
6.78
-2.68
-12.42
-22.12
-30.69
-39.04
-48.18
-58.39
-69.84
-82.06
-94.10
-104.63
-112.33
-116.01
-114.62
-106.84
-91.59
-69.00
-40.67
-9.40
21.59
49.53
72.92
91.58
106.60
119.34
130.33
139.00
144.11
144.57
140.34
132.57
123.08
113.68
105.36
98.08
91.14
83.81
75.86
67.67
59.78
52.31
44.84
36.56
26.74
15.22
2.63
-9.81
-20.79
-29.41
-35.64
-40.18
-44.12
-48.46
-53.67
-59.48
-64.99
-69.07
-70.84
-70.07
-67.17
-63.14
-59.11
-56.03
-54.47
-54.43
-55.51
-56.96
-57.98
-57.74
-55.48
-50.71
-43.41
-34.01
-23.06
-10.90
2.55
17.28
33.22
49.88
66.18
80.50
91.27
97.78
100.33
99.66
95.64
87.53
74.23
55.25
31.01
3.12
-25.53
-51.57
-71.98
-85.66
-92.41
-92.94
-88.29
-80.32
-71.13
-62.06
-53.19
-43.58
-32.94
-20.75
-6.54
10.73
31.90
54.89
75.64
89.50
100.02
108.52
116.04
120.30
121.88
121.96
121.25
119.84
117.09
112.05
102.82
88.52
69.29
46.66
22.28
-2.16
-24.76
-43.85
-58.37
-69.17
-77.65
-85.44
-93.29
-101.45
-109.18
-114.70
-115.69
-109.82
-96.22
-75.65
-50.79
-25.43
-3.77
11.27
18.99
20.52
18.37
14.65
10.51
5.72
-0.40
-8.62
-18.63
-29.38
-39.75
-48.43
-54.16
-55.62
-51.96
-42.65
-28.05
-8.64
16.05
43.74
70.69
93.72
111.21
121.99
127.53
126.84
119.23
105.04
85.38
62.01
35.80
8.95
-16.46
-38.64
-56.53
-69.29
-76.65
-79.36
-78.68
-76.11
-72.99
-70.62
-69.51
-69.51
-69.09
-66.03
-58.30
-44.64
-25.11
-1.27
23.90
47.01
65.07
76.53
81.27
80.07
74.27
65.26
54.30
42.18
29.45
16.47
3.69
-8.36
-19.27
-28.77
-36.84
-43.76
-50.01
-56.18
-62.63
-69.39
-76.18
-82.82
-89.29
-95.89
-102.91
-110.24
-117.18
-122.48
-124.75
-122.99
-116.91
-106.99
-94.04
-78.71
-61.16
-41.07
-18.06
7.79
35.58
63.71
90.22
113.36
131.93
145.52
154.33
158.90
159.88
157.83
153.21
146.49
138.04
128.17
117.08
104.90
91.84
78.23
64.63
51.68
39.99
29.95
21.60
14.57
8.14
1.34
-6.70
-16.45
-27.77
-39.94
-51.81
-62.27
-70.49
-76.24
-79.70
-81.27
-81.44
-80.58
-79.06
-77.29
-75.63
-74.47
-74.01
-74.18
-74.63
-74.75
-73.89
-71.60
-67.96
-63.63
-59.65
-56.80
-55.09
-53.50
-50.38
-44.23
-34.45
-21.74
-7.60
6.37
19.27
31.16
42.64
54.25
65.91
76.80
85.76
91.87
94.91
95.39
94.21
92.21
89.87
87.18
84.01
80.38
76.63
73.28
70.63
68.55
66.37
63.12
57.97
50.66
41.57
31.53
21.37
11.57
2.30
-6.62
-15.39
-24.00
-32.14
-39.28
-44.99
-49.17
-52.11
-54.21
-55.83
-57.20
-58.37
-59.25
-59.80
-60.11
-60.38
-60.87
-61.24
-60.80
-58.78
-54.69
-48.56
-40.95
-32.70
-24.65
-17.24
-9.90
-1.63
8.43
20.34
33.30
45.96
56.88
65.25
68.89
67.37
62.46
57.77
56.61
60.14
67.22
75.35
81.90
84.60
82.39
74.60
60.93
41.61
17.85
-8.00
-32.99
-54.30
-70.15
-79.25
-81.50
-77.60
-69.11
-58.36
-48.17
-41.64
-41.25
-48.84
-62.50
-78.06
-89.60
-90.98
-77.94
-49.91
-11.09
30.69
63.66
78.81
72.86
49.63
18.28
-10.48
-28.75
-34.68
-30.82
-22.69
-15.61
-12.76
-14.35
-18.29
-21.59
-21.58
-17.16
-9.17
0.92
11.76
22.21
31.27
37.89
40.89
39.39
32.83
21.90
8.30
-5.42
-16.22
-21.81
-21.78
-17.72
-12.38
-8.90
-8.74
-11.97
-16.80
-19.86
-17.80
-9.10
5.74
24.66
44.55
63.20
79.52
89.77
92.13
87.68
78.98
68.15
59.56
52.50
46.52
42.06
39.79
38.88
38.71
37.56
33.48
25.54
14.36
2.46
-6.88
-11.10
-8.34
1.14
12.89
20.35
18.60
6.93
-11.49
-32.02
-51.32
-66.77
-77.11
-83.39
-88.48
-96.07
-105.30
-114.57
-121.25
-122.96
-118.00
-105.66
-86.59
-61.73
-31.90
3.45
43.57
84.94
119.15
134.92
126.60
98.79
65.86
35.38
10.91
-7.68
-21.71
-32.85
-41.98
-48.52
-51.58
-51.08
-48.44
-44.12
-37.96
-29.34
-17.89
-3.53
13.37
31.49
48.62
61.49
68.27
68.52
62.99
53.21
41.38
30.11
21.03
14.97
9.87
2.49
-9.49
-25.36
-41.57
-53.47
-57.41
-54.70
-47.63
-39.84
-34.04
-31.15
-30.49
-30.57
-30.07
-28.11
-23.71
-18.14
-13.82
-12.67
-15.93
-23.62
-34.22
-44.98
-52.08
-52.39
-46.24
-36.18
-25.22
-16.36
-11.31
-10.13
-11.19
-11.00
-5.63
6.33
25.30
51.44
83.27
117.40
149.02
168.06
165.72
150.34
130.50
109.45
91.75
79.71
72.30
65.54
54.70
37.85
16.97
-4.61
-22.08
-30.94
-30.29
-22.81
-13.24
-5.95
-2.62
-2.55
-5.43
-10.96
-18.81
-29.43
-43.25
-59.90
-77.79
-94.12
-105.81
-111.47
-110.86
-104.46
-93.89
-81.36
-69.30
-59.75
-53.58
-50.44
-49.21
-48.36
-46.47
-43.12
-38.39
-33.09
-28.41
-25.41
-24.70
-26.60
-31.37
-39.28
-50.55
-63.68
-76.59
-87.29
-94.36
-96.88
-94.17
-85.98
-72.78
-55.82
-34.99
-10.71
15.67
41.93
66.09
87.37
106.05
122.87
138.45
155.29
175.00
197.35
220.29
241.85
261.60
280.70
300.60
306.64
288.52
245.70
188.31
128.56
74.28
28.67
-7.60
-35.52
-56.85
-70.78
-77.67
-78.06
-73.83
-67.29
-60.50
-54.62
-50.60
-49.11
-48.81
-48.06
-45.65
-41.91
-38.09
-36.64
-37.89
-41.60
-46.64
-51.24
-54.41
-56.38
-58.62
-62.50
-68.37
-74.24
-77.51
-75.79
-67.73
-54.09
-37.88
-23.69
-13.47
-9.88
-12.99
-20.36
-27.65
-31.17
-29.60
-24.11
-17.21
-11.15
-8.87
-9.12
-10.81
-13.19
-16.09
-19.40
-22.82
-26.02
-29.07
-33.10
-37.56
-43.49
-51.65
-61.78
-72.50
-82.02
-88.92
-92.63
-93.41
-90.83
-84.49
-73.82
-58.74
-40.24
-20.39
-1.85
13.02
22.82
28.46
31.61
34.11
36.85
39.64
41.81
42.79
42.51
41.39
41.30
43.98
50.26
59.54
70.13
80.09
87.81
92.28
93.21
92.47
92.75
96.56
105.36
119.49
138.52
161.24
185.52
200.51
196.84
171.11
128.71
79.45
31.70
-9.86
-43.64
-69.85
-89.45
-102.24
-107.88
-106.77
-100.62
-91.92
-83.03
-75.63
-70.77
-68.94
-69.13
-69.82
-69.53
-67.35
-62.90
-55.94
-46.62
-35.76
-24.83
-15.01
-7.11
-1.58
1.89
3.88
5.08
5.96
6.34
5.49
2.78
-2.11
-8.95
-16.81
-24.05
-28.68
-28.78
-23.50
-13.48
-0.87
10.95
18.56
18.57
10.34
-3.67
-18.75
-30.43
-35.67
-33.57
-25.36
-13.69
-1.45
9.30
17.65
23.96
28.86
32.84
36.11
38.70
40.70
42.40
44.26
44.36
41.62
35.78
27.38
17.15
5.63
-6.53
-18.31
-28.24
-34.84
-37.40
-36.63
-34.47
-33.23
-34.60
-38.94
-45.13
-51.79
-56.68
-58.16
-55.75
-49.84
-41.50
-32.34
-24.10
-18.16
-15.16
-14.70
-15.83
-17.65
-19.21
-19.86
-19.61
-18.96
-18.65
-19.36
-21.09
-23.19
-24.55
-23.41
-17.95
-7.41
7.43
24.94
43.57
62.59
81.93
97.25
104.24
101.15
89.44
72.83
55.16
39.29
26.77
17.53
12.04
8.59
6.80
6.86
8.95
12.72
17.51
22.55
27.21
28.93
27.19
23.98
22.00
23.48
29.41
39.45
52.18
65.60
77.63
82.69
78.35
66.39
51.82
39.20
30.14
23.72
18.01
11.45
4.03
-2.27
-5.46
-4.72
-0.93
3.83
7.26
7.79
4.83
-1.13
-8.13
-14.41
-18.57
-20.13
-19.65
-18.22
-16.88
-16.62
-17.66
-19.30
-21.23
-22.60
-22.66
-21.53
-20.52
-19.16
-18.15
-18.10
-19.23
-22.58
-27.97
-34.34
-41.17
-48.85
-57.90
-69.07
-82.73
-99.01
-119.16
-141.78
-162.70
-176.45
-177.78
-162.87
-131.63
-88.37
-33.70
18.24
50.76
57.59
45.58
26.36
8.77
-4.23
-13.65
-21.40
-29.36
-35.85
-37.76
-33.93
-27.43
-21.09
-18.03
-19.55
-24.69
-31.67
-36.23
-33.96
-22.74
-3.53
20.39
44.58
65.28
80.74
88.06
87.58
81.59
72.64
63.04
54.76
49.11
46.90
48.29
52.20
57.34
61.82
63.40
60.93
54.50
44.88
33.36
21.49
10.66
2.34
-2.87
-5.27
-4.74
-1.00
6.04
16.16
28.98
44.07
60.87
78.60
90.44
91.57
82.63
69.18
56.79
47.49
40.05
32.49
23.64
13.82
5.30
0.36
-0.48
1.15
2.47
1.17
-3.58
-10.98
-18.33
-23.38
-24.55
-22.15
-18.36
-15.75
-15.88
-18.60
-22.41
-25.38
-25.72
-22.91
-18.15
-13.53
-10.76
-10.34
-11.45
-12.77
-13.07
-11.79
-9.74
-8.64
-10.18
-15.21
-23.64
-34.97
-49.03
-65.84
-82.25
-93.71
-95.72
-86.00
-65.61
-38.75
-11.73
8.86
18.74
17.84
9.76
0.07
-6.01
-5.77
-0.26
7.90
15.54
20.52
22.36
21.42
18.53
14.74
11.25
9.39
10.59
15.80
25.44
39.10
54.36
65.87
68.46
59.99
42.22
19.40
-4.34
-25.73
-42.46
-53.22
-57.75
-56.66
-51.63
-46.23
-42.30
-40.94
-41.77
-43.12
-42.94
-39.78
-33.28
-24.30
-14.70
-6.52
-1.25
1.14
1.82
2.78
6.25
14.39
29.03
51.19
79.12
107.89
130.48
140.61
135.11
114.48
82.51
45.03
8.25
-22.91
-45.80
-59.85
-65.91
-65.25
-59.20
-49.04
-36.14
-22.26
-9.29
1.37
9.36
15.40
20.68
26.03
31.50
36.51
40.17
41.64
40.75
38.12
34.83
32.01
30.34
29.86
30.14
30.16
29.15
26.97
24.14
21.40
19.51
18.80
19.08
19.92
20.36
19.91
18.62
16.85
14.94
12.98
10.64
6.98
3.45
-0.03
-3.67
-7.44
-11.07
-14.32
-16.82
-18.27
-18.72
-18.58
-18.82
-20.05
-22.26
-25.02
-28.24
-31.39
-33.69
-34.63
-34.35
-33.70
-33.42
-33.74
-34.54
-36.61
-39.84
-43.06
-45.15
-46.12
-47.05
-49.30
-53.64
-60.30
-70.82
-84.56
-98.54
-109.20
-114.61
-114.86
-111.93
-108.78
-109.46
-120.15
-142.98
-174.01
-204.95
-226.93
-232.99
-220.21
-189.81
-131.63
-53.34
24.41
83.96
121.36
141.19
151.06
153.52
148.64
136.50
117.17
94.84
75.56
65.83
68.10
80.62
97.10
115.65
132.64
144.45
150.46
153.00
155.36
159.21
164.34
169.11
172.01
170.96
163.01
146.32
120.72
87.74
50.32
13.33
-16.90
-34.15
-35.93
-25.44
-10.15
1.47
3.90
-3.02
-14.12
-21.81
-20.01
-7.73
10.91
29.26
41.60
45.50
41.93
33.94
24.72
16.20
8.59
1.24
-6.29
-13.78
-20.40
-25.43
-28.95
-32.19
-37.34
-46.54
-60.60
-78.16
-95.90
-109.70
-116.47
-115.59
-109.37
-102.06
-97.92
-99.37
-106.05
-115.25
-123.31
-127.23
-125.63
-119.01
-109.15
-98.21
-88.10
-80.08
-74.79
-72.41
-72.78
-75.57
-80.25
-86.14
-92.50
-98.62
-104.03
-108.47
-111.79
-113.72
-113.53
-109.92
-101.32
-86.66
-66.13
-41.66
-16.55
5.45
21.45
30.29
32.74
30.83
26.86
22.55
18.80
15.87
13.88
13.05
13.75
16.20
20.22
25.17
30.17
34.25
36.83
37.80
37.57
36.86
36.38
36.44
36.84
36.90
35.86
33.28
29.28
24.42
19.36
14.42
9.45
3.96
-2.44
-9.64
-16.92
-23.04
-26.65
-26.67
-22.54
-14.37
-2.79
11.13
26.08
40.76
54.00
64.83
72.61
76.93
77.64
74.93
69.28
61.52
52.72
43.89
35.78
28.64
22.31
16.46
10.92
5.84
1.65
-1.19
-2.46
-2.37
-1.47
-0.45
0.14
0.12
-0.43
-1.27
-2.15
-2.92
-3.48
-3.70
-3.46
-2.64
-1.23
0.63
2.82
5.24
8.02
11.40
15.64
20.84
26.83
33.36
40.02
46.20
51.33
55.05
57.29
58.32
58.53
58.25
57.90
57.61
57.24
56.51
55.26
53.56
51.78
50.28
49.28
49.24
50.31
52.16
54.18
55.86
56.75
56.88
56.17
54.35
52.58
51.66
51.48
51.12
49.80
46.90
43.08
38.91
34.76
33.89
38.70
49.16
62.97
77.53
90.24
100.93
109.61
116.10
125.03
139.85
160.11
181.85
200.90
213.51
220.55
223.71
224.63
230.93
247.99
275.21
306.92
337.01
360.36
378.31
393.22
368.80
287.81
162.45
26.44
-91.61
-168.71
-219.15
-254.13
-279.92
-299.80
-311.22
-310.59
-299.11
-282.45
-266.36
-255.59
-249.69
-248.12
-250.54
-251.28
-245.48
-232.46
-215.64
-199.25
-187.33
-179.28
-173.34
-167.89
-158.74
-143.36
-123.07
-102.28
-85.39
-75.51
-72.12
-72.27
-73.25
-71.23
-63.71
-50.45
-33.24
-14.49
3.51
20.14
35.17
48.22
59.69
69.77
78.20
84.11
86.76
86.00
82.61
77.65
70.37
60.50
47.23
31.49
15.53
0.71
-12.84
-25.35
-35.76
-43.82
-49.49
-53.11
-55.08
-56.09
-57.07
-58.64
-60.96
-63.69
-66.43
-68.46
-69.24
-68.43
-66.34
-63.56
-60.55
-57.33
-53.56
-48.98
-43.33
-36.65
-29.28
-21.82
-14.92
-8.98
-4.04
0.06
3.42
6.21
8.49
10.39
11.86
12.81
13.08
12.59
11.37
9.65
7.85
6.54
6.11
6.62
7.78
9.06
10.01
10.43
10.30
9.74
8.86
7.73
6.45
5.13
3.90
2.87
1.95
0.93
-0.37
-1.92
-3.27
-3.81
-3.05
-1.01
1.58
3.66
4.21
2.83
-0.13
-3.62
-6.50
-8.07
-8.37
-8.07
-8.00
-8.71
-10.27
-12.32
-14.01
-14.58
-13.66
-11.34
-7.90
-3.53
1.66
7.45
13.25
18.73
23.37
26.61
27.93
27.19
24.85
21.67
18.22
14.49
10.89
7.60
4.55
1.47
-1.68
-4.29
-5.35
-4.07
-0.32
6.64
17.39
32.16
50.66
72.19
96.13
121.86
148.49
167.64
172.29
160.29
135.92
106.10
75.75
47.19
21.60
0.48
-14.44
-20.83
-18.02
-8.08
5.37
17.28
23.97
24.01
17.90
7.18
-5.37
-17.15
-26.50
-33.03
-37.41
-40.38
-42.67
-44.34
-45.86
-47.32
-48.83
-50.61
-53.07
-56.53
-60.72
-64.93
-68.29
-70.28
-70.54
-69.15
-66.62
-63.65
-60.92
-58.65
-56.69
-54.69
-52.42
-49.67
-46.53
-43.32
-40.57
-38.80
-38.14
-38.22
-38.18
-37.03
-34.00
-28.90
-22.22
-14.83
-7.62
-1.15
4.49
9.43
13.72
17.14
19.29
19.82
18.72
16.42
13.69
11.32
9.81
9.27
9.54
10.36
11.58
13.20
15.22
17.52
19.76
21.53
22.52
22.67
22.23
21.59
21.07
20.76
20.42
19.65
18.08
15.53
12.14
8.37
4.81
2.00
0.16
-0.84
-1.39
-1.94
-2.71
-3.66
-4.55
-5.13
-5.42
-5.64
-6.08
-6.84
-7.67
-8.12
-7.73
-6.32
-4.16
-1.83
0.10
1.26
1.69
1.72
1.75
2.13
2.96
4.22
5.88
7.92
10.38
13.12
15.88
18.29
19.96
20.79
21.05
21.32
22.26
24.32
27.51
31.42
35.26
38.24
39.76
39.60
37.94
35.21
31.94
28.55
25.16
21.65
17.77
13.31
8.32
3.12
-1.75
-5.83
-8.93
-11.23
-13.14
-15.04
-16.98
-18.70
-19.66
-19.36
-17.56
-14.29
-9.76
-4.18
2.20
8.97
15.30
20.03
21.84
19.81
13.87
4.88
-5.69
-16.38
-26.31
-35.26
-43.52
-51.20
-57.85
-62.29
-62.88
-58.21
-47.80
-32.40
-14.03
4.80
21.78
35.55
46.00
53.93
60.46
66.38
71.73
75.81
77.65
76.45
71.92
64.33
54.36
42.90
30.85
19.14
8.68
0.37
-5.12
-7.60
-7.62
-6.46
-5.83
-7.26
-11.44
-18.03
-25.72
-33.00
-38.78
-42.90
-46.15
-49.77
-54.80
-61.56
-69.51
-77.46
-84.09
-88.36
-89.74
-88.19
-83.98
-77.59
-69.58
-60.71
-51.84
-43.88
-37.57
-33.20
-30.59
-29.06
-27.81
-26.12
-23.56
-19.94
-15.28
-9.63
-3.10
4.15
11.88
19.73
27.25
33.96
39.28
42.69
43.81
42.61
39.45
35.02
30.02
24.90
19.67
14.08
8.01
1.81
-3.68
-7.40
-8.57
-6.93
-2.98
2.47
8.54
14.61
20.42
25.83
30.73
34.95
38.23
40.38
41.31
41.07
39.77
37.44
34.00
29.34
23.45
16.67
9.77
3.82
-0.05
-1.20
0.31
3.70
7.66
10.92
12.59
12.34
10.37
7.21
3.46
-0.38
-4.05
-7.50
-10.66
-13.45
-15.74
-17.37
-18.16
-18.07
-17.37
-16.59
-16.31
-16.55
-16.94
-16.90
-16.00
-14.18
-11.75
-9.11
-6.55
-4.08
-0.94
3.55
9.55
16.47
23.22
28.74
32.34
33.75
33.14
31.59
30.27
30.04
31.18
33.64
37.28
42.16
48.57
53.08
53.34
48.95
41.68
33.86
26.72
20.24
13.97
7.62
1.06
-5.08
-10.39
-14.89
-18.97
-22.88
-26.35
-28.58
-28.78
-26.70
-22.49
-16.83
-10.76
-5.32
-0.90
2.06
3.51
3.47
1.87
-1.11
-5.17
-9.93
-14.90
-19.07
-21.71
-22.58
-22.19
-21.45
-21.18
-21.64
-22.47
-22.98
-22.75
-21.99
-21.47
-21.91
-23.41
-25.50
-26.66
-25.71
-22.32
-17.37
-12.33
-8.16
-4.81
-1.32
3.52
10.36
18.82
27.72
35.10
39.56
40.78
39.61
37.40
35.32
34.13
33.97
34.51
34.47
32.69
28.56
22.55
15.82
9.71
5.43
3.43
3.93
5.02
3.90
-2.24
-14.78
-33.23
-55.43
-78.29
-98.67
-109.75
-108.00
-95.15
-77.62
-61.38
-49.10
-40.56
-34.25
-28.73
-23.07
-18.97
-16.03
-13.75
-11.31
-8.31
-5.18
-2.89
-2.03
-1.90
-0.94
4.82
18.83
42.91
75.06
109.41
138.19
154.76
156.23
144.04
123.35
100.00
78.43
60.00
44.03
29.93
18.71
13.06
15.94
29.00
51.17
79.07
107.61
132.68
152.68
168.42
181.69
193.74
204.77
213.84
219.69
219.73
213.00
200.92
185.87
169.34
151.44
131.73
110.10
87.29
60.98
30.76
-0.91
-30.79
-57.59
-82.44
-107.43
-134.25
-163.77
-201.96
-251.01
-307.05
-362.66
-411.75
-451.52
-481.72
-503.72
-519.96
-540.89
-572.29
-611.17
-648.54
-675.76
-687.39
-680.94
-656.15
-567.08
-405.12
-204.50
-16.41
128.36
226.17
287.11
323.41
344.53
356.40
354.90
339.14
315.22
292.97
278.89
273.53
273.12
272.25
266.41
247.70
214.73
174.17
136.56
109.58
95.28
91.32
93.92
99.49
101.65
97.22
87.10
74.64
62.59
52.12
43.57
36.94
31.93
26.14
18.20
8.55
-0.92
-8.66
-14.27
-18.55
-23.04
-29.28
-38.97
-52.51
-68.38
-82.99
-92.69
-95.48
-92.17
-85.97
-80.41
-78.90
-80.16
-81.64
-80.78
-76.09
-67.40
-54.87
-39.53
-22.20
-3.21
17.50
39.47
61.62
82.26
99.56
111.94
118.41
118.89
113.91
104.59
91.96
77.09
61.04
44.78
29.22
15.14
3.25
-5.91
-12.05
-15.36
-16.19
-14.79
-11.21
-5.26
3.12
13.79
26.04
38.73
50.31
59.18
63.89
63.48
57.54
46.44
31.21
13.37
-5.42
-23.73
-40.37
-54.38
-64.99
-71.54
-73.60
-71.09
-64.24
-53.59
-39.68
-23.04
-4.23
15.99
36.58
56.30
73.98
88.70
99.90
107.21
110.16
108.17
100.66
87.53
69.48
48.06
25.37
3.44
-16.34
-33.42
-47.97
-60.49
-71.43
-80.95
-88.95
-95.15
-99.33
-101.38
-101.31
-99.25
-95.37
-89.86
-82.89
-74.62
-65.26
-55.03
-44.24
-33.20
-22.20
-11.50
-1.43
7.61
14.93
19.73
21.36
19.53
14.58
7.32
-1.19
-10.04
-18.75
-27.21
-35.40
-43.13
-49.88
-54.93
-57.69
-57.88
-55.61
-51.19
-44.94
-37.09
-27.86
-17.69
-7.24
2.71
11.45
18.68
24.59
29.74
34.99
40.98
47.85
55.21
62.14
67.65
71.13
72.73
73.43
74.81
78.36
84.76
93.53
103.19
111.89
118.24
121.58
122.02
120.05
115.90
109.24
99.60
86.99
72.25
57.05
42.95
30.78
21.10
13.77
8.36
4.51
2.12
0.97
0.57
-0.40
-3.64
-9.23
-16.60
-24.95
-33.66
-42.04
-49.63
-55.27
-58.33
-58.79
-55.07
-46.38
-33.45
-18.12
-2.08
13.63
30.02
47.98
67.80
91.83
121.25
155.08
190.26
223.07
249.66
268.46
278.28
262.49
213.84
138.78
54.79
-21.06
-75.36
-113.15
-140.09
-160.17
-175.57
-184.06
-183.82
-175.74
-163.52
-151.52
-143.10
-136.38
-128.64
-117.70
-101.00
-78.35
-52.09
-25.96
-3.32
13.40
23.60
26.37
20.64
7.34
-11.45
-32.79
-53.46
-70.54
-82.14
-87.40
-87.16
-83.19
-76.60
-68.53
-60.54
-54.82
-54.09
-58.62
-66.56
-73.76
-74.61
-63.97
-40.29
-6.63
30.64
62.75
84.61
94.36
92.65
81.69
64.54
43.72
21.75
1.52
-14.10
-22.36
-22.39
-15.71
-4.75
9.33
25.06
40.66
54.11
63.34
67.03
64.79
57.45
44.52
29.37
15.29
4.07
-4.27
-10.74
-16.56
-22.53
-28.98
-35.61
-41.45
-46.31
-50.50
-54.36
-57.99
-61.70
-64.10
-63.79
-59.85
-51.96
-41.27
-29.72
-19.38
-11.73
-7.20
-5.10
-4.11
-2.82
-0.04
4.47
10.08
15.73
20.21
22.57
21.44
15.98
6.04
-7.65
-23.87
-40.87
-56.77
-69.74
-78.18
-80.86
-77.06
-66.68
-50.23
-28.90
-4.26
21.97
48.03
71.92
91.30
103.64
106.84
100.27
85.27
65.23
44.69
27.91
17.36
13.14
13.28
15.20
16.66
16.38
14.27
11.13
8.17
6.55
6.86
9.06
12.92
17.91
23.23
27.96
31.20
32.16
30.09
24.36
14.95
3.38
-7.55
-14.55
-15.09
-8.40
4.11
19.59
35.03
45.75
49.28
46.19
39.19
30.25
19.16
5.08
-11.45
-27.97
-41.24
-48.62
-49.77
-46.44
-41.34
-36.53
-32.58
-29.18
-25.93
-22.91
-19.97
-16.74
-12.45
-6.39
1.53
10.55
19.21
25.79
29.05
29.60
28.22
26.37
25.16
24.95
25.37
25.69
25.04
22.22
16.81
8.26
-3.48
-17.53
-31.70
-42.87
-48.18
-46.36
-38.64
-28.11
-18.56
-12.54
-10.53
-11.16
-12.46
-13.26
-13.94
-15.73
-19.49
-24.64
-28.78
-28.85
-23.10
-12.57
-1.23
5.69
4.27
-5.93
-21.52
-37.01
-47.30
-49.95
-46.06
-39.00
-32.36
-28.12
-25.89
-23.61
-19.01
-10.68
0.79
13.52
25.55
35.72
44.00
51.02
57.32
62.55
65.41
65.00
60.87
54.71
49.68
48.68
52.34
57.88
59.91
52.64
34.03
6.54
-23.22
-47.62
-61.48
-64.19
-59.32
-52.07
-46.61
-43.42
-40.94
-36.94
-30.43
-22.32
-14.80
-9.76
-7.67
-7.32
-6.58
-4.10
0.22
5.31
9.53
11.63
11.30
9.17
6.47
4.36
3.40
3.66
4.82
6.43
8.07
9.43
10.42
11.19
11.93
12.67
13.39
14.19
15.18
16.37
17.57
18.44
18.69
17.93
15.59
11.46
5.75
-0.99
-8.14
-15.33
-22.33
-28.91
-35.32
-42.20
-50.14
-59.42
-69.98
-80.32
-88.86
-93.80
-93.35
-84.29
-66.10
-41.36
-14.53
10.15
29.81
42.69
47.91
47.64
42.77
34.65
25.77
19.08
16.97
20.44
29.03
40.16
51.69
61.51
68.16
71.16
71.17
69.74
68.57
68.64
69.66
70.19
67.80
60.41
47.44
30.42
12.37
-3.45
-15.08
-22.35
-26.24
-28.21
-29.01
-28.52
-26.11
-21.30
-14.62
-8.15
-4.87
-7.00
-14.67
-25.68
-37.23
-47.11
-54.37
-59.30
-62.88
-65.95
-68.80
-71.90
-74.41
-75.56
-74.94
-72.38
-67.79
-61.23
-52.85
-42.87
-31.70
-19.79
-7.73
3.68
13.92
23.17
32.24
42.20
54.01
67.99
83.64
99.48
113.55
124.15
130.15
131.17
127.38
119.59
108.86
96.16
81.95
66.37
49.65
32.40
15.49
-0.41
-14.68
-27.14
-38.14
-48.40
-58.55
-68.59
-77.94
-85.88
-92.12
-96.41
-98.53
-98.27
-95.33
-89.46
-80.48
-68.55
-53.04
-35.84
-19.78
-6.93
2.52
10.30
17.39
23.80
29.21
33.61
35.99
36.76
36.93
37.16
37.12
35.53
31.15
23.63
13.85
3.37
-5.66
-11.66
-14.15
-13.73
-11.58
-8.70
-5.54
-2.20
1.18
4.64
8.05
11.28
14.39
17.54
21.15
25.56
30.90
36.93
43.26
49.43
54.98
59.49
62.56
63.75
62.70
59.11
52.79
43.78
32.33
18.84
4.00
-11.52
-27.17
-42.57
-57.33
-70.81
-81.94
-89.42
-91.97
-88.82
-80.33
-68.21
-55.11
-43.75
-36.09
-32.88
-33.57
-36.40
-38.74
-37.93
-32.34
-21.70
-6.88
10.59
29.03
46.23
58.66
63.48
60.18
50.45
36.86
22.19
9.04
-0.72
-6.51
-8.89
-8.77
-6.75
-2.87
2.95
11.08
21.12
31.60
40.49
46.02
47.59
45.69
41.37
35.59
28.96
21.63
13.48
4.28
-5.63
-15.17
-23.09
-28.63
-31.74
-32.99
-33.17
-33.08
-33.08
-32.89
-31.87
-29.36
-25.14
-19.49
-12.91
-5.89
1.27
8.38
15.34
21.64
26.34
28.09
25.65
18.31
7.00
-5.76
-17.30
-25.88
-31.07
-33.04
-32.34
-29.69
-25.95
-22.11
-19.08
-18.40
-19.50
-21.46
-23.12
-23.87
-23.60
-22.82
-22.34
-22.94
-25.04
-28.44
-32.73
-36.44
-38.74
-39.11
-37.27
-33.03
-26.50
-18.26
-9.19
-0.48
6.94
12.53
16.54
19.60
22.25
24.44
25.69
25.84
25.32
25.26
26.62
30.04
35.24
41.27
46.85
50.85
52.76
52.48
49.95
44.75
36.83
26.72
15.66
4.97
-4.32
-11.58
-16.63
-19.61
-21.15
-21.36
-19.99
-16.70
-11.50
-5.89
-1.85
-0.39
0.76
2.25
3.86
3.89
1.59
-2.88
-8.16
-11.81
-11.19
-5.00
5.57
17.77
28.36
35.12
37.43
36.26
33.65
31.88
31.93
32.89
33.17
31.51
27.84
23.21
19.20
15.35
12.08
10.03
9.49
10.30
12.02
14.13
15.98
16.58
15.31
12.63
9.80
8.19
8.82
11.92
16.72
22.20
27.00
30.75
34.30
38.54
43.42
48.01
51.02
51.42
49.09
43.62
35.82
27.44
20.09
14.32
9.45
5.54
2.45
-0.07
-4.19
-11.23
-21.02
-32.72
-45.85
-60.57
-77.18
-96.05
-117.07
-141.67
-169.18
-196.27
-218.57
-232.87
-238.08
-235.19
-226.82
-202.27
-161.46
-113.52
-69.21
-33.02
-3.38
22.77
46.91
68.16
84.65
93.21
92.69
84.79
72.89
60.24
49.41
42.38
40.66
45.19
54.68
67.57
82.21
96.38
107.35
112.93
112.44
106.85
98.18
84.06
65.40
45.55
27.90
14.06
3.99
-3.23
-8.84
-13.94
-19.75
-26.80
-34.29
-40.89
-45.28
-46.48
-43.94
-37.74
-28.58
-16.96
-5.23
3.55
7.15
5.49
0.72
-4.03
-6.14
-4.66
-0.71
4.09
8.26
11.09
12.88
14.73
17.79
22.62
29.05
35.30
39.83
41.38
39.41
34.24
26.95
18.67
10.25
2.02
-6.23
-13.29
-17.81
-19.33
-18.75
-17.63
-17.41
-18.77
-21.17
-23.18
-22.99
-20.31
-14.94
-7.58
0.73
8.79
15.70
21.00
24.44
25.85
24.83
21.09
14.03
4.09
-7.57
-19.21
-28.99
-35.59
-38.53
-38.37
-35.95
-32.12
-27.40
-22.13
-16.63
-11.26
-6.66
-3.66
-2.88
-3.78
-5.06
-5.06
-2.90
1.30
6.77
11.85
14.56
13.38
