1699278525.00
64.000000
-0.00
-0.00
-0.00
-0.00
-0.00
-0.00
-0.00
-0.00
-0.00
-0.00
0.00
0.01
0.01
-0.00
-0.03
-0.05
-0.05
0.00
0.13
0.36
0.66
1.01
1.37
1.72
2.06
2.40
2.79
3.24
3.80
4.42
5.06
5.66
6.20
6.68
7.15
7.68
8.31
9.14
10.09
11.04
11.88
12.56
13.14
13.76
14.65
15.96
17.91
20.32
22.90
25.38
27.58
29.57
31.68
34.32
37.81
42.54
48.15
54.10
59.83
64.97
69.58
74.14
79.34
85.71
93.76
103.00
112.62
121.73
129.77
136.75
143.30
150.75
157.77
166.64
177.95
191.79
206.97
220.57
228.25
225.36
208.53
176.87
132.76
80.05
23.07
-34.94
-92.44
-149.16
-205.23
-260.37
-313.74
-363.87
-409.83
-450.91
-486.50
-515.74
-537.23
-549.22
-549.96
-538.37
-514.21
-478.67
-433.88
-382.45
-327.02
-269.84
-212.63
-156.66
-102.95
-52.37
-5.90
35.58
71.43
101.35
125.50
144.38
158.69
169.15
176.37
180.75
182.57
182.07
179.51
175.23
169.65
163.18
156.15
148.81
141.30
133.69
126.02
118.33
110.69
103.16
95.80
88.68
81.83
75.25
68.95
62.95
57.25
51.86
46.78
42.03
37.58
33.45
29.61
26.08
22.83
19.86
17.13
14.64
12.39
10.37
8.59
7.06
5.76
4.68
3.77
2.98
2.30
1.69
1.17
0.74
0.42
0.21
0.08
-0.01
-0.13
-0.29
-0.51
-0.76
-0.97
-1.09
-1.09
-1.01
-0.95
-1.02
-1.28
-1.72
-2.24
-2.69
-2.92
-2.88
-2.65
-2.43
-2.46
-2.90
-3.74
-4.78
-5.72
-6.27
-6.33
-6.03
-5.70
-5.75
-6.43
-7.73
-9.36
-10.83
-11.76
-11.97
-11.61
-11.05
-10.69
-10.87
-11.84
-13.74
-16.54
-19.72
-22.15
-22.25
-18.57
-10.57
0.84
13.44
24.56
32.22
35.88
36.48
35.72
35.07
35.16
35.70
35.98
35.40
33.79
31.42
28.67
25.86
23.21
20.88
19.00
17.75
17.29
17.73
18.97
20.70
22.32
23.11
22.41
19.91
15.81
10.44
4.21
-2.78
-10.80
-20.19
-30.81
-41.73
-51.25
-57.48
-59.08
-55.81
-48.64
-39.27
-29.49
-20.67
-13.63
-8.65
-5.75
-4.73
-5.14
-6.30
-7.40
-7.79
-7.11
-5.48
-3.34
-1.31
0.10
0.60
0.17
-0.96
-2.34
-3.47
-3.94
-3.63
-2.79
-1.88
-1.41
-1.61
-2.26
-2.85
-2.69
-1.29
1.39
4.90
8.46
11.32
12.89
12.96
11.64
9.16
5.83
1.92
-2.25
-6.32
-9.82
-12.46
-14.06
-14.76
-14.87
-14.69
-14.41
-13.98
-13.36
-12.40
-11.01
-9.30
-7.54
-6.09
-5.25
-5.21
-5.99
-7.52
-9.59
-11.97
-14.45
-16.81
-18.93
-20.72
-22.19
-23.40
-24.39
-25.14
-25.65
-25.88
-25.90
-25.88
-26.09
-26.88
-28.46
-30.81
-33.47
-35.61
-36.15
-34.08
-28.81
-20.40
-9.63
2.24
13.77
23.75
31.37
36.27
38.53
38.46
36.61
33.61
30.20
27.06
24.81
23.88
24.50
26.68
30.16
34.48
38.96
42.75
44.99
44.91
42.08
36.53
28.84
19.99
11.14
3.31
-2.89
-7.36
-10.33
-12.20
-13.29
-13.77
-13.72
-13.27
-12.66
-12.18
-12.05
-12.40
-13.21
-14.42
-15.98
-17.99
-20.63
-24.12
-28.62
-34.00
-39.82
-45.26
-49.24
-50.67
-48.72
-43.12
-34.27
-23.14
-11.08
0.58
10.76
18.82
24.59
28.24
30.05
30.34
29.38
27.47
25.03
22.60
20.76
19.96
20.39
21.86
23.95
26.09
27.82
28.88
29.18
28.82
27.89
26.46
24.57
22.23
19.52
16.50
13.32
10.08
6.89
3.80
0.87
-1.88
-4.40
-6.63
-8.54
-10.18
-11.71
-13.38
-15.46
-18.06
-20.96
-23.53
-24.88
-24.13
-20.78
-14.92
-7.20
1.36
9.74
17.15
23.07
27.28
29.70
30.41
29.59
27.56
24.78
21.73
18.87
16.58
15.09
14.49
14.76
15.75
17.22
18.85
20.30
21.27
21.55
21.01
19.65
17.61
15.03
12.12
8.96
5.58
1.94
-2.00
-6.15
-10.28
-14.03
-17.04
-19.04
-20.08
-20.48
-20.77
-21.47
-22.81
-24.55
-25.98
-26.15
-24.07
-19.12
-11.22
-0.93
10.65
22.16
32.24
39.88
44.56
46.32
45.59
42.99
39.19
34.74
30.11
25.68
21.73
18.35
15.45
12.80
10.16
7.47
4.86
2.61
0.98
0.07
-0.26
-0.33
-0.46
-0.94
-1.90
-3.35
-5.27
-7.62
-10.38
-13.48
-16.87
-20.42
-24.00
-27.41
-30.52
-33.25
-35.52
-37.39
-38.97
-40.45
-42.07
-44.06
-46.47
-49.08
-51.27
-52.05
-50.36
-45.38
-36.94
-25.70
-13.00
-0.49
10.45
18.98
25.02
28.92
31.23
32.39
32.72
32.40
31.76
31.23
31.31
32.36
34.44
37.32
40.63
44.04
47.44
50.96
54.79
58.97
63.26
67.17
70.21
72.21
73.52
74.93
77.41
81.71
87.94
95.66
104.04
112.37
120.48
128.92
138.70
150.71
165.16
181.34
197.74
212.53
223.98
230.89
232.07
227.02
215.68
198.43
175.90
148.80
117.65
82.71
44.39
3.02
-40.57
-85.26
-130.20
-175.34
-221.54
-270.54
-324.52
-385.17
-454.56
-532.47
-615.69
-697.55
-768.64
-819.20
-842.26
-835.94
-802.32
-749.92
-686.09
-616.14
-542.50
-465.75
-386.41
-306.28
-228.23
-152.02
-81.78
-16.73
44.64
103.33
159.08
210.32
254.65
290.09
321.03
344.80
365.38
387.26
414.43
449.57
492.90
541.58
589.99
637.47
672.78
693.41
699.36
692.84
677.34
655.85
629.33
557.42
488.78
416.61
342.22
267.63
195.46
129.28
72.87
28.98
-1.61
-28.23
-63.75
-106.81
-151.61
-192.51
-225.12
-246.34
-254.87
-251.82
-236.53
-217.16
-200.62
-194.67
-206.12
-235.49
-276.33
-317.67
-348.81
-361.00
-357.14
-340.35
-318.71
-301.66
-292.23
-286.32
-275.70
-252.99
-213.50
-158.88
-91.88
-16.11
58.26
119.16
157.18
170.40
163.60
144.20
117.94
90.20
71.92
60.88
54.40
50.32
47.52
45.77
45.63
49.71
57.98
73.50
96.26
124.97
156.09
184.21
202.52
204.74
188.57
160.40
133.00
118.27
124.43
152.28
194.68
238.63
270.06
264.77
213.04
127.34
34.13
-43.19
-96.08
-128.37
-148.10
-161.15
-169.11
-168.77
-157.57
-138.17
-117.10
-101.09
-93.40
-93.15
-96.69
-99.67
-97.28
-87.20
-71.44
-54.81
-41.94
-34.97
-33.17
-34.12
-35.08
-33.08
-26.69
-17.16
-7.30
0.27
4.46
5.60
4.75
2.97
1.14
0.10
-0.77
-2.17
-4.16
-6.12
-7.37
-7.75
-7.77
-7.97
-8.54
-10.37
-12.96
-14.56
-13.33
-8.64
-1.74
4.86
8.72
8.77
3.93
-3.79
-10.50
-12.56
-8.83
-1.42
5.65
8.47
4.74
-7.95
-28.24
-51.74
-73.17
-88.44
-96.06
-97.34
-96.25
-82.81
-60.92
-42.68
-40.14
-55.96
-81.23
-100.96
-102.20
-80.53
-42.48
-4.36
19.26
22.54
10.18
-6.51
-16.47
-16.08
-6.52
6.90
16.93
20.72
20.67
21.70
27.25
36.89
46.95
53.34
53.47
46.79
36.27
26.78
22.20
23.96
29.75
35.26
36.61
31.82
21.07
7.16
-5.98
-15.20
-19.46
-19.99
-19.23
-19.31
-21.33
-25.16
-29.42
-32.27
-32.22
-28.57
-21.44
-11.23
1.83
17.63
36.07
56.81
79.06
101.49
122.38
139.83
152.20
158.49
158.55
153.05
143.28
130.68
116.46
101.42
85.85
69.85
53.52
37.14
21.15
6.10
-7.39
-18.76
-27.54
-33.51
-36.75
-37.73
-37.11
-35.64
-34.00
-32.75
-32.25
-32.62
-33.62
-34.64
-34.88
-33.55
-30.33
-25.51
-19.94
-14.67
-10.52
-7.81
-6.44
-6.16
-6.94
-8.94
-12.34
-17.02
-22.35
-27.39
-31.27
-33.61
-34.57
-34.77
-34.91
-35.53
-36.91
-39.15
-42.26
-46.16
-50.62
-55.24
-59.62
-63.49
-66.87
-69.95
-72.92
-75.75
-78.24
-80.18
-81.60
-82.75
-84.01
-85.50
-86.85
-87.20
-85.58
-81.24
-74.10
-64.71
-54.01
-42.94
-32.20
-22.30
-13.70
-6.93
-2.59
-1.07
-2.28
-5.60
-10.06
-14.67
-18.78
-22.17
-24.95
-27.32
-29.35
-30.94
-31.97
-32.42
-32.43
-32.40
-32.71
-33.67
-35.35
-37.62
-40.18
-42.56
-44.14
-44.22
-42.14
-37.47
-30.32
-21.35
-11.65
-2.30
6.13
13.78
21.47
30.21
40.79
53.42
67.95
84.18
102.19
122.32
144.77
169.05
193.60
215.89
232.98
242.43
242.97
234.84
219.57
199.44
176.91
154.24
133.27
115.37
101.33
91.21
84.18
78.73
72.94
65.15
54.56
41.38
26.75
12.16
-1.20
-12.77
-22.74
-31.82
-40.74
-49.91
-59.29
-68.44
-76.76
-83.79
-89.30
-93.35
-96.11
-97.83
-98.80
-99.35
-99.79
-100.36
-100.97
-101.12
-99.97
-96.64
-90.59
-81.95
-71.60
-60.86
-51.09
-43.30
-37.98
-35.13
-34.46
-35.53
-37.98
-41.46
-45.56
-49.82
-53.71
-56.62
-58.05
-57.60
-55.13
-50.81
-45.02
-38.27
-31.00
-23.48
-15.76
-7.81
0.32
8.41
16.03
22.64
27.70
30.80
31.80
30.81
28.23
24.63
20.74
17.31
14.92
13.79
13.69
14.01
13.98
13.03
11.13
8.99
7.82
8.97
13.33
20.96
31.01
41.98
52.34
60.87
66.97
70.51
71.59
70.32
66.84
61.40
54.56
47.18
40.19
34.27
29.54
25.54
21.46
16.54
10.46
3.40
-4.01
-11.07
-17.29
-22.45
-26.55
-29.61
-31.51
-32.06
-31.10
-28.73
-25.38
-21.71
-18.47
-16.23
-15.31
-15.69
-17.12
-19.22
-21.63
-24.13
-26.71
-29.49
-32.57
-35.77
-38.56
-39.97
-38.85
-34.16
-25.37
-12.61
3.22
20.61
37.72
52.71
64.04
70.70
72.37
69.28
62.10
51.78
39.38
25.98
12.59
0.04
-11.09
-20.37
-27.47
-31.98
-33.50
-31.83
-27.25
-20.59
-13.09
-6.02
-0.21
4.11
7.26
9.76
12.02
14.12
15.87
16.98
17.12
16.08
13.63
9.66
4.19
-2.40
-9.32
-15.47
-19.69
-21.10
-19.39
-14.94
-8.66
-1.72
4.80
10.10
13.76
15.65
15.91
14.78
12.61
9.78
6.67
3.62
0.89
-1.28
-2.74
-3.34
-2.98
-1.68
0.37
2.86
5.40
7.69
9.59
11.13
12.37
13.29
13.71
13.39
12.16
10.07
7.40
4.57
1.90
-0.54
-2.91
-5.55
-8.78
-12.71
-17.20
-21.82
-26.01
-29.15
-30.69
-30.31
-27.92
-23.76
-18.30
-12.16
-5.97
-0.29
4.51
8.24
10.79
12.14
12.28
11.34
9.57
7.41
5.38
3.95
3.40
3.76
4.87
6.48
8.38
10.44
12.55
14.60
16.42
17.80
18.59
18.75
18.35
17.53
16.46
15.24
13.91
12.50
11.01
9.46
7.93
6.51
5.25
4.07
2.77
1.07
-1.29
-4.37
-7.95
-11.56
-14.51
-16.17
-16.04
-13.98
-10.17
-5.09
0.62
6.33
11.50
15.74
18.83
20.68
21.29
20.82
19.51
17.72
15.84
14.20
12.97
12.19
11.84
11.80
12.01
12.35
12.66
12.69
12.23
11.17
9.53
7.49
5.30
3.14
1.11
-0.79
-2.61
-4.39
-6.13
-7.81
-9.44
-11.06
-12.75
-14.53
-16.41
-18.32
-20.18
-22.01
-23.97
-26.28
-29.13
-32.45
-35.80
-38.39
-39.29
-37.73
-33.44
-26.73
-18.43
-9.60
-1.21
6.04
11.81
16.02
18.70
19.95
19.92
18.84
17.07
15.04
13.18
11.85
11.23
11.35
12.07
13.16
14.32
15.26
15.83
15.97
15.72
15.16
14.32
13.14
11.49
9.29
6.62
3.69
0.89
-1.41
-3.02
-3.97
-4.55
-5.23
-6.45
-8.51
-11.45
-14.99
-18.63
-21.72
-23.65
-23.97
-22.42
-19.04
-14.08
-7.98
-1.34
5.20
11.06
15.80
19.18
21.11
21.66
20.95
19.10
16.31
12.87
9.28
6.11
3.95
3.17
3.75
5.30
7.21
8.90
10.02
10.54
10.62
10.40
9.85
8.82
7.09
4.59
1.50
-1.82
-4.96
-7.68
-9.92
-11.91
-13.93
-16.28
-19.12
-22.45
-26.20
-30.21
-34.31
-38.20
-41.50
-43.63
-44.04
-42.26
-38.24
-32.35
-25.39
-18.37
-12.22
-7.54
-4.56
-3.15
-3.04
-3.96
-5.65
-7.94
-10.65
-13.54
-16.31
-18.62
-20.16
-20.77
-20.40
-19.19
-17.37
-15.15
-12.73
-10.24
-7.75
-5.35
-3.07
-0.92
1.17
3.29
5.55
7.95
10.40
12.76
14.88
16.69
18.21
19.46
20.43
21.04
21.21
20.91
20.14
18.96
17.43
15.65
13.80
12.21
11.42
11.97
14.27
18.39
23.98
30.38
36.78
42.42
46.73
49.41
50.40
49.87
48.06
45.21
41.52
37.14
32.29
27.36
22.88
19.38
17.22
16.37
16.41
16.72
16.74
16.20
15.20
13.98
12.76
11.55
10.17
8.40
6.14
3.52
0.84
-1.59
-3.62
-5.29
-6.83
-8.50
-10.46
-12.63
-14.85
-16.85
-18.49
-19.73
-20.70
-21.59
-22.64
-23.98
-25.70
-27.71
-29.82
-31.70
-32.90
-32.96
-31.55
-28.50
-23.81
-17.63
-10.17
-1.73
7.27
16.18
24.10
30.02
33.16
33.21
30.59
26.37
21.90
18.41
16.53
16.20
16.90
17.96
18.96
19.78
20.48
21.02
21.31
21.74
23.18
26.75
32.80
40.22
46.45
48.64
45.12
36.49
25.41
15.18
7.98
3.92
1.45
-1.42
-5.71
-11.12
-16.56
-21.21
-25.13
-29.04
-33.62
-38.78
-43.71
-47.21
-48.23
-46.46
-42.42
-37.25
-32.22
-28.29
-25.93
-25.06
-25.25
-25.98
-26.86
-27.72
-28.49
-29.10
-29.37
-28.95
-27.54
-24.96
-21.43
-17.55
-14.13
-12.00
-11.65
-13.07
-15.81
-19.11
-22.22
-24.67
-26.44
-27.95
-29.91
-32.95
-37.37
-42.86
-48.59
-53.47
-56.58
-57.51
-56.44
-53.96
-50.69
-47.05
-43.07
-38.54
-33.19
-26.80
-19.21
-10.37
-0.24
11.07
23.20
35.44
46.73
56.01
62.47
65.84
66.44
65.05
62.57
59.81
57.35
55.49
54.35
53.90
53.84
53.74
53.03
51.32
48.50
44.89
40.99
37.25
33.74
30.22
26.27
21.61
16.21
10.37
4.49
-1.09
-6.19
-10.75
-14.78
-18.27
-21.17
-23.47
-25.15
-26.25
-26.82
-26.94
-26.80
-26.70
-27.02
-28.06
-29.86
-32.14
-34.30
-35.68
-35.78
-34.44
-31.91
-28.76
-25.71
-23.44
-22.53
-23.35
-25.92
-29.80
-33.94
-36.81
-36.70
-32.29
-23.21
-10.33
4.51
19.04
31.31
40.31
46.11
49.60
52.00
54.31
56.97
59.76
62.01
62.91
61.89
58.81
53.92
47.81
41.14
34.46
28.23
22.75
18.15
14.31
10.86
7.23
2.89
-2.35
-8.18
-13.90
-18.72
-22.16
-24.31
-25.70
-27.05
-28.86
-31.19
-33.72
-35.91
-37.31
-37.64
-36.80
-34.72
-31.24
-26.17
-19.36
-10.98
-1.58
7.84
16.17
22.43
26.17
27.54
27.20
26.07
24.90
24.11
23.69
23.35
22.71
21.51
19.69
17.36
14.67
11.77
8.77
5.81
2.98
0.39
-1.90
-3.93
-5.78
-7.63
-9.71
-12.24
-15.46
-19.53
-24.50
-30.21
-36.29
-42.19
-47.28
-50.96
-52.78
-52.54
-50.32
-46.41
-41.25
-35.30
-28.97
-22.63
-16.61
-11.31
-7.07
-4.07
-2.15
-0.73
1.01
3.81
8.06
13.56
19.74
25.94
31.73
37.04
42.05
46.83
51.12
54.39
56.01
55.61
53.26
49.42
44.65
39.30
33.38
26.60
18.69
9.68
0.10
-9.16
-17.12
-23.10
-27.01
-29.39
-31.10
-32.93
-35.16
-37.45
-38.95
-38.77
-36.37
-31.84
-25.91
-19.68
-14.33
-10.74
-9.28
-9.78
-11.66
-14.21
-16.77
-18.94
-20.54
-21.51
-21.75
-21.07
-19.29
-16.35
-12.53
-8.33
-4.38
-1.09
1.56
3.98
6.85
10.74
15.84
21.87
28.18
34.02
38.79
42.18
44.00
44.02
41.81
36.82
28.63
17.35
3.82
-10.46
-23.77
-34.70
-42.53
-47.31
-49.57
-49.95
-48.81
-46.31
-42.53
-37.73
-32.36
-26.96
-21.86
-16.98
-11.90
-6.08
0.80
8.64
16.91
24.84
31.70
37.01
40.58
42.50
43.06
42.70
41.89
41.06
40.48
40.16
39.92
39.41
38.29
36.27
33.07
28.48
22.31
14.53
5.39
-4.53
-14.49
-23.74
-31.82
-38.56
-44.07
-48.53
-52.07
-54.76
-56.65
-57.88
-58.72
-59.40
-60.05
-60.50
-60.32
-58.94
-55.88
-50.98
-44.51
-37.08
-29.46
-22.28
-15.89
-10.33
-5.50
-1.27
2.42
5.57
8.28
10.82
13.59
17.06
21.47
26.74
32.45
37.89
42.26
45.00
45.88
45.02
42.75
39.40
35.19
30.28
24.93
19.66
15.20
12.31
11.45
12.55
15.01
17.84
20.01
20.75
19.67
16.81
12.50
7.24
1.52
-4.16
-9.33
-13.45
-16.01
-16.49
-14.63
-10.50
-4.65
2.02
8.48
13.93
17.98
20.70
22.42
23.52
24.20
24.53
24.57
24.56
24.93
26.11
28.23
30.90
33.21
33.98
32.23
27.50
20.11
11.06
1.74
-6.48
-12.66
-16.43
-18.03
-18.09
-17.39
-16.61
-16.20
-16.35
-17.01
-17.95
-18.75
-18.91
-17.98
-15.72
-12.28
-8.22
-4.33
-1.32
0.40
0.93
0.71
0.23
-0.14
-0.34
-0.49
-0.73
-1.05
-1.37
-1.56
-1.63
-1.75
-2.15
-2.97
-4.16
-5.45
-6.47
-6.94
-6.74
-5.95
-4.78
-3.47
-2.21
-1.10
-0.15
0.68
1.47
2.35
3.42
4.61
5.69
6.20
5.79
4.33
2.17
0.00
-1.39
-1.55
-0.47
1.34
3.14
4.21
3.99
2.14
-1.57
-7.19
-14.46
-22.58
-30.32
-36.15
-38.78
-37.58
-32.73
-25.18
-16.19
-6.96
1.65
9.14
15.17
19.46
21.74
21.85
19.98
16.67
12.73
8.97
5.89
3.64
2.11
1.19
1.01
1.85
4.05
7.66
12.31
17.25
21.52
24.27
24.99
23.62
20.50
16.19
11.31
6.44
1.98
-1.80
-4.83
-7.16
-8.91
-10.21
-11.15
-11.78
-12.13
-12.23
-12.18
-12.08
-12.08
-12.18
-12.31
-12.27
-11.81
-10.79
-9.17
-7.08
-4.62
-1.86
1.19
4.52
8.05
11.57
14.83
17.59
19.68
21.05
21.70
21.70
21.12
20.11
18.86
17.62
16.63
15.99
15.67
15.55
15.45
15.22
14.77
14.07
13.14
12.10
11.09
10.29
9.80
9.62
9.67
9.82
9.99
10.17
10.39
10.56
10.49
9.89
8.47
6.18
3.23
0.04
-2.87
-5.10
-6.43
-6.82
-6.34
-5.12
-3.25
-0.93
1.63
4.14
6.28
7.78
8.49
8.43
7.72
6.55
5.06
3.34
1.37
-0.84
-3.21
-5.57
-7.64
-9.19
-10.12
-10.56
-10.86
-11.43
-12.59
-14.45
-16.88
-19.64
-22.46
-25.24
-27.99
-30.79
-33.67
-36.55
-39.24
-41.59
-43.54
-45.15
-46.56
-47.92
-49.24
-50.52
-51.63
-52.43
-52.65
-51.90
-49.72
-45.73
-39.79
-32.16
-23.48
-14.52
-6.05
1.39
7.55
12.36
15.86
18.16
19.42
19.83
19.63
19.06
18.30
17.49
16.73
16.11
15.70
15.59
15.82
16.37
17.13
17.86
18.31
18.19
17.37
15.95
14.22
12.62
11.50
10.92
10.61
10.07
8.83
6.74
4.04
1.24
-1.16
-2.88
-3.92
-4.56
-5.10
-5.78
-6.74
-7.97
-9.44
-11.03
-12.49
-13.48
-13.57
-12.35
-9.58
-5.21
0.53
7.15
14.02
20.41
25.65
29.32
31.25
31.62
30.83
29.37
27.73
26.29
25.23
24.56
24.14
23.70
23.07
22.15
21.05
19.95
18.97
18.15
17.44
16.79
16.20
15.70
15.25
14.74
13.97
12.75
11.00
8.82
6.41
3.92
1.42
-1.14
-3.80
-6.53
-9.24
-11.86
-14.43
-17.11
-20.16
-23.70
-27.65
-31.56
-34.72
-36.32
-35.74
-32.80
-27.85
-21.68
-15.32
-9.67
-5.35
-2.55
-1.14
-0.86
-1.43
-2.65
-4.37
-6.38
-8.36
-9.93
-10.73
-10.61
-9.65
-8.14
-6.42
-4.77
-3.34
-2.15
-1.19
-0.44
0.03
0.10
-0.33
-1.34
-2.93
-5.06
-7.59
-10.34
-13.07
-15.55
-17.61
-19.23
-20.53
-21.77
-23.32
-25.47
-28.40
-31.92
-35.55
-38.55
-40.17
-39.87
-37.53
-33.42
-28.14
-22.39
-16.79
-11.86
-7.95
-5.27
-3.83
-3.42
-3.56
-3.65
-3.15
-1.75
0.54
3.44
6.67
10.04
13.56
17.29
21.25
25.31
29.25
32.86
36.05
38.87
41.39
43.58
45.32
46.42
46.71
46.14
44.77
42.73
40.16
37.15
33.81
30.24
26.50
22.57
18.37
13.73
8.53
2.80
-3.22
-9.05
-14.14
-17.98
-20.29
-21.11
-20.81
-19.94
-19.12
-18.82
-19.32
-20.60
-22.51
-24.81
-27.31
-29.95
-32.75
-35.73
-38.77
-41.69
-44.16
-45.89
-46.72
-46.66
-45.87
-44.51
-42.66
-40.15
-36.71
-32.01
-25.87
-18.43
-10.11
-1.58
6.46
13.52
19.36
23.99
27.61
30.34
32.20
33.05
32.70
31.02
28.02
23.88
18.86
13.35
7.82
2.94
-0.53
-1.93
-0.94
2.27
6.99
12.30
17.31
21.44
24.41
26.17
26.71
26.02
24.14
21.25
17.77
14.23
11.13
8.85
7.51
7.04
7.31
8.16
9.45
11.00
12.64
14.10
15.21
15.84
16.08
16.17
16.39
16.96
17.84
18.72
19.07
18.31
16.03
12.06
6.58
0.04
-6.91
-13.57
-19.36
-23.97
-27.43
-30.08
-32.43
-34.85
-37.45
-39.91
-41.54
-41.54
-39.18
-34.07
-26.28
-16.36
-5.25
5.93
16.15
24.68
31.14
35.52
37.97
38.77
38.14
36.31
33.61
30.40
27.19
24.45
22.63
22.05
22.87
25.01
28.13
31.59
34.49
35.90
35.03
31.46
25.25
16.94
7.39
-2.38
-11.41
-19.01
-24.88
-29.11
-32.07
-34.23
-35.96
-37.47
-38.75
-39.73
-40.35
-40.67
-40.80
-40.83
-40.70
-40.12
-38.70
-36.02
-31.87
-26.33
-19.76
-12.69
-5.67
0.85
6.56
11.27
14.95
17.67
19.66
21.25
22.85
24.79
27.19
29.94
32.74
35.25
37.16
38.23
38.28
37.07
34.37
29.96
23.83
16.35
8.24
0.49
-6.01
-10.65
-13.33
-14.33
-14.06
-12.90
-11.08
-8.86
-6.77
-5.69
-6.53
-9.85
-15.35
-21.68
-26.86
-28.91
-26.67
-20.04
-10.00
1.99
14.39
25.90
35.41
41.93
44.61
43.01
37.38
28.87
19.28
10.56
4.13
0.46
-0.94
-1.16
-1.23
-1.62
-2.04
-1.64
0.43
4.59
10.44
16.87
22.39
25.60
25.69
22.53
16.68
9.14
1.11
-6.23
-11.82
-14.94
-15.23
-12.82
-8.21
-2.06
5.02
12.58
20.22
27.36
32.92
35.46
33.52
26.37
14.60
0.24
-13.69
-24.08
-28.74
-26.94
-19.49
-8.28
4.28
15.91
24.88
30.21
31.75
30.07
26.20
21.33
16.55
12.66
10.24
9.68
11.17
14.61
19.48
24.82
29.44
32.14
32.07
28.91
22.93
14.88
5.89
-2.80
-10.03
-15.00
-17.46
-17.67
-16.30
-14.13
-11.83
-9.89
-8.55
-7.96
-8.19
-9.30
-11.35
-14.39
-18.37
-23.15
-28.34
-33.40
-37.68
-40.58
-41.70
-40.86
-38.11
-33.63
-27.78
-21.10
-14.33
-8.30
-3.70
-0.90
0.19
-0.02
-0.98
-2.29
-3.79
-5.47
-7.39
-9.51
-11.72
-13.84
-15.75
-17.37
-18.66
-19.59
-20.11
-20.24
-20.03
-19.66
-19.32
-19.16
-19.31
-19.73
-20.37
-21.07
-21.73
-22.24
-22.58
-22.84
-23.12
-23.56
-24.21
-25.06
-25.97
-26.77
-27.27
-27.33
-26.87
-25.87
-24.40
-22.54
-20.30
-17.57
-14.10
-9.66
-4.18
2.01
8.28
13.75
17.76
20.06
20.85
20.71
20.21
19.75
19.48
19.46
19.73
20.46
21.64
23.03
24.01
23.91
22.33
19.52
16.46
14.46
14.63
17.38
22.32
28.48
34.81
40.56
45.39
49.12
51.42
51.68
49.06
42.87
32.94
19.78
4.59
-10.90
-24.88
-35.75
-42.46
-44.72
-42.87
-37.78
-30.56
-22.31
-13.96
-6.20
0.46
5.75
9.54
11.91
13.10
13.47
13.39
13.16
12.88
12.54
12.09
11.57
11.17
11.22
11.98
13.34
14.66
14.94
13.15
8.73
1.94
-6.15
-13.97
-19.98
-23.15
-23.14
-20.32
-15.58
-10.04
-4.82
-0.74
1.78
2.84
2.94
2.77
2.96
3.91
5.70
8.24
11.27
14.50
17.60
20.19
21.88
22.41
21.79
20.39
18.89
18.06
18.46
20.29
23.31
26.97
30.63
33.74
35.97
37.21
37.50
36.96
35.69
33.72
31.00
27.50
23.27
18.48
13.51
8.71
4.36
0.46
-3.25
-7.20
-11.77
-17.14
-23.25
-29.81
-36.47
-42.88
-48.83
-54.26
-59.17
-63.56
-67.34
-70.30
-72.18
-72.79
-72.10
-70.28
-67.67
-64.67
-61.62
-58.69
-55.73
-52.27
-47.61
-41.03
-32.13
-21.07
-8.66
3.77
14.71
22.86
27.51
28.58
26.59
22.37
16.86
10.82
4.76
-1.01
-6.28
-10.78
-14.10
-15.78
-15.52
-13.37
-9.86
-5.88
-2.44
-0.28
0.31
-0.42
-1.92
-3.54
-4.82
-5.60
-5.93
-5.92
-5.59
-4.84
-3.53
-1.61
0.82
3.46
6.08
8.59
11.10
13.83
16.88
20.11
23.11
25.38
26.50
26.34
24.99
22.73
19.93
16.90
14.03
11.68
10.10
9.32
8.98
8.41
6.86
3.79
-0.91
-6.85
-13.30
-19.46
-24.67
-28.52
-30.92
-31.95
-31.75
-30.39
-27.84
-23.98
-18.70
-12.05
-4.30
4.14
12.73
20.98
28.52
35.10
40.61
45.02
48.43
50.98
52.77
53.72
53.51
51.70
48.03
42.57
35.94
29.09
23.01
18.36
15.28
13.50
12.56
12.08
11.84
11.77
11.78
11.70
11.35
10.75
10.16
10.05
10.86
12.62
14.86
16.65
16.91
14.87
10.36
3.87
-3.65
-11.01
-17.15
-21.24
-22.75
-21.62
-18.17
-13.19
-7.76
-3.03
0.03
0.90
-0.53
-3.96
-8.80
-14.30
-19.56
-23.72
-26.15
-26.70
-25.78
-24.27
-23.14
-23.00
-23.95
-25.55
-27.21
-28.37
-28.66
-27.85
-25.72
-21.99
-16.51
-9.35
-0.98
7.82
16.16
23.25
28.59
31.95
33.33
32.92
30.97
27.81
23.77
19.16
14.26
9.28
4.43
-0.05
-3.87
-6.81
-8.71
-9.64
-9.92
-9.97
-10.23
-10.90
-12.00
-13.36
-14.77
-16.11
-17.38
-18.63
-19.91
-21.20
-22.39
-23.38
-24.12
-24.63
-24.96
-25.13
-25.18
-25.16
-25.21
-25.59
-26.52
-28.19
-30.48
-32.99
-35.04
-35.87
-34.86
-31.74
-26.58
-19.85
-12.24
-4.51
2.59
8.49
12.83
15.55
16.84
17.00
16.34
15.16
13.70
12.20
10.92
10.11
9.96
10.50
11.59
12.99
14.42
15.60
16.36
16.52
16.01
14.82
13.05
10.90
8.60
6.33
4.14
1.92
-0.49
-3.24
-6.36
-9.70
-12.99
-15.94
-18.35
-20.19
-21.65
-22.98
-24.49
-26.44
-28.94
-31.91
-34.99
-37.57
-38.90
-38.26
-35.29
-30.05
-23.12
-15.35
-7.59
-0.49
5.57
10.47
14.12
16.45
17.44
17.15
15.89
14.12
12.42
11.28
10.94
11.38
12.39
13.74
15.23
16.80
18.44
20.08
21.61
22.84
23.66
24.05
24.11
24.00
23.73
23.25
22.38
21.08
19.47
17.94
17.00
17.05
18.19
20.13
22.19
23.49
23.24
20.90
16.45
10.38
3.62
-2.68
-7.52
-10.30
-11.01
-10.16
-8.52
-6.83
-5.57
-4.87
-4.70
-4.99
-5.75
-6.97
-8.59
-10.31
-11.72
-12.36
-12.01
-10.75
-8.94
-6.97
-5.15
-3.61
-2.35
-1.43
-0.95
-1.13
-2.12
-3.95
-6.36
-8.90
-11.01
-12.21
-12.18
-10.89
-8.62
-5.88
-3.41
-1.93
-2.00
-3.87
-7.42
-12.22
-17.57
-22.62
-26.53
-28.49
-27.92
-24.56
-18.50
-10.24
-0.57
9.59
19.38
28.12
35.36
40.77
44.07
45.11
43.92
40.88
36.71
32.38
28.88
26.93
26.76
28.12
30.39
32.81
34.74
35.78
35.84
35.09
33.77
32.13
30.23
27.95
25.00
21.07
15.95
9.59
2.24
-5.62
-13.30
-20.11
-25.50
-29.22
-31.46
-32.74
-33.68
-34.82
-36.30
-37.81
-38.72
-38.26
-35.85
-31.35
-25.07
-17.67
-10.01
-2.87
3.19
7.84
10.95
12.55
12.71
11.67
9.74
7.37
5.00
3.00
1.54
0.65
0.25
0.29
0.71
1.50
2.54
3.60
4.32
4.31
3.32
1.31
-1.50
-4.73
-7.96
-10.95
-13.72
-16.54
-19.83
-23.89
-28.70
-33.86
-38.66
-42.38
-44.45
-44.70
-43.25
-40.44
-36.64
-32.17
-27.23
-21.96
-16.43
-10.58
-4.24
2.85
10.90
19.89
29.60
39.58
49.36
58.62
67.22
75.19
82.44
88.65
93.13
94.99
93.41
87.99
78.90
66.99
53.58
40.14
27.97
17.95
10.46
5.45
2.52
1.13
0.60
0.28
-0.44
-1.99
-4.58
-8.12
-12.33
-16.85
-21.31
-25.51
-29.34
-32.78
-35.88
-38.72
-41.31
-43.56
-45.16
-45.60
-44.33
-40.89
-35.14
-27.30
-17.91
-7.62
2.86
12.90
21.91
29.39
35.03
38.76
40.78
41.48
41.25
40.32
38.70
36.19
32.55
27.58
21.25
13.76
5.49
-3.08
-11.48
-19.33
-26.53
-33.14
-39.35
-45.28
-50.81
-55.61
-59.31
-61.63
-62.55
-62.33
-61.35
-59.99
-58.42
-56.65
-54.63
-52.32
-49.77
-47.06
-44.19
-40.97
-37.08
-32.10
-25.72
-17.84
-8.60
1.67
12.57
23.72
34.67
44.84
53.38
59.25
61.41
59.12
52.33
41.86
29.29
16.65
5.92
-1.53
-5.18
-5.39
-3.23
0.04
3.39
6.26
8.63
10.87
13.50
16.89
21.16
26.15
31.37
36.16
39.72
41.29
40.35
36.71
30.67
22.99
14.80
7.41
2.01
-0.64
-0.45
1.81
4.66
6.31
5.30
1.06
-5.77
-13.51
-20.07
-23.61
-23.12
-18.60
-10.90
-1.37
8.40
16.84
22.69
25.18
24.19
20.30
14.53
8.02
1.59
-4.32
-9.50
-13.72
-16.59
-17.75
-17.16
-15.30
-13.16
-11.82
-11.93
-13.59
-16.31
-19.40
-22.36
-25.07
-27.75
-30.76
-34.34
-38.51
-43.00
-47.28
-50.67
-52.51
-52.29
-49.86
-45.50
-39.80
-33.51
-27.26
-21.47
-16.28
-11.79
-8.17
-5.75
-4.81
-5.32
-6.66
-7.75
-7.30
-4.49
0.87
8.33
17.16
26.75
36.66
46.46
55.30
61.84
64.63
62.77
56.62
47.87
39.08
32.69
30.16
31.56
35.71
40.76
44.79
46.33
44.61
39.67
32.19
23.32
14.23
5.81
-1.59
-8.18
-14.38
-20.50
-26.48
-31.95
-36.47
-39.80
-42.01
-43.33
-43.81
-43.16
-40.84
-36.40
-29.86
-21.81
-13.23
-5.00
2.33
8.60
13.80
17.87
20.80
22.84
24.72
27.49
32.00
38.34
45.60
52.25
56.89
59.10
59.59
59.82
61.23
64.50
69.43
75.23
81.06
86.26
90.41
93.02
93.47
91.19
86.00
78.44
69.60
60.76
52.71
45.38
37.87
28.99
17.85
4.23
-11.40
-28.19
-45.24
-61.78
-77.10
-90.39
-100.75
-107.28
-109.39
-107.05
-100.95
-92.23
-82.28
-72.29
-63.08
-55.07
-48.32
-42.75
-38.27
-34.91
-32.79
-32.01
-32.63
-34.45
-37.16
-40.31
-43.52
-46.57
-49.46
-52.31
-55.23
-58.21
-61.04
-63.49
-65.35
-66.60
-67.37
-67.85
-68.18
-68.26
-67.84
-66.53
-64.02
-60.18
-55.23
-49.70
-44.29
-39.63
-36.00
-33.15
-30.42
-26.96
-22.11
-15.69
-7.92
0.83
10.42
21.05
33.10
46.74
61.45
76.00
88.73
98.14
103.49
104.88
103.04
98.84
92.96
85.75
77.51
68.79
60.38
53.11
47.50
43.47
40.46
37.74
34.82
31.56
28.11
24.55
20.77
16.46
11.36
5.47
-0.84
-7.06
-12.77
-17.84
-22.42
-26.73
-30.96
-35.12
-39.19
-43.17
-47.18
-51.40
-55.86
-60.35
-64.38
-67.31
-68.49
-67.46
-64.02
-58.24
-50.44
-41.12
-30.95
-20.68
-11.09
-2.91
3.39
7.65
10.04
11.00
11.09
10.88
10.78
11.06
11.78
12.89
14.19
15.50
16.63
17.53
18.25
18.96
19.85
21.09
22.68
24.44
26.07
27.17
27.51
27.14
26.49
26.32
27.37
30.09
34.27
39.03
43.06
45.08
44.32
40.76
35.13
28.50
21.97
16.24
11.55
7.72
4.33
1.01
-2.52
-6.31
-10.31
-14.50
-18.88
-23.46
-28.03
-32.14
-35.08
-36.16
-35.04
-31.97
-27.63
-22.88
-18.33
-13.97
-9.20
-3.20
4.64
14.26
24.89
35.30
44.16
50.48
53.73
53.93
51.44
46.75
40.38
32.68
23.85
13.99
3.14
-8.59
-21.00
-33.78
-46.46
-58.41
-68.87
-77.07
-82.32
-84.31
-83.30
-80.04
-75.36
-69.57
-62.13
-51.86
-37.60
-19.05
2.68
25.21
45.61
61.37
71.11
74.79
73.39
68.36
61.15
53.01
44.87
37.43
31.06
25.85
21.59
17.88
14.27
10.42
6.16
1.62
-2.87
-6.91
-10.09
-12.23
-13.35
-13.71
-13.73
-13.92
-14.74
-16.47
-19.13
-22.40
-25.80
-28.82
-31.05
-32.25
-32.22
-30.62
-26.98
-20.77
-11.74
-0.11
13.27
27.05
39.76
50.15
57.52
61.79
63.33
62.81
60.88
58.02
54.50
50.43
45.94
41.25
36.73
32.77
29.64
27.33
25.62
24.17
22.66
20.92
18.84
16.33
13.30
9.61
5.21
0.15
-5.37
-11.15
-17.04
-23.02
-29.15
-35.52
-42.10
-48.68
-54.91
-60.32
-64.50
-67.19
-68.26
-67.68
-65.40
-61.29
-55.19
-47.01
-36.92
-25.41
-13.26
-1.35
9.52
18.78
26.06
31.17
33.97
34.47
32.87
29.69
25.67
21.68
18.49
16.51
15.75
15.84
16.34
16.85
17.26
17.68
18.32
19.21
20.13
20.59
20.11
18.37
15.42
11.62
7.44
3.23
-0.89
-5.02
-9.34
-14.00
-18.98
-24.19
-29.45
-34.49
-38.96
-42.38
-44.17
-43.85
-41.23
-36.47
-30.16
-23.12
-16.14
-9.88
-4.69
-0.69
2.16
4.01
4.97
5.23
4.98
4.45
3.89
3.51
3.45
3.72
4.20
4.72
5.07
5.07
4.67
3.88
2.81
1.61
0.35
-0.98
-2.44
-4.08
-5.91
-7.86
-9.79
-11.63
-13.41
-15.26
-17.38
-19.90
-22.77
-25.62
-27.86
-28.69
-27.42
-23.63
-17.42
-9.47
-0.82
7.39
14.23
19.22
22.26
23.51
23.19
21.49
18.62
14.99
11.15
7.81
5.51
4.53
4.74
5.75
7.08
8.34
9.30
9.89
10.11
9.93
9.31
8.14
6.33
3.89
0.96
-2.06
-4.63
-6.30
-6.89
-6.69
-6.40
-6.89
-8.91
-12.77
-18.30
-24.91
-31.72
-37.76
-42.05
-43.63
-41.81
-36.26
-27.20
-15.51
-2.52
10.29
21.61
30.58
36.89
40.61
42.02
41.53
39.52
36.50
33.00
29.62
26.79
24.72
23.34
22.37
21.58
20.81
20.09
19.51
19.09
18.76
18.29
17.41
15.92
13.75
10.95
7.67
4.12
0.47
-3.14
-6.66
-10.08
-13.47
-16.94
-20.67
-24.76
-29.18
-33.64
-37.50
-39.94
-40.16
-37.66
-32.42
-24.97
-16.21
-7.20
1.14
8.08
13.25
16.53
18.04
18.08
17.03
15.35
13.54
12.10
11.40
11.64
12.75
14.44
16.29
17.90
19.02
19.59
19.75
19.65
19.34
18.76
17.74
16.07
13.67
10.56
6.92
3.05
-0.75
-4.28
-7.43
-10.28
-12.95
-15.65
-18.54
-21.76
-25.31
-29.04
-32.57
-35.27
-36.41
-35.31
-31.58
-25.26
-16.83
-7.17
2.68
11.70
19.08
24.25
26.99
27.35
25.62
22.34
18.19
13.93
10.27
7.74
6.53
6.59
7.59
9.15
10.93
12.64
14.09
15.11
15.52
15.14
13.85
11.73
8.98
5.94
2.96
0.26
-2.12
-4.35
-6.73
-9.52
-12.90
-16.83
-21.06
-25.13
-28.45
-30.34
-30.15
-27.46
-22.21
-14.79
-6.00
3.11
11.56
18.57
23.68
26.73
27.76
26.93
24.54
21.05
16.98
12.93
9.40
6.70
4.94
4.03
3.79
3.99
4.44
4.97
5.42
5.63
5.47
4.78
3.48
1.51
-1.09
-4.22
-7.65
-11.11
-14.31
-17.08
-19.42
-21.56
-23.88
-26.78
-30.49
-34.88
-39.37
-43.04
-44.76
-43.62
-39.14
-31.47
-21.37
-9.99
1.42
11.74
20.21
26.42
30.28
31.92
31.61
29.72
26.72
23.11
19.45
16.30
14.12
13.29
13.94
15.90
18.74
21.82
24.50
26.33
27.10
26.89
25.87
24.16
21.71
18.37
14.06
8.83
2.96
-3.16
-9.17
-14.79
-19.88
-24.35
-28.18
-31.37
-34.05
-36.51
-39.07
-41.94
-44.94
-47.48
-48.57
-47.23
-42.79
-35.15
-24.87
-13.03
-0.94
10.12
19.13
25.48
29.00
29.84
28.47
25.48
21.49
17.04
12.55
8.31
4.46
1.12
-1.66
-3.90
-5.62
-6.92
-7.92
-8.75
-9.55
-10.43
-11.47
-12.67
-13.93
-15.02
-15.56
-15.10
-13.17
-9.47
-3.98
2.94
10.60
18.17
24.92
30.38
34.39
36.94
38.02
37.59
35.71
32.79
29.67
27.57
27.67
30.64
36.34
43.77
51.32
57.27
60.16
59.02
53.55
44.05
31.35
16.76
1.80
-12.04
-23.59
-32.19
-37.79
-40.84
-42.10
-42.42
-42.53
-42.95
-43.96
-45.63
-47.89
-50.62
-53.60
-56.62
-59.48
-62.07
-64.46
-66.95
-70.01
-74.16
-79.76
-86.87
-95.15
-103.91
-112.33
-119.57
-124.92
-127.77
-127.72
-124.59
-118.51
-110.02
-99.95
-89.15
-78.30
-67.67
-57.30
-47.22
-37.79
-29.68
-23.49
-19.25
-16.09
-12.37
-6.24
3.67
17.73
35.22
54.73
74.64
93.42
109.81
122.70
131.27
135.17
134.93
132.05
128.66
126.86
127.91
131.73
136.99
141.79
144.45
144.10
140.81
135.24
128.22
120.47
112.72
105.81
100.78
98.61
99.82
104.16
110.67
117.91
124.50
129.49
132.40
133.12
131.58
127.55
120.69
110.75
97.71
81.88
63.76
44.03
23.39
2.64
-17.34
-35.58
-51.28
-63.94
-73.63
-80.96
-86.74
-91.69
-95.99
-99.33
-101.21
-101.44
-100.39
-98.89
-97.88
-97.91
-99.03
-100.90
-103.22
-105.85
-108.78
-111.65
-113.45
-112.65
-107.67
-97.75
-83.36
-66.18
-48.51
-32.44
-19.26
-9.35
-2.50
1.78
3.95
4.53
4.06
3.28
2.96
3.79
6.12
9.99
15.09
20.86
26.57
31.35
34.35
34.90
32.74
28.20
22.09
15.47
9.28
4.03
-0.27
-3.95
-7.40
-10.86
-14.40
-18.04
-21.93
-26.37
-31.62
-37.57
-43.53
-48.25
-50.31
-48.63
-42.98
-34.07
-23.31
-12.31
-2.34
5.87
12.10
16.41
18.87
19.49
18.30
15.53
11.67
7.37
3.26
-0.19
-2.66
-3.97
-4.01
-2.79
-0.47
2.55
5.76
8.70
11.12
13.00
14.36
15.20
15.34
14.58
12.86
10.37
7.53
4.86
2.69
1.10
-0.14
-1.44
-3.29
-6.07
-9.91
-14.55
-19.24
-22.86
-24.16
-22.16
-16.55
-7.77
3.08
14.52
25.10
33.65
39.43
42.17
42.05
39.66
35.90
31.76
28.09
25.42
23.80
22.97
22.45
21.83
20.88
19.57
17.98
16.15
14.02
11.38
8.04
3.88
-0.96
-6.20
-11.47
-16.51
-21.33
-26.13
-31.18
-36.60
-42.33
-48.13
-53.78
-59.13
-64.10
-68.40
-71.47
-72.47
-70.56
-65.26
-56.74
-45.88
-33.90
-22.06
-11.33
-2.30
4.77
9.82
13.00
14.67
15.48
16.30
17.95
20.90
25.13
30.05
34.82
38.68
41.23
42.51
42.89
42.73
42.14
40.93
38.73
35.30
30.71
25.42
20.04
15.08
10.72
6.72
2.60
-2.11
-7.63
-13.81
-20.15
-25.88
-30.12
-32.06
-31.12
-27.14
-20.47
-11.94
-2.76
5.83
12.78
17.49
19.87
20.18
18.82
16.19
12.62
8.44
3.98
-0.34
-4.17
-7.22
-9.43
-10.90
-11.87
-12.52
-12.94
-13.13
-13.08
-12.86
-12.63
-12.63
-13.09
-14.10
-15.54
-17.15
-18.60
-19.69
-20.40
-20.95
-21.66
-22.80
-24.44
-26.35
-27.97
-28.52
-27.16
-23.22
-16.39
-6.85
4.73
17.30
29.57
40.25
48.25
52.81
53.54
50.46
43.99
34.86
24.08
12.77
2.05
-7.12
-14.13
-18.72
-20.99
-21.41
-20.62
-19.36
-18.23
-17.60
-17.51
-17.75
-18.02
-18.10
-18.02
-18.03
-18.37
-19.15
-20.15
-21.00
-21.28
-20.75
-19.48
-17.80
-16.31
-15.62
-16.26
-18.35
-21.55
-25.01
-27.62
-28.38
-26.63
-22.32
-15.89
-8.08
0.33
8.64
16.25
22.66
27.45
30.35
31.38
30.85
29.32
27.50
26.03
25.36
25.69
26.89
28.67
30.57
32.20
33.31
33.83
33.83
33.45
32.75
31.69
30.06
27.64
24.24
19.89
14.82
9.41
4.11
-0.78
-5.13
-9.03
-12.72
-16.51
-20.68
-25.37
-30.48
-35.63
-40.16
-43.19
-43.94
-41.87
-37.00
-29.89
-21.48
-12.84
-4.93
1.59
6.31
8.98
9.48
7.81
4.27
-0.56
-5.86
-10.75
-14.62
-17.22
-18.73
-19.58
-20.34
-21.53
-23.69
-27.20
-32.24
-38.55
-45.35
-51.50
-55.85
-57.70
-57.03
-54.40
-50.53
-45.91
-40.67
-34.83
-28.59
-22.49
-17.31
-13.60
-11.35
-9.90
-8.16
-5.08
0.07
7.53
17.22
28.81
41.80
55.44
68.73
80.53
89.79
95.77
98.14
97.01
92.77
86.02
77.55
68.32
59.41
51.80
46.14
42.57
40.67
39.68
38.79
37.39
35.25
32.49
29.48
26.57
23.92
21.54
19.42
17.77
17.12
18.18
21.46
26.92
33.86
41.06
47.21
51.31
52.94
52.14
49.15
44.20
37.42
29.01
19.46
9.75
1.22
-4.71
-7.12
-5.96
-2.22
2.31
5.70
6.60
4.59
0.22
-5.43
-11.29
-16.62
-21.12
-24.65
-27.01
-27.88
-26.91
-23.96
-19.28
-13.48
-7.39
-1.75
2.90
6.38
8.77
10.27
11.02
10.96
9.78
6.93
1.88
-5.67
-15.53
-26.94
-38.72
-49.61
-58.60
-65.24
-69.68
-72.41
-74.03
-74.95
-75.35
-75.11
-73.92
-71.36
-66.97
-60.34
-51.27
-39.86
-26.61
-12.33
1.86
14.72
25.09
32.11
35.45
35.36
32.61
28.19
23.11
18.15
13.88
10.74
9.08
9.11
10.74
13.52
16.68
19.43
21.20
21.81
21.42
20.30
18.61
16.42
13.72
10.64
7.43
4.38
1.62
-1.10
-4.38
-8.89
-15.04
-22.68
-31.10
-39.29
-46.43
-52.14
-56.57
-60.05
-62.69
-64.19
-63.91
-61.34
-56.47
-49.84
-42.19
-33.97
-25.06
-15.04
-3.74
8.29
19.67
28.78
34.40
36.26
35.07
32.09
28.45
24.84
21.44
18.13
14.67
10.85
6.52
1.52
-4.29
-10.92
-18.16
-25.56
-32.55
-38.57
-43.23
-46.28
-47.72
-47.73
-46.60
-44.64
-42.07
-39.06
-35.79
-32.44
-29.01
-25.36
-21.35
-16.82
-11.54
-5.19
2.62
12.17
23.38
36.18
50.06
63.89
76.10
85.32
90.89
92.98
92.39
89.94
86.86
83.92
80.97
76.81
69.96
59.45
45.23
28.48
11.13
-3.45
-12.00
-12.71
-5.90
6.36
21.21
35.72
47.65
50.82
41.75
22.57
0.89
-15.20
-21.70
-19.35
-12.10
-3.35
3.25
6.69
7.73
7.89
8.41
10.12
13.67
18.10
23.11
27.93
32.40
36.43
39.66
41.29
40.48
36.90
30.79
23.15
14.94
7.45
1.57
-2.64
-5.93
-9.23
-13.12
-17.52
-21.89
-25.90
-29.40
-32.67
-36.34
-41.19
-47.71
-55.88
-65.17
-74.59
-83.01
-89.37
-92.83
-93.20
-90.99
-87.35
-83.72
-81.24
-80.17
-79.74
-78.29
-73.87
-65.07
-51.64
-34.80
-16.74
0.13
14.06
24.25
30.75
34.08
35.03
34.40
32.83
30.90
29.14
28.36
29.56
33.58
40.89
51.40
63.94
76.26
85.60
89.69
87.75
80.73
70.44
58.84
47.67
37.95
30.00
23.48
17.48
10.80
2.03
-10.49
-27.85
-49.68
-71.90
-87.74
-91.57
-83.10
-66.78
-47.90
-30.24
-16.75
-6.21
2.10
7.76
9.64
6.82
-0.49
-10.25
-20.15
-27.78
-30.76
-27.60
-17.95
-3.05
14.26
30.29
41.59
45.99
43.76
37.33
29.59
22.33
15.39
7.16
-3.92
-17.96
-33.43
-47.31
-56.92
-61.71
-63.34
-64.58
-67.60
-72.83
-79.04
-84.25
-86.07
-83.35
-76.74
-68.10
-59.07
-49.96
-39.65
-26.55
-9.78
11.13
35.19
60.11
83.28
103.24
120.33
136.14
152.13
161.85
159.42
143.28
117.86
89.90
64.64
44.56
30.03
20.04
13.02
8.60
6.68
6.82
7.77
8.11
6.83
3.64
-1.23
-7.24
-12.93
-16.87
-18.26
-17.47
-15.34
-12.83
-10.78
-9.88
-10.47
-11.70
-12.18
-10.65
-6.55
-0.09
7.90
16.39
24.34
30.89
35.86
39.36
41.67
43.10
44.12
44.93
45.96
47.47
49.65
52.92
57.86
64.78
73.06
80.88
85.54
84.56
76.82
63.28
46.57
29.76
14.98
2.80
-7.48
-16.81
-25.54
-33.40
-39.89
-44.96
-49.26
-53.73
-58.96
-64.59
-69.25
-71.00
-68.29
-60.59
-48.67
-34.37
-19.98
-7.53
1.71
7.43
10.13
10.70
10.00
8.64
6.89
4.85
2.57
0.18
-2.15
-4.32
-6.34
-8.35
-10.52
-13.02
-15.87
-19.01
-22.26
-25.47
-28.56
-31.53
-34.44
-37.33
-40.17
-42.86
-45.39
-47.82
-50.43
-53.71
-58.14
-63.93
-70.66
-77.20
-82.00
-83.51
-80.76
-73.73
-63.45
-51.77
-40.73
-31.92
-26.19
-23.65
-23.92
-26.39
-30.55
-36.14
-43.12
-51.49
-60.70
-69.90
-78.29
-85.30
-90.59
-94.15
-96.42
-98.23
-100.63
-103.76
-107.36
-111.17
-114.88
-117.91
-119.31
-118.09
-113.63
-106.00
-95.00
-81.09
-65.92
-51.42
-38.55
-26.59
-13.50
3.01
24.32
51.66
84.65
120.53
155.77
187.53
214.81
238.30
259.57
271.02
266.82
248.38
223.60
200.30
181.49
166.35
152.46
137.54
120.45
102.99
89.74
80.97
75.97
73.19
70.77
67.06
61.01
52.42
42.91
34.42
27.36
21.28
15.54
9.61
3.21
-3.74
-11.26
-18.63
-25.22
-31.01
-35.94
-39.77
-41.98
-42.09
-40.10
-36.72
-32.83
-29.52
-27.97
-28.89
-32.48
-38.40
-45.86
-53.97
-61.84
-68.64
-73.76
-77.00
-78.46
-78.51
-77.61
-76.18
-74.44
-72.39
-69.81
-66.33
-61.68
-55.84
-49.07
-41.81
-34.59
-27.94
-22.32
-18.07
-15.40
-14.32
-14.85
-16.72
-19.25
-21.48
-22.50
-21.69
-18.71
-13.36
-5.60
3.94
14.32
24.67
34.24
42.22
47.81
50.56
50.48
48.03
43.19
36.21
28.21
21.06
16.47
15.39
17.85
23.13
29.88
35.34
36.68
32.21
21.72
5.98
-13.70
-35.48
-57.41
-71.64
-73.02
-63.47
-49.90
-37.78
-28.79
-22.32
-17.55
-14.14
-12.02
-11.82
-13.60
-15.96
-16.69
-14.25
-8.38
-0.03
9.33
18.06
24.03
25.44
22.34
16.57
10.58
6.22
4.14
4.26
6.84
13.04
24.12
40.63
60.62
78.60
87.15
80.21
56.51
19.82
-19.19
-49.68
-64.37
-61.36
-43.66
-17.03
12.22
38.72
58.42
68.84
68.69
58.52
40.76
19.24
-1.85
-18.72
-28.41
-29.40
-21.77
-7.65
9.31
24.94
35.64
39.38
36.31
28.60
19.49
12.26
8.81
9.31
12.09
14.45
13.70
8.30
-1.41
-13.39
-24.81
-33.50
-38.67
-40.68
-40.12
-36.79
-29.49
-17.02
0.27
19.83
37.46
49.15
52.87
49.36
41.15
31.22
21.62
13.17
6.16
1.46
1.11
7.45
21.41
40.87
60.56
73.55
74.11
60.45
35.61
6.22
-20.67
-40.69
-53.56
-61.98
-69.56
-78.57
-88.24
-96.88
-101.50
-99.66
-90.34
-74.63
-55.20
-35.55
-18.70
-5.81
4.60
15.83
30.49
48.10
64.01
71.31
64.34
41.84
8.62
-26.23
-53.05
-65.98
-65.08
-55.50
-44.21
-36.61
-34.10
-34.21
-33.00
-27.56
-17.87
-6.34
3.33
8.85
10.17
9.21
8.73
10.54
14.93
20.69
25.83
28.65
28.40
25.54
21.42
17.87
16.62
18.82
24.81
33.83
44.86
57.03
69.46
80.75
88.52
89.84
81.77
64.17
39.53
12.53
-11.67
-29.50
-40.43
-46.75
-52.12
-58.95
-67.33
-74.85
-77.67
-72.48
-58.39
-37.22
-13.86
6.77
21.37
29.46
32.77
33.57
33.02
30.54
24.74
15.18
3.77
-6.05
-10.92
-9.79
-4.90
-1.00
-2.94
-13.25
-30.37
-49.27
-63.65
-68.53
-62.18
-46.59
-26.26
-6.03
10.02
20.87
28.29
35.58
44.87
55.75
64.77
66.78
57.68
37.01
9.13
-18.46
-38.29
-46.19
-42.61
-31.75
-18.87
-7.66
0.87
7.79
14.39
20.74
25.42
26.51
22.96
15.31
5.60
-3.55
-9.86
-12.39
-11.61
-8.97
-6.10
-4.26
-3.84
-4.41
-5.16
-5.29
-4.47
-2.92
-1.24
-0.09
0.06
-0.98
-3.14
-6.17
-9.72
-13.59
-17.58
-21.52
-25.21
-28.55
-31.53
-34.32
-37.18
-40.10
-43.10
-45.99
-48.17
-48.66
-46.25
-40.01
-29.60
-15.39
1.56
19.58
36.81
51.65
62.99
70.30
73.37
72.35
68.00
61.57
54.44
47.93
43.10
40.62
40.70
42.62
45.33
48.08
50.81
53.82
57.62
62.49
68.15
73.47
76.00
72.98
62.66
45.11
21.81
-4.90
-32.45
-58.59
-78.03
-86.36
-83.25
-72.14
-57.58
-43.68
-33.12
-26.55
-22.64
-19.14
-14.80
-10.04
-6.56
-6.23
-10.47
-19.50
-32.06
-45.81
-58.03
-66.68
-70.56
-70.44
-66.51
-59.91
-52.40
-45.48
-39.62
-34.24
-28.38
-21.44
-13.75
-6.03
0.92
6.73
11.77
16.92
22.80
29.37
35.99
41.44
45.13
47.36
49.02
49.84
49.95
49.23
47.53
44.79
40.85
36.41
32.99
31.97
34.21
39.56
45.26
48.51
50.78
52.83
53.53
52.28
48.49
41.72
32.05
20.42
8.84
-0.45
-6.48
-9.49
-10.80
-12.58
-16.99
-25.68
-38.87
-54.49
-68.69
-77.60
-78.76
-72.30
-61.23
-50.04
-43.27
-43.22
-49.11
-58.25
-68.01
-77.54
-87.90
-101.12
-114.38
-123.40
-124.85
-119.10
-109.68
-99.62
-89.36
-76.16
-55.55
-24.01
18.11
66.29
113.27
151.49
176.32
186.60
184.51
174.51
161.62
148.95
136.87
125.38
110.73
91.58
69.32
47.52
30.39
20.53
16.78
14.75
9.77
-1.24
-17.20
-34.18
-48.05
-56.81
-61.02
-62.78
-63.89
-64.60
-64.28
-61.98
-57.92
-53.55
-50.67
-50.09
-51.07
-51.44
-48.83
-42.00
-31.38
-18.96
-7.65
-0.14
2.49
0.37
-5.22
-12.21
-18.07
-19.98
-15.63
-5.22
7.93
18.06
19.13
8.60
-10.02
-28.02
-36.21
-28.67
-6.46
22.97
49.50
65.20
67.88
61.09
51.14
42.12
36.71
33.41
29.02
21.76
12.61
4.59
0.76
2.12
6.98
12.52
15.56
14.92
11.69
8.25
6.88
8.48
12.19
15.93
17.72
16.16
11.28
4.27
-3.16
-9.49
-13.96
-16.60
-18.01
-18.84
-19.75
-20.95
-22.28
-23.35
-23.70
-23.05
-21.42
-19.16
-16.71
-14.55
-12.88
-11.71
-10.96
-10.63
-11.02
-12.62
-15.87
-20.83
-27.04
-33.68
-39.95
-45.33
-49.75
-53.37
-56.26
-58.18
-58.58
-56.88
-52.85
-46.79
-39.43
-31.71
-24.48
-18.26
-13.23
-9.35
-6.46
-4.41
-3.08
-2.41
-2.27
-2.43
-2.58
-2.29
-1.19
0.96
4.12
7.92
11.74
14.98
17.20
18.38
18.82
18.97
19.16
19.44
19.59
19.29
18.34
16.83
15.03
13.22
11.60
10.18
8.98
8.13
8.01
9.16
12.02
16.76
23.08
30.19
37.03
42.48
45.65
46.04
43.71
39.15
33.13
26.45
19.78
13.51
7.94
3.33
0.01
-1.73
-1.83
-0.52
1.68
4.21
6.67
8.98
11.28
13.78
16.48
19.16
21.38
22.67
22.67
21.21
18.45
14.82
11.08
8.20
7.14
8.59
12.73
19.14
26.88
34.76
41.65
46.66
49.31
49.53
47.49
43.47
37.74
30.44
21.76
11.98
1.63
-8.53
-17.68
-25.13
-30.57
-34.13
-36.29
-37.70
-38.88
-40.16
-41.54
-42.76
-43.45
-43.22
-41.84
-39.41
-36.36
-33.36
-31.07
-29.84
-29.52
-29.44
-28.58
-25.94
-20.83
-13.03
-2.83
9.15
22.06
34.94
46.84
56.82
64.17
68.46
69.63
68.03
64.27
59.05
53.07
46.88
40.95
35.64
31.18
27.63
24.76
22.14
19.20
15.48
10.78
5.28
-0.57
-6.23
-11.35
-15.83
-19.90
-23.91
-28.25
-33.22
-38.95
-45.37
-52.06
-58.22
-62.78
-64.56
-62.68
-56.80
-47.26
-35.05
-21.51
-8.02
4.25
14.50
22.33
27.76
31.10
32.84
33.44
33.21
32.26
30.53
28.04
24.97
21.75
18.93
17.02
16.33
16.82
18.14
19.74
21.00
21.33
20.29
17.69
13.61
8.45
2.85
-2.52
-7.20
-11.15
-14.82
-18.96
-24.30
-31.07
-38.78
-46.18
-51.65
-53.67
-51.37
-44.81
-34.95
-23.29
-11.44
-0.72
8.03
14.45
18.49
20.25
19.90
17.75
14.25
10.10
6.06
2.80
0.70
-0.24
-0.26
0.26
1.08
2.09
3.35
4.93
6.77
8.64
10.22
11.14
11.18
10.30
8.71
6.68
4.50
2.26
-0.14
-2.98
-6.58
-11.18
-16.83
-23.26
-29.96
-36.18
-41.00
-43.48
-42.80
-38.47
-30.60
-19.93
-7.74
4.38
15.00
23.12
28.34
30.81
30.98
29.42
26.58
22.81
18.41
13.78
9.38
5.69
3.11
1.78
1.60
2.32
3.60
5.14
6.67
7.97
8.84
9.09
8.65
7.53
5.89
3.89
1.66
-0.74
-3.32
-6.10
-9.03
-11.98
-14.82
-17.48
-20.00
-22.53
-25.32
-28.56
-32.30
-36.34
-40.14
-42.86
-43.55
-41.38
-35.94
-27.43
-16.68
-4.90
6.54
16.52
24.34
29.70
32.68
33.48
32.36
29.60
25.60
20.94
16.36
12.58
10.11
9.09
9.27
10.22
11.50
12.85
14.16
15.41
16.45
17.07
17.03
16.25
14.82
13.03
11.12
9.21
7.20
4.87
2.04
-1.36
-5.17
-9.09
-12.76
-15.92
-18.51
-20.70
-22.86
-25.40
-28.61
-32.48
-36.64
-40.34
-42.59
-42.41
-39.10
-32.47
-22.97
-11.61
0.28
11.40
20.73
27.70
32.14
34.16
33.97
31.85
28.20
23.56
18.66
14.25
10.92
8.92
8.18
8.38
9.16
10.29
11.64
13.18
14.77
16.14
16.93
16.84
15.74
13.75
11.21
8.46
5.76
3.19
0.70
-1.88
-4.71
-7.88
-11.39
-15.16
-19.02
-22.70
-25.93
-28.47
-30.24
-31.40
-32.34
-33.50
-35.17
-37.21
-39.02
-39.61
-37.93
-33.28
-25.56
-15.42
-4.05
7.13
16.86
24.30
29.14
31.50
31.76
30.34
27.67
24.15
20.25
16.49
13.37
11.24
10.24
10.26
11.04
12.24
13.61
14.98
16.23
17.29
18.06
18.43
18.22
17.33
15.66
13.27
10.38
7.35
4.58
2.32
0.51
-1.17
-3.19
-5.84
-9.09
-12.54
-15.61
-17.89
-19.34
-20.32
-21.42
-23.19
-25.87
-29.34
-33.14
-36.55
-38.75
-38.95
-36.51
-31.16
-23.12
-13.18
-2.46
7.78
16.47
22.96
27.03
28.76
28.39
26.29
22.92
18.88
14.82
11.36
8.95
7.73
7.55
8.09
9.05
10.20
11.44
12.74
14.02
15.13
15.88
16.10
15.67
14.58
12.89
10.74
8.31
5.79
3.36
1.09
-1.04
-3.17
-5.44
-7.90
-10.49
-13.06
-15.45
-17.60
-19.57
-21.50
-23.60
-26.06
-28.92
-32.05
-35.02
-37.13
-37.55
-35.58
-30.93
-23.86
-15.08
-5.55
3.73
11.90
18.41
22.95
25.45
25.92
24.55
21.66
17.80
13.61
9.82
7.17
6.29
7.47
10.42
14.35
18.27
21.34
23.07
23.45
22.86
21.83
20.72
19.22
16.89
13.65
10.00
6.67
4.12
2.33
0.79
-1.28
-5.20
-11.48
-19.23
-26.53
-31.67
-34.06
-34.29
-33.71
-33.73
-36.54
-43.20
-52.83
-62.89
-70.62
-74.10
-72.54
-66.24
-56.47
-46.84
-40.81
-40.12
-44.61
-53.25
-65.00
-78.70
-92.96
-96.14
-81.42
-51.83
-18.38
9.17
27.00
36.17
40.12
42.65
46.46
50.71
53.34
52.78
49.02
43.10
36.39
30.31
25.92
23.60
21.13
17.26
11.92
6.38
2.04
-0.57
-1.86
-2.85
-3.72
-5.84
-9.35
-12.97
-14.59
-12.52
-6.29
3.47
15.37
27.87
39.07
47.86
53.98
57.89
60.35
61.78
62.25
61.33
58.37
52.53
43.75
32.80
21.30
11.50
4.49
0.73
-0.47
-0.55
-1.25
-3.45
-6.98
-10.55
-12.60
-12.05
-8.86
-4.13
0.59
3.90
5.39
5.55
5.54
6.81
10.49
17.30
26.50
37.04
46.64
52.47
51.93
43.93
29.41
11.22
-6.90
-21.72
-31.55
-36.56
-38.11
-37.97
-37.62
-37.91
-39.04
-40.48
-41.11
-39.34
-34.18
-24.59
-11.08
4.43
19.16
30.43
36.69
37.81
35.01
30.18
25.14
21.11
18.71
18.16
19.64
23.14
28.19
33.71
38.11
39.96
38.52
34.46
29.70
26.55
26.69
30.17
35.35
39.67
40.87
37.67
30.00
18.47
3.41
-14.25
-33.55
-53.46
-72.64
-89.39
-102.00
-109.12
-110.20
-105.68
-96.79
-85.37
-73.28
-61.93
-52.11
-43.97
-37.32
-31.91
-27.66
-24.61
-22.98
-22.92
-24.27
-26.44
-28.52
-29.48
-28.39
-24.71
-18.46
-10.24
-1.14
7.65
15.13
20.68
24.13
25.60
25.38
23.79
21.14
17.72
13.91
10.10
6.63
3.62
0.97
-1.58
-4.17
-6.67
-8.58
-9.21
-7.91
-4.38
1.23
8.38
16.30
24.17
31.28
37.02
40.96
42.94
43.03
41.62
39.23
36.37
33.40
30.52
27.79
25.25
22.96
21.04
19.62
18.84
18.80
19.42
20.48
21.52
21.96
21.28
19.21
15.86
11.67
7.25
3.10
-0.57
-3.92
-7.34
-11.24
-15.75
-20.56
-24.90
-27.74
-28.18
-25.79
-20.70
-13.64
-5.55
2.65
10.26
16.79
21.80
24.91
25.76
24.27
20.76
16.00
10.99
6.63
3.44
1.47
0.45
-0.06
-0.40
-0.76
-1.25
-1.96
-3.02
-4.58
-6.74
-9.42
-12.45
-15.60
-18.71
-21.77
-24.91
-28.37
-32.37
-37.03
-42.27
-47.80
-53.08
-57.33
-59.62
-59.03
-54.95
-47.30
-36.79
-24.83
-13.16
-3.42
3.41
7.14
8.25
7.54
5.78
3.53
1.17
-0.99
-2.62
-3.41
-3.22
-2.18
-0.66
0.89
2.12
2.92
3.38
3.64
3.81
3.78
3.31
2.09
-0.11
-3.36
-7.57
-12.47
-17.70
-22.93
-27.86
-32.20
-35.63
-37.78
-38.20
-36.48
-32.33
-25.73
-17.03
-6.86
3.93
14.44
23.91
31.75
37.58
41.15
42.35
41.24
38.10
33.51
28.38
23.71
20.50
19.37
20.44
23.27
27.00
30.55
32.94
33.55
32.31
29.56
25.90
21.95
18.21
14.98
12.24
9.71
6.83
3.13
-1.73
-7.69
-14.08
-19.68
-22.92
-22.35
-17.18
-7.59
5.44
20.19
34.57
46.71
55.37
60.19
61.52
60.05
56.84
53.33
50.70
49.36
48.94
48.69
47.86
46.11
43.22
39.95
38.23
39.77
44.86
52.29
60.05
66.23
69.73
70.00
68.29
67.87
71.87
81.04
93.40
105.14
111.64
108.42
91.09
57.92
11.65
-41.60
-94.25
-138.30
-166.59
-174.68
-156.25
-115.14
-68.00
-30.52
-6.91
6.62
14.70
19.06
18.36
10.46
-6.02
-28.81
-51.85
-68.99
-77.46
-78.33
-74.68
-69.73
-65.40
-62.80
-61.42
-59.16
-54.21
-46.68
-38.32
-31.40
-27.76
-28.18
-32.46
-38.72
-43.54
-43.89
-38.84
-29.86
-19.84
-11.66
-6.85
-5.30
-5.24
-4.11
-0.19
6.44
14.07
20.37
23.51
22.77
18.58
12.22
5.42
-0.38
-4.26
-5.93
-5.74
-4.45
-3.03
-2.52
-3.58
-5.64
-6.83
-4.48
3.24
15.54
28.65
36.84
34.72
20.11
-4.52
-32.33
-54.40
-63.18
-55.18
-31.99
0.38
33.75
60.30
74.74
74.92
63.02
43.55
21.38
0.28
-17.96
-32.52
-42.62
-47.46
-46.60
-40.58
-31.48
-22.31
-15.78
-13.39
-14.51
-16.97
-18.26
-16.66
-11.90
-5.37
0.75
4.49
4.89
2.40
-1.45
-4.76
-6.03
-4.64
-1.07
3.42
7.47
10.16
11.45
12.07
13.02
15.10
18.50
22.69
26.73
29.67
30.86
30.12
27.70
23.98
19.33
14.07
8.53
3.15
-1.52
-4.97
-6.93
-7.66
-7.75
-8.09
-9.53
-12.49
-16.86
-22.00
-27.08
-31.30
-34.19
-35.66
-36.02
-35.81
-35.61
-35.93
-37.01
-38.90
-41.52
-44.75
-48.49
-52.51
-56.39
-59.38
-60.54
-59.09
-54.60
-47.09
-36.86
-24.29
-9.69
6.62
24.16
42.25
60.06
76.72
91.47
103.67
112.76
118.31
120.24
118.94
115.29
110.48
105.58
101.28
97.86
95.41
94.05
93.91
94.89
96.41
97.43
96.80
93.66
87.77
79.38
69.00
57.16
44.41
31.40
18.90
7.60
-2.27
-11.09
-19.72
-29.01
-39.33
-50.38
-61.31
-71.12
-79.09
-84.92
-88.77
-91.12
-92.66
-94.02
-95.58
-97.19
-98.13
-97.29
-93.63
-86.61
-76.49
-64.35
-51.67
-39.93
-30.22
-23.04
-18.24
-15.22
-13.12
-11.19
-8.99
-6.53
-4.24
-2.67
-2.19
-2.70
-3.67
-4.31
-3.86
-1.87
1.66
6.39
11.70
16.98
21.64
25.27
27.61
28.58
28.20
26.67
24.25
21.24
17.98
14.79
11.85
9.15
6.45
3.40
-0.32
-4.81
-9.83
-14.94
-19.66
-23.78
-27.38
-30.86
-34.58
-38.66
-42.76
-46.10
-47.71
-46.75
-42.82
-36.13
-27.48
-18.07
-9.18
-1.80
3.54
6.85
8.48
8.91
8.56
7.65
6.30
4.54
2.48
0.32
-1.69
-3.21
-3.97
-3.81
-2.77
-1.14
0.65
2.18
3.15
3.51
3.42
3.05
2.49
1.66
0.33
-1.73
-4.68
-8.48
-12.90
-17.65
-22.37
-26.79
-30.80
-34.39
-37.69
-40.82
-43.88
-46.89
-49.85
-52.70
-55.32
-57.41
-58.48
-57.81
-54.71
-48.68
-39.68
-28.16
-15.01
-1.38
11.61
22.97
32.07
38.64
42.79
44.90
45.57
45.41
44.92
44.44
44.05
43.70
43.22
42.46
41.32
39.76
37.81
35.55
33.05
30.47
27.94
25.66
23.75
22.23
20.96
19.60
17.72
14.99
11.29
6.76
1.73
-3.41
-8.31
-12.78
-16.77
-20.29
-23.43
-26.34
-29.28
-32.47
-35.94
-39.34
-41.94
-42.81
-41.09
-36.37
-28.83
-19.22
-8.61
1.92
11.45
19.39
25.38
29.36
31.42
31.74
30.63
28.43
25.58
22.58
19.93
18.09
17.34
17.69
18.91
20.59
22.32
23.83
24.97
25.74
26.20
26.36
26.24
25.82
25.10
24.08
22.73
20.94
18.53
15.34
11.31
6.59
1.61
-3.10
-6.99
-9.77
-11.52
-12.65
-13.79
-15.53
-18.20
-21.73
-25.64
-29.17
-31.45
-31.71
-29.52
-24.87
-18.21
-10.27
-1.90
6.15
13.36
19.34
23.83
26.58
27.47
26.59
24.33
21.35
18.37
15.90
14.13
12.94
12.11
11.46
10.95
10.60
10.42
10.24
9.81
8.88
7.29
5.12
2.59
0.01
-2.37
-4.47
-6.35
-8.13
-9.92
-11.68
-13.25
-14.36
-14.72
-14.18
-12.76
-10.68
-8.30
-6.03
-4.35
-3.63
-4.10
-5.65
-7.76
-9.56
-10.06
-8.49
-4.55
1.45
8.75
16.32
23.25
28.93
33.13
35.95
37.65
38.52
38.72
38.23
36.91
34.64
31.46
27.76
24.22
21.65
20.67
21.51
23.88
27.13
30.39
32.85
33.87
33.09
30.40
25.91
19.96
13.08
5.99
-0.55
-5.89
-9.76
-12.39
-14.46
-16.89
-20.38
-25.16
-30.72
-36.05
-39.95
-41.49
-40.28
-36.51
-30.79
-23.89
-16.57
-9.46
-3.14
1.89
5.19
6.50
5.81
3.46
0.16
-3.13
-5.45
-6.10
-4.76
-1.64
2.70
7.51
12.13
16.13
19.32
21.70
23.31
24.15
24.16
23.24
21.31
18.26
14.04
8.67
2.24
-5.02
-12.73
-20.56
-28.24
-35.65
-42.75
-49.43
-55.32
-59.75
-61.91
-61.13
-57.19
-50.49
-41.91
-32.51
-23.20
-14.52
-6.59
0.64
7.24
13.06
17.85
21.30
23.28
23.95
23.71
23.07
22.50
22.29
22.48
22.96
23.49
23.80
23.64
22.81
21.18
18.74
15.56
11.81
7.65
3.24
-1.36
-6.07
-10.87
-15.59
-20.00
-23.75
-26.44
-27.73
-27.38
-25.38
-22.01
-17.75
-13.15
-8.69
-4.66
-1.11
1.98
4.67
6.99
8.98
10.68
12.17
13.43
14.34
14.66
14.17
12.81
10.78
8.50
6.47
5.14
4.81
5.65
7.70
10.78
14.47
18.12
21.05
22.81
23.36
23.09
22.55
22.21
22.13
22.05
21.53
20.31
18.48
16.47
14.84
13.98
13.93
14.39
14.83
14.74
13.71
11.51
8.05
3.32
-2.55
-9.27
-16.27
-22.83
-28.12
-31.41
-32.24
-30.44
-26.28
-20.38
-13.69
-7.29
-2.15
1.14
2.50
2.22
0.79
-1.37
-4.05
-7.08
-10.11
-12.62
-14.00
-13.88
-12.36
-10.01
-7.60
-5.80
-4.93
-4.96
-5.71
-7.05
-8.93
-11.41
-14.47
-18.04
-21.98
-26.19
-30.66
-35.41
-40.45
-45.67
-50.84
-55.57
-59.38
-61.79
-62.49
-61.45
-58.93
-55.42
-51.34
-46.84
-41.62
-35.10
-26.65
-16.06
-3.70
9.44
22.10
33.07
41.56
47.30
50.45
51.41
50.67
48.73
46.11
43.34
40.89
39.13
38.13
37.74
37.62
37.43
36.94
36.06
34.82
33.25
31.39
29.32
27.11
24.90
22.80
20.87
19.05
17.25
15.39
13.54
11.87
10.67
10.10
10.15
10.51
10.69
10.25
8.95
6.84
4.23
1.45
-1.27
-3.83
-6.17
-8.10
-9.17
-8.87
-6.84
-3.20
1.42
6.04
9.77
12.06
12.86
12.45
11.11
8.97
5.86
1.53
-4.12
-10.87
-18.23
-25.48
-31.92
-37.09
-40.89
-43.61
-45.84
-48.26
-51.33
-55.13
-59.34
-63.33
-66.44
-68.16
-68.31
-66.97
-64.43
-61.02
-57.06
-52.77
-48.31
-43.82
-39.48
-35.65
-32.86
-31.69
-32.59
-35.61
-40.32
-45.91
-51.47
-56.32
-60.17
-63.14
-65.51
-67.50
-69.22
-70.57
-71.40
-71.50
-70.58
-68.17
-63.64
-56.35
-45.94
-32.48
-16.58
0.77
18.51
35.73
51.85
66.57
79.73
91.23
100.92
108.69
114.46
118.33
120.52
121.35
121.16
120.29
118.96
117.32
115.43
113.42
111.48
109.89
108.90
108.58
108.73
108.86
108.39
106.87
104.19
100.60
96.58
92.60
88.92
85.40
81.63
77.02
71.01
63.29
53.95
43.50
32.72
22.43
13.15
5.01
-2.31
-9.28
-16.32
-23.50
-30.66
-37.47
-43.71
-49.32
-54.36
-58.83
-62.64
-65.65
-67.78
-69.17
-70.11
-70.87
-71.50
-71.65
-70.66
-67.83
-62.63
-54.98
-45.28
-34.33
-23.18
-12.85
-4.17
2.33
6.50
8.53
8.82
7.85
6.17
4.21
2.37
0.90
-0.07
-0.50
-0.49
-0.15
0.45
1.28
2.36
3.65
5.04
6.32
7.30
7.87
8.05
7.99
7.84
7.73
7.66
7.57
7.35
6.92
6.26
5.41
4.46
3.47
2.45
1.36
0.09
-1.40
-3.04
-4.67
-6.02
-6.94
-7.50
-7.99
-8.89
-10.60
-13.23
-16.62
-20.31
-23.86
-27.01
-29.88
-32.80
-36.13
-40.01
-44.11
-47.76
-50.07
-50.34
-48.21
-43.81
-37.61
-30.29
-22.49
-14.76
-7.58
-1.32
3.66
7.14
9.09
9.69
9.34
8.48
7.53
6.73
6.23
6.05
6.24
6.88
8.11
10.03
12.64
15.83
19.37
22.95
26.27
29.05
31.06
32.15
32.37
31.89
31.07
30.33
29.98
30.13
30.54
30.77
30.34
28.94
26.64
23.87
21.27
19.45
18.68
18.76
19.05
18.66
16.75
12.71
6.22
-2.59
-13.05
-24.06
-34.34
-42.93
-49.64
-55.13
-60.84
-68.34
-78.52
-90.96
-103.94
-115.13
-122.54
-125.11
-122.75
-116.28
-107.02
-96.33
-85.22
-74.27
-63.78
-53.81
-44.07
-33.72
-21.75
-7.54
8.93
27.13
46.15
65.01
81.85
93.87
99.40
99.03
94.83
88.84
82.33
75.95
70.09
64.99
60.72
57.49
55.15
53.06
50.33
46.25
40.58
33.62
26.22
18.77
12.11
6.91
3.34
1.20
0.14
0.03
0.92
3.08
6.00
9.11
11.67
12.89
12.54
10.69
7.60
3.53
-1.71
-8.24
-15.54
-22.47
-27.56
-29.52
-27.98
-23.78
-17.35
-10.68
-5.97
-4.53
-6.57
-11.37
-17.68
-24.28
-30.05
-34.14
-36.20
-36.16
-34.16
-30.61
-26.03
-20.87
-15.37
-9.72
-4.15
0.77
4.54
7.09
8.86
10.68
13.39
17.31
22.05
26.66
30.03
31.52
31.24
29.81
28.04
26.46
25.19
24.00
22.43
19.90
15.89
9.99
1.95
-8.18
-19.95
-32.50
-44.70
-55.32
-63.37
-68.15
-69.40
-67.27
-62.26
-55.18
-46.94
-38.39
-30.04
-22.03
-14.17
-6.13
2.25
10.85
19.31
27.18
34.04
39.54
43.43
45.47
45.65
44.25
41.90
39.47
37.65
36.57
35.69
33.93
30.30
24.42
16.82
8.81
1.87
-3.00
-5.69
-6.93
-7.86
-9.42
-11.92
-14.98
-17.75
-19.41
-19.43
-17.76
-14.75
-11.07
-7.58
-5.24
-4.85
-6.83
-10.92
-16.18
-21.29
-24.96
-26.48
-25.97
-24.19
-22.19
-20.84
-20.50
-20.92
-21.42
-21.15
-19.39
-15.77
-10.36
-3.68
3.49
10.34
16.25
20.84
24.03
25.88
26.55
26.31
25.47
24.40
23.47
22.86
22.57
22.49
22.40
22.23
22.08
22.20
22.82
23.95
25.29
26.28
26.31
25.00
22.41
19.06
15.69
12.94
11.06
9.78
8.51
6.60
3.65
-0.46
-5.66
-11.85
-18.95
-26.67
-34.37
-41.00
-45.47
-47.14
-46.24
-43.97
-41.94
-41.39
-42.54
-44.46
-45.56
-44.48
-40.78
-35.17
-29.05
-23.79
-20.14
-18.03
-16.84
-15.91
-14.81
-13.36
-11.41
-8.60
-4.34
1.90
10.18
19.85
29.65
38.12
44.05
46.90
46.91
44.81
41.54
37.90
34.35
31.07
27.97
24.90
21.68
18.27
14.79
11.54
8.91
7.19
6.44
6.38
6.46
6.14
5.05
3.17
0.72
-1.96
-4.63
-7.18
-9.58
-11.78
-13.72
-15.27
-16.47
-17.45
-18.45
-19.65
-21.01
-22.32
-23.24
-23.59
-23.43
-23.05
-22.77
-22.73
-22.77
-22.50
-21.53
-19.66
-17.06
-14.14
-11.37
-9.08
-7.34
-5.96
-4.57
-2.71
0.07
4.10
9.56
16.34
24.06
32.11
39.78
46.40
51.44
54.63
55.95
55.68
54.24
52.09
49.58
46.91
44.22
41.57
39.10
36.94
35.19
33.81
32.65
31.54
30.34
28.97
27.35
25.39
23.03
20.28
17.31
14.38
11.74
9.44
7.30
4.99
2.21
-1.08
-4.65
-8.11
-11.12
-13.55
-15.55
-17.47
-19.66
-22.32
-25.52
-29.22
-33.37
-38.01
-43.11
-48.43
-53.41
-57.20
-58.87
-57.78
-53.85
-47.67
-40.23
-32.64
-25.69
-19.74
-14.73
-10.44
-6.72
-3.57
-1.11
0.67
1.94
3.11
4.64
6.80
9.46
12.14
14.21
15.23
15.17
14.43
13.62
13.26
13.49
14.00
14.29
13.87
12.60
10.71
8.63
6.73
5.10
3.53
1.65
-0.85
-4.06
-7.86
-11.94
-15.97
-19.72
-23.02
-25.80
-28.04
-29.81
-31.23
-32.46
-33.55
-34.40
-34.67
-34.01
-32.32
-29.87
-27.33
-25.47
-24.77
-25.22
-26.39
-27.61
-28.32
-28.16
-26.88
-24.16
-19.68
-13.17
-4.83
4.50
13.41
20.34
24.15
24.49
21.97
17.87
13.65
10.47
8.86
8.69
9.48
10.65
11.83
13.02
14.39
16.17
18.42
20.94
23.44
25.55
27.09
28.04
28.52
28.69
28.65
28.36
27.66
26.41
24.61
22.49
20.48
18.95
18.08
17.75
17.60
17.23
16.39
14.98
13.00
10.46
7.30
3.45
-0.93
-5.39
-9.24
-11.76
-12.52
-11.59
-9.59
-7.59
-6.80
-8.19
-12.13
-18.25
-25.42
-32.13
-36.86
-38.53
-36.73
-31.73
-24.26
-15.26
-5.69
3.59
11.86
18.55
23.29
25.88
26.35
24.83
21.58
16.98
11.56
5.94
0.76
-3.52
-6.75
-9.12
-11.04
-13.02
-15.43
-18.46
-22.18
-26.50
-31.23
-36.08
-40.60
-44.28
-46.67
-47.53
-46.95
-45.30
-43.09
-40.75
-38.39
-35.79
-32.44
-27.75
-21.38
-13.41
-4.48
4.29
11.64
16.56
18.68
18.41
16.73
14.78
13.37
12.69
12.40
11.98
11.18
10.30
10.07
11.31
14.41
19.08
24.43
29.23
32.46
33.58
32.71
30.48
27.71
25.04
22.75
20.65
18.29
15.24
11.35
6.93
2.58
-1.05
-3.58
-5.07
-5.88
-6.52
-7.34
-8.44
-9.71
-11.03
-12.35
-13.75
-15.32
-17.04
-18.71
-20.04
-20.89
-21.37
-21.86
-22.85
-24.70
-27.43
-30.78
-34.29
-37.56
-40.40
-42.78
-44.84
-46.71
-48.52
-50.33
-52.24
-54.34
-56.70
-59.22
-61.63
-63.42
-63.97
-62.75
-59.41
-53.99
-46.88
-38.74
-30.37
-22.39
-15.17
-8.74
-2.87
2.79
8.58
14.71
21.20
27.97
34.84
41.70
48.56
55.51
62.68
70.12
77.75
85.30
92.42
98.73
103.85
107.44
109.25
109.27
107.80
105.54
103.32
101.81
101.08
100.49
98.91
95.25
88.99
80.53
70.98
61.73
53.77
47.35
41.92
36.43
29.85
21.47
11.12
-1.02
-14.46
-28.57
-42.54
-55.47
-66.49
-75.05
-81.16
-85.44
-88.80
-91.94
-94.96
-97.29
-97.97
-96.20
-91.76
-85.03
-76.75
-67.65
-58.18
-48.55
-38.88
-29.44
-20.58
-12.73
-6.17
-0.94
3.16
6.53
9.66
13.03
17.05
22.04
28.11
35.11
42.60
49.85
56.07
60.68
63.43
64.59
64.79
64.67
64.58
64.45
63.81
62.14
59.19
55.18
50.63
46.17
42.22
38.85
35.86
32.93
29.74
26.03
21.62
16.36
10.20
3.30
-3.80
-10.29
-15.18
-17.81
-18.14
-16.96
-15.82
-16.46
-20.16
-27.14
-36.43
-46.20
-54.44
-59.66
-61.22
-59.24
-54.20
-46.62
-36.94
-25.75
-13.97
-2.89
6.15
12.22
15.18
15.62
14.62
13.18
11.92
10.95
10.02
8.81
7.11
4.97
2.62
0.38
-1.45
-2.66
-3.13
-2.88
-1.97
-0.53
1.24
3.07
4.63
5.48
5.18
3.39
0.02
-4.60
-9.73
-14.33
-17.45
-18.48
-17.54
-15.38
-13.08
-11.69
-11.70
-12.95
-14.67
-15.87
-15.72
-13.83
-10.44
-6.25
-2.29
0.40
1.00
-0.86
-4.97
-10.53
-16.28
-20.85
-23.19
-22.91
-20.49
-17.05
-13.77
-11.41
-9.92
-8.68
-6.96
-4.55
-1.83
0.52
2.02
2.79
3.45
4.68
6.66
9.05
11.17
12.67
13.85
15.62
18.95
24.30
31.38
39.25
46.82
53.26
58.18
61.60
63.72
64.70
64.51
63.06
60.24
56.06
50.62
44.16
37.27
30.64
24.89
20.35
16.95
14.19
11.52
8.43
4.78
1.09
-1.99
-4.33
-6.59
-9.87
-15.12
-22.22
-30.00
-36.53
-39.43
-37.24
-30.31
-20.86
-11.77
-5.56
-2.97
-3.35
-5.10
-5.90
-4.08
0.55
6.88
13.59
19.81
26.00
32.72
36.31
34.02
25.89
14.90
4.61
-0.92
-2.22
-0.22
3.42
6.95
8.54
7.51
3.80
-2.28
-10.02
-18.77
-27.51
-36.17
-44.57
-51.47
-55.20
-54.87
-51.12
-45.85
-41.53
-39.85
-42.72
-50.73
-62.77
-76.72
-90.56
-102.84
-112.62
-119.34
-117.18
-103.27
-78.95
-48.92
-17.89
11.00
35.58
53.92
64.48
68.58
66.65
59.94
50.22
39.34
28.81
19.87
13.59
10.95
12.60
18.01
26.17
35.17
42.97
48.52
52.24
55.43
59.40
64.72
70.33
74.35
73.75
65.48
47.99
21.91
-10.56
-46.66
-83.31
-117.59
-140.78
-144.03
-125.54
-92.36
-54.41
-19.06
10.12
32.34
47.95
57.40
59.88
54.06
40.03
20.33
-0.80
-18.97
-30.92
-35.33
-32.89
-26.57
-20.28
-16.98
-17.49
-20.80
-24.85
-27.30
-26.36
-21.72
-14.23
-5.86
1.60
7.50
12.05
15.74
18.89
21.43
23.06
23.29
21.83
18.97
15.50
12.24
9.57
7.34
5.05
2.15
-1.68
-6.44
-11.67
-16.73
-21.07
-24.47
-27.04
-29.13
-30.61
-31.41
-31.44
-30.73
-29.48
-28.13
-27.17
-27.05
-27.99
-30.01
-32.99
-36.74
-40.88
-44.87
-47.92
-49.12
-47.69
-43.14
-35.56
-25.62
-14.39
-3.01
7.60
16.97
25.00
31.77
37.32
41.48
43.85
44.14
42.35
38.89
34.51
30.06
26.12
22.93
20.25
17.63
14.55
10.76
6.34
1.70
-2.49
-5.60
-7.23
-7.33
-6.29
-4.77
-3.59
-3.58
-5.37
-9.30
-15.22
-22.46
-29.97
-36.45
-40.82
-42.43
-41.32
-38.12
-33.89
-29.75
-26.65
-25.23
-25.63
-27.57
-30.27
-32.58
-33.20
-30.91
-24.98
-15.33
-2.63
11.83
26.41
39.45
49.58
55.95
58.40
57.39
54.03
49.71
45.84
43.46
43.03
44.39
46.90
49.65
51.75
52.50
51.55
48.93
45.08
40.71
36.61
33.44
31.50
30.68
30.51
30.29
29.31
26.93
22.76
16.73
9.13
0.62
-7.91
-15.45
-21.18
-24.61
-25.68
-24.66
-22.08
-18.55
-14.64
-10.78
-7.11
-3.52
0.31
4.75
9.94
15.66
21.28
25.93
28.81
29.37
27.52
23.67
18.54
13.07
8.21
4.84
3.54
4.52
7.48
11.62
15.90
19.23
20.86
20.45
18.14
14.37
9.78
5.02
0.65
-2.93
-5.57
-7.36
-8.64
-9.91
-11.76
-14.65
-18.79
-23.97
-29.51
-34.36
-37.27
-37.22
-33.70
-26.93
-17.81
-7.64
2.24
10.75
17.19
21.27
23.00
22.69
20.89
18.34
15.82
14.00
13.24
13.52
14.55
15.89
17.04
17.65
17.45
16.37
14.48
12.03
9.35
6.80
4.63
2.96
1.78
0.98
0.42
-0.09
-0.77
-1.85
-3.59
-6.14
-9.55
-13.68
-18.20
-22.64
-26.47
-29.19
-30.43
-29.90
-27.46
-23.08
-16.91
-9.36
-1.11
6.93
13.81
18.82
21.69
22.63
22.21
21.11
19.87
18.83
18.10
17.74
17.82
18.39
19.44
20.84
22.33
23.59
24.41
24.73
24.68
24.44
24.12
23.66
22.87
21.52
19.41
16.50
12.80
8.43
3.52
-1.71
-6.90
-11.56
-15.17
-17.37
-18.12
-17.78
-17.06
-16.79
-17.67
-20.06
-23.85
-28.48
-33.09
-36.71
-38.48
-37.83
-34.65
-29.27
-22.40
-15.02
-8.08
-2.35
1.82
4.56
6.36
7.88
9.69
12.03
14.70
17.19
18.94
19.56
19.04
17.72
16.12
14.70
13.74
13.28
13.20
13.34
13.48
13.39
12.76
11.22
8.54
4.74
0.23
-4.22
-7.74
-9.64
-9.71
-8.33
-6.33
-4.72
-4.35
-5.68
-8.69
-13.04
-18.21
-23.69
-29.02
-33.83
-37.75
-40.42
-41.59
-41.17
-39.27
-36.08
-31.76
-26.27
-19.47
-11.30
-2.00
7.63
16.40
22.97
26.35
26.24
23.18
18.28
12.91
8.24
5.01
3.44
3.30
4.02
4.90
5.19
4.31
2.03
-1.35
-5.00
-7.75
-8.43
-6.36
-1.73
4.43
10.44
14.61
15.75
13.58
8.71
2.34
-4.23
-9.94
-14.28
-17.29
-19.47
-21.56
-24.30
-28.15
-33.06
-38.26
-42.37
-43.72
-40.91
-33.39
-21.77
-7.76
6.33
18.31
26.68
30.90
31.39
29.11
25.20
20.66
16.25
12.51
9.73
8.01
7.28
7.28
7.72
8.28
8.73
8.90
8.76
8.36
7.83
7.30
6.84
6.35
5.55
4.08
1.70
-1.50
-5.05
-8.22
-10.35
-11.13
-10.75
-9.89
-9.35
-9.85
-11.72
-14.96
-19.22
-23.98
-28.55
-32.16
-33.94
-33.11
-29.22
-22.31
-13.02
-2.52
7.79
16.58
22.89
26.36
27.17
25.94
23.51
20.74
18.31
16.63
15.79
15.63
15.76
15.69
15.00
13.46
11.13
8.37
5.75
3.84
3.02
3.43
4.84
6.78
8.61
9.68
9.43
7.56
4.10
-0.60
-5.91
-11.06
-15.39
-18.48
-20.25
-20.97
-21.12
-21.23
-21.64
-22.45
-23.42
-24.07
-23.88
-22.39
-19.32
-14.67
-8.69
-1.86
5.15
11.54
16.53
19.45
19.94
18.03
14.21
9.29
4.24
0.01
-2.71
-3.65
-2.92
-1.00
1.45
3.77
5.43
6.12
5.72
4.29
2.01
-0.83
-3.83
-6.49
-8.39
-9.30
-9.35
-9.03
-9.03
-9.97
-12.16
-15.60
-19.99
-24.88
-29.67
-33.67
-36.10
-36.18
-33.39
-27.72
-19.79
-10.71
-1.77
5.95
11.78
15.55
17.44
17.87
17.40
16.60
15.94
15.71
15.87
16.12
16.02
15.17
13.42
10.88
7.94
5.13
2.98
1.92
2.14
3.55
5.77
8.19
10.09
10.83
10.01
7.54
3.72
-0.89
-5.60
-9.82
-13.14
-15.51
-17.09
-18.25
-19.39
-20.86
-22.87
-25.37
-28.06
-30.37
-31.54
-30.81
-27.68
-22.12
-14.64
-6.13
2.34
9.81
15.60
19.36
21.01
20.65
18.58
15.24
11.25
7.28
4.01
1.93
1.22
1.78
3.25
5.04
6.59
7.37
7.13
5.90
4.04
2.05
0.43
-0.54
-0.92
-1.06
-1.49
-2.65
-4.78
-7.85
-11.60
-15.71
-19.88
-23.92
-27.73
-31.22
-34.19
-36.31
-37.14
-36.29
-33.54
-29.00
-23.07
-16.34
-9.41
-2.75
3.35
8.79
13.54
17.54
20.70
22.88
24.04
24.24
23.60
22.32
20.50
18.25
15.71
13.19
11.11
10.00
10.21
11.76
14.27
17.05
19.29
20.35
19.87
17.83
14.51
10.38
5.96
1.74
-1.89
-4.72
-6.76
-8.23
-9.53
-11.13
-13.39
-16.48
-20.15
-23.72
-26.22
-26.62
-24.26
-19.06
-11.58
-2.88
5.86
13.65
19.85
24.12
26.32
26.43
24.56
21.06
16.51
11.75
7.61
4.69
3.26
3.16
3.98
5.18
6.26
6.92
6.98
6.37
5.15
3.43
1.44
-0.50
-2.04
-2.90
-3.06
-2.77
-2.56
-3.04
-4.74
-7.85
-12.23
-17.35
-22.49
-26.83
-29.56
-30.06
-28.01
-23.45
-16.81
-8.85
-0.50
7.33
13.92
18.78
21.70
22.72
22.05
20.08
17.29
14.16
11.09
8.37
6.11
4.31
2.92
1.90
1.27
1.06
1.30
1.90
2.67
3.33
3.57
3.20
2.19
0.69
-1.04
-2.73
-4.24
-5.54
-6.75
-8.02
-9.51
-11.34
-13.59
-16.21
-18.98
-21.42
-22.91
-22.76
-20.44
-15.84
-9.27
-1.52
6.46
13.78
19.89
24.59
28.03
30.39
31.76
32.05
31.10
28.87
25.64
21.97
18.54
15.88
14.23
13.46
13.25
13.28
13.37
13.43
13.46
13.43
13.23
12.71
11.76
10.34
8.48
6.29
3.90
1.45
-0.96
-3.28
-5.52
-7.75
-10.10
-12.70
-15.60
-18.69
-21.67
-24.02
-25.11
-24.40
-21.59
-16.79
-10.51
-3.48
3.50
9.77
14.88
18.61
20.91
21.88
21.73
20.79
19.43
17.96
16.53
15.18
13.88
12.66
11.66
11.02
10.87
11.18
11.82
12.57
13.23
13.66
13.77
13.53
12.89
11.82
10.31
8.45
6.38
4.32
2.47
0.90
-0.48
-1.85
-3.46
-5.48
-7.96
-10.84
-14.02
-17.31
-20.49
-23.23
-25.10
-25.58
-24.30
-21.13
-16.29
-10.35
-4.04
1.91
6.90
10.59
12.90
13.91
13.88
13.04
11.68
10.03
8.31
6.82
5.81
5.43
5.68
6.39
7.27
8.08
8.69
9.12
9.46
9.77
10.06
10.21
10.12
9.68
8.85
7.65
6.11
4.30
2.31
0.25
-1.79
-3.79
-5.76
-7.82
-10.03
-12.46
-15.04
-17.64
-19.97
-21.67
-22.32
-21.53
-19.05
-14.86
-9.21
-2.61
4.30
10.80
16.26
20.17
22.25
22.47
21.09
18.57
15.48
12.41
9.78
7.80
6.52
5.86
5.71
5.93
6.37
6.84
7.11
6.99
6.40
5.36
4.02
2.50
0.93
-0.70
-2.44
-4.38
-6.59
-9.09
-11.82
-14.64
-17.38
-19.88
-22.05
-23.96
-25.79
-27.75
-29.96
-32.31
-34.46
-35.83
-35.88
-34.23
-30.83
-25.95
-20.09
-13.81
-7.57
-1.73
3.44
7.70
10.80
12.62
13.22
12.88
12.09
11.31
10.85
10.75
10.89
11.07
11.22
11.37
11.61
12.05
12.66
13.37
14.01
14.42
14.41
13.84
12.66
10.94
8.93
6.90
5.08
3.56
2.26
0.99
-0.42
-2.06
-3.91
-5.84
-7.77
-9.66
-11.52
-13.40
-15.30
-17.22
-19.16
-21.11
-23.01
-24.72
-25.98
-26.41
-25.67
-23.49
-19.90
-15.12
-9.61
-3.90
1.48
6.15
9.85
12.45
13.93
14.37
13.94
12.86
11.38
9.81
8.42
7.47
7.16
7.53
8.54
9.98
11.57
13.05
14.16
14.78
14.89
14.56
13.91
13.08
12.10
10.97
9.67
8.18
6.56
4.88
3.25
1.71
0.20
-1.35
-3.03
-4.81
-6.59
-8.27
-9.79
-11.17
-12.53
-13.97
-15.56
-17.27
-19.04
-20.79
-22.58
-24.49
-26.62
-28.92
-31.16
-32.88
-33.57
-32.81
-30.39
-26.43
-21.31
-15.59
-9.86
-4.67
-0.35
2.95
5.24
6.63
7.28
7.28
6.69
5.60
4.19
2.72
1.48
0.69
0.43
0.63
1.13
1.79
2.57
3.48
4.54
5.70
6.84
7.77
8.32
8.38
7.93
7.05
5.90
4.68
3.49
2.37
1.27
0.11
-1.14
-2.40
-3.51
-4.37
-4.95
-5.42
-6.03
-7.04
-8.60
-10.67
-13.03
-15.32
-17.07
-17.83
-17.22
-15.07
-11.47
-6.77
-1.52
3.71
8.44
12.34
15.22
17.01
17.67
17.20
15.70
13.39
10.68
8.03
5.90
4.53
3.94
3.91
4.19
4.55
4.95
5.40
5.93
6.46
6.78
6.69
6.04
4.87
3.32
1.59
-0.17
-1.89
-3.54
-5.12
-6.63
-8.10
-9.61
-11.28
-13.24
-15.54
-18.10
-20.68
-22.87
-24.20
-24.22
-22.69
-19.59
-15.17
-9.88
-4.23
1.30
6.28
10.41
13.42
15.24
15.85
15.44
14.25
12.59
10.74
8.92
7.29
5.98
5.10
4.74
4.89
5.47
6.28
7.08
7.67
7.94
7.91
7.72
7.46
7.17
6.75
6.04
4.91
3.32
1.38
-0.76
-2.94
-5.12
-7.31
-9.54
-11.81
-14.04
-16.22
-18.34
-20.45
-22.59
-24.58
-26.07
-26.57
-25.59
-22.82
-18.35
-12.55
-6.06
0.46
6.46
11.55
15.53
18.31
19.86
20.22
19.52
18.01
16.06
14.09
12.51
11.54
11.21
11.37
11.75
12.18
12.56
12.87
13.16
13.43
13.59
13.54
13.18
12.49
11.52
10.34
9.03
7.65
6.21
4.67
2.99
1.13
-0.91
-3.11
-5.37
-7.55
-9.55
-11.37
-13.11
-15.00
-17.23
-19.92
-22.91
-25.82
-28.07
-29.04
-28.26
-25.54
-21.05
-15.24
-8.74
-2.26
3.62
8.41
11.87
13.92
14.66
14.30
13.22
11.79
10.39
9.29
8.56
8.16
7.95
7.82
7.79
7.96
8.45
9.28
10.30
11.28
11.93
12.11
11.80
11.12
10.18
9.11
7.91
6.57
5.06
3.37
1.59
-0.20
-1.91
-3.47
-4.89
-6.21
-7.51
-8.85
-10.30
-11.92
-13.71
-15.67
-17.71
-19.63
-21.13
-21.84
-21.39
-19.56
-16.32
-11.90
-6.71
-1.28
3.89
8.45
12.24
15.17
17.26
18.51
18.94
18.55
17.44
15.78
13.90
12.14
10.83
10.19
10.24
10.87
11.87
13.01
14.11
15.05
15.77
16.18
16.17
15.62
14.47
12.78
10.70
8.48
6.30
4.30
2.49
0.86
-0.68
-2.21
-3.84
-5.66
-7.76
-10.12
-12.65
-15.13
-17.27
-18.72
-19.15
-18.31
-16.12
-12.69
-8.31
-3.47
1.38
5.82
9.57
12.46
14.34
15.15
14.82
13.48
11.41
9.08
6.96
5.44
4.62
4.43
4.61
4.92
5.18
5.38
5.57
5.81
6.10
6.28
6.15
5.54
4.38
2.75
0.85
-1.14
-3.10
-5.00
-6.85
-8.68
-10.47
-12.26
-14.12
-16.19
-18.53
-21.04
-23.42
-25.16
-25.77
-24.86
-22.37
-18.51
-13.72
-8.52
-3.41
1.17
4.92
7.62
9.23
9.82
9.61
8.88
7.92
6.94
6.09
5.39
4.86
4.51
4.39
4.56
4.99
5.61
6.25
6.71
6.85
6.64
6.16
5.57
5.00
4.51
4.04
3.45
2.58
1.34
-0.32
-2.29
-4.42
-6.52
-8.43
-10.08
-11.50
-12.83
-14.28
-16.04
-18.16
-20.45
-22.58
-24.04
-24.34
-23.13
-20.34
-16.17
-11.06
-5.55
-0.21
4.54
8.44
11.37
13.32
14.35
14.52
13.96
12.89
11.59
10.34
9.33
8.60
8.14
7.95
8.08
8.60
9.56
10.80
12.04
12.88
12.98
12.23
10.74
8.83
6.91
5.27
4.07
3.23
2.53
1.69
0.51
-1.09
-2.97
-4.92
-6.77
-8.48
-10.19
-12.09
-14.34
-16.89
-19.50
-21.82
-23.51
-24.30
-24.08
-22.79
-20.47
-17.23
-13.24
-8.76
-4.12
0.34
4.36
7.73
10.32
12.06
12.92
12.96
12.34
11.32
10.18
9.21
8.59
8.39
8.54
8.97
9.56
10.25
10.97
11.65
12.22
12.51
12.36
11.63
10.32
8.59
6.72
5.00
3.59
2.50
1.63
0.83
0.04
-0.76
-1.56
-2.40
-3.42
-4.72
-6.38
-8.34
-10.45
-12.52
-14.36
-15.77
-16.54
-16.40
-15.12
-12.59
-8.92
-4.45
0.33
4.90
8.85
11.93
14.06
15.24
15.49
14.89
13.56
11.78
9.87
8.22
7.10
6.61
6.60
6.80
6.92
6.82
6.54
6.22
6.01
5.93
5.86
5.58
4.89
3.76
2.31
0.76
-0.70
-1.99
-3.15
-4.28
-5.44
-6.63
-7.79
-8.92
-10.14
-11.65
-13.60
-15.96
-18.47
-20.65
-21.97
-22.01
-20.59
-17.79
-13.88
-9.24
-4.33
0.42
4.58
7.81
9.93
10.93
10.94
10.26
9.16
7.95
6.84
6.05
5.67
5.70
5.98
6.23
6.17
5.66
4.79
3.80
3.01
2.58
2.51
2.57
2.50
2.12
1.34
0.22
-1.18
-2.79
-4.59
-6.60
-8.86
-11.40
-14.18
-17.07
-19.81
-22.02
-23.34
-23.57
-22.80
-21.47
-20.21
-19.65
-20.20
-21.88
-24.28
-26.63
-28.00
-27.48
-24.44
-18.72
-10.69
-1.27
8.36
16.96
23.59
27.71
29.22
28.34
25.53
21.42
16.86
12.83
10.31
9.98
11.96
15.63
19.82
23.18
24.67
23.86
21.01
16.84
12.21
7.85
4.28
1.81
0.60
0.67
1.75
3.27
4.41
4.29
2.30
-1.62
-6.96
-12.77
-17.98
-21.82
-23.95
-24.51
-23.94
-22.74
-21.31
-19.87
-18.52
-17.24
-16.03
-14.88
-13.69
-12.26
-10.25
-7.38
-3.51
1.18
6.12
10.45
13.27
13.88
12.03
7.95
2.41
-3.50
-8.53
-11.53
-11.76
-9.01
-3.84
2.62
8.86
13.50
15.62
15.03
12.21
8.15
3.98
0.77
-0.72
-0.16
2.23
5.70
9.11
11.30
11.46
9.44
5.83
1.65
-2.05
-4.69
-6.21
-7.04
-7.72
-8.52
-9.35
-9.76
-9.19
-7.22
-3.72
1.14
6.92
13.04
18.89
23.89
27.64
29.98
30.97
30.93
30.29
29.45
28.63
27.81
26.78
25.24
22.97
20.06
16.91
14.18
12.54
12.40
13.65
15.65
17.43
17.98
16.65
13.32
8.42
2.73
-2.84
-7.52
-10.78
-12.45
-12.65
-11.84
-10.66
-9.90
-10.22
-12.02
-15.31
-19.61
-24.10
-27.74
-29.52
-28.73
-25.12
-19.01
-11.19
-2.73
5.23
11.75
16.25
18.59
19.05
18.20
16.79
15.52
14.91
15.23
16.53
18.59
21.04
23.37
25.06
25.62
24.76
22.42
18.87
14.59
10.16
6.11
2.76
0.16
-1.87
-3.61
-5.39
-7.42
-9.81
-12.48
-15.34
-18.30
-21.31
-24.35
-27.33
-30.06
-32.23
-33.51
-33.54
-32.15
-29.40
-25.57
-21.01
-16.18
-11.49
-7.28
-3.79
-1.14
0.66
1.51
1.44
0.60
-0.77
-2.42
-4.13
-5.78
-7.35
-8.93
-10.78
-12.99
-15.33
-17.40
-18.88
-19.76
-20.37
-21.16
-22.57
-25.00
-28.39
-32.13
-35.55
-38.27
-40.35
-42.19
-44.02
-45.87
-47.85
-49.59
-50.36
-49.36
-46.12
-40.64
-33.42
-25.08
-14.10
-1.04
11.87
22.00
28.12
30.80
31.68
32.28
33.79
36.40
39.08
40.45
39.58
36.19
30.81
25.28
20.43
17.07
15.53
15.18
14.87
13.20
8.67
0.21
-12.32
-28.15
-45.50
-62.51
-77.98
-91.43
-101.88
-108.53
-110.83
-108.47
-101.65
-91.01
-77.74
-63.36
-49.05
-35.29
-21.94
-8.48
5.68
20.67
36.32
52.03
66.98
80.38
91.70
100.69
107.39
112.09
115.07
116.62
116.94
116.21
114.60
112.20
108.98
104.82
99.64
93.51
86.71
79.65
72.68
65.98
59.52
53.13
46.73
40.42
34.49
29.27
24.89
21.27
18.05
14.88
11.52
7.98
4.57
1.70
-0.32
-1.39
-1.75
-1.77
-1.83
-2.13
-2.70
-3.43
-4.17
-4.84
-5.36
-5.68
-5.74
-5.42
-4.65
-3.28
-1.24
1.43
4.58
7.86
10.93
13.49
15.45
16.87
18.01
18.99
19.84
20.46
20.76
20.70
20.28
19.45
17.98
15.67
12.35
8.04
3.05
-2.15
-7.11
-11.55
-15.54
-19.53
-23.61
-27.94
-32.49
-37.03
-41.28
-45.04
-48.34
-51.43
-55.11
-59.22
-63.78
-68.56
-73.10
-76.94
-79.66
-80.96
-80.48
-78.41
-73.47
-65.27
-54.05
-40.84
-27.19
-14.52
-3.77
4.77
10.14
13.26
13.93
11.77
6.63
-0.97
-9.91
-18.86
-21.57
-24.55
-27.04
-29.40
-31.92
-34.59
-37.07
-38.85
-39.43
-38.39
-36.45
-32.26
-25.52
-16.27
-5.00
7.33
19.10
27.79
32.22
29.12
18.82
5.04
-5.78
-8.23
-1.27
11.02
21.38
22.93
11.67
-10.24
-37.44
-63.65
-83.61
-94.79
-97.58
-94.57
-89.19
-85.97
-84.44
-82.68
-78.13
-67.95
-50.37
-25.52
4.51
36.41
66.32
90.86
107.14
112.91
108.31
96.01
80.81
68.15
62.52
66.36
77.29
92.20
102.81
103.24
93.67
80.99
74.24
78.46
92.21
108.80
120.98
123.71
116.93
104.31
90.42
78.04
67.32
58.88
49.98
40.50
31.83
26.20
24.80
26.76
29.38
29.54
25.46
17.13
6.87
-2.80
-9.91
-14.13
-16.80
-19.97
-25.52
-34.06
-45.02
-56.49
-66.63
-74.12
-78.51
-80.09
-79.57
-77.67
-74.89
-71.67
-68.09
-64.25
-60.21
-55.98
-51.63
-47.44
-43.94
-41.71
-41.30
-42.73
-45.57
-48.90
-51.66
-52.86
-51.94
-48.99
-44.56
-39.36
-33.65
-26.98
-18.14
-5.75
10.91
31.17
52.68
71.98
85.54
91.06
88.22
78.52
64.40
48.02
30.42
11.53
-9.00
-30.77
-51.99
-69.67
-80.62
-82.61
-75.23
-59.96
-39.59
-17.25
4.37
23.47
39.09
50.88
58.78
62.83
63.17
60.09
54.16
46.35
37.87
29.98
23.63
19.29
16.94
16.30
17.09
19.18
22.50
26.91
32.07
37.52
42.83
47.90
52.99
58.60
65.14
72.64
80.74
88.82
96.40
103.29
109.58
115.32
120.31
123.99
125.73
125.27
122.95
119.69
116.49
113.92
111.74
108.93
104.10
96.03
83.98
67.80
47.71
24.11
-2.47
-31.38
-61.64
-91.92
-120.55
-145.81
-166.31
-181.20
-190.35
-194.28
-193.91
-190.42
-185.06
-179.08
-173.60
-169.24
-165.94
-162.83
-158.54
-151.87
-142.30
-130.38
-117.44
-104.99
-94.38
-86.09
-79.62
-73.87
-67.72
-60.33
-51.13
-39.87
-26.59
-12.08
2.41
15.47
25.73
32.14
34.32
32.79
29.10
25.47
23.60
24.75
29.59
37.93
48.59
59.94
70.65
80.23
89.04
96.00
100.31
102.25
102.99
103.51
104.30
105.53
107.33
109.79
109.28
103.07
91.51
77.24
62.20
46.34
28.24
6.72
-17.97
-49.67
-89.28
-132.34
-171.40
-201.29
-221.24
-233.96
-242.86
-250.51
-265.78
-294.44
-335.14
-381.17
-426.45
-468.06
-506.09
-540.73
-524.61
-434.00
-285.77
-124.47
14.22
117.66
188.42
232.83
258.29
272.29
274.15
262.16
241.41
219.73
201.88
188.23
174.51
156.68
133.22
99.56
54.29
1.28
-45.86
-76.43
-74.87
-39.60
16.42
73.73
114.50
132.13
131.31
122.17
112.52
105.48
98.80
89.97
79.01
66.77
54.91
45.76
41.25
40.75
42.21
42.06
38.45
32.27
25.85
21.65
22.27
29.03
41.00
55.93
70.58
82.88
92.62
101.15
109.85
117.64
125.73
134.59
144.03
153.11
159.91
161.61
157.09
142.19
115.66
79.94
40.24
2.69
-27.51
-48.09
-59.80
-65.13
-67.12
-67.31
-66.08
-63.82
-61.85
-61.30
-62.99
-66.13
-68.26
-66.53
-58.50
-43.63
-19.57
12.11
48.75
86.31
121.66
153.14
180.00
202.40
219.54
230.67
234.69
230.94
216.76
191.34
156.91
117.44
77.12
36.54
-4.99
-48.49
-94.02
-144.37
-199.82
-257.47
-313.26
-363.14
-407.34
-445.81
-477.24
-500.21
-519.51
-539.32
-560.41
-580.47
-594.44
-600.88
-597.91
-582.97
-524.61
-417.11
-282.96
-156.25
-69.04
-11.07
29.82
62.84
95.59
131.25
165.38
194.77
221.01
248.60
283.58
325.16
370.13
416.95
462.34
497.69
516.59
518.72
507.76
490.59
469.34
444.70
420.91
401.11
384.33
369.42
357.18
347.44
340.18
331.02
293.91
219.59
119.80
18.19
-65.95
-121.62
-159.55
-189.57
-219.83
-255.50
-293.08
-330.29
-368.13
-408.72
-441.00
-451.84
-431.93
-384.19
-320.23
-250.93
-186.02
-132.40
-92.99
-65.62
-47.55
-36.17
-29.55
-25.14
-17.50
-1.43
26.59
67.95
116.98
165.45
204.98
228.59
233.40
222.09
200.36
174.45
148.95
125.77
104.01
81.73
57.59
32.14
7.95
-11.93
-25.26
-31.29
-30.81
-25.80
-18.85
-12.49
-8.43
-7.45
-9.53
-14.11
-20.43
-27.87
-35.79
-43.66
-50.85
-56.63
-60.41
-61.92
-61.23
-58.64
-54.61
-49.46
-43.45
-36.80
-29.73
-22.40
-14.81
-6.73
2.25
12.46
24.24
37.92
53.76
71.77
91.70
112.88
134.23
154.35
171.36
183.76
190.89
192.87
190.17
183.33
172.83
158.88
141.56
120.00
93.90
64.18
33.09
3.34
-22.71
-43.67
-59.62
-71.95
-84.17
-99.13
-117.80
-139.07
-160.95
-181.46
-198.94
-212.16
-220.24
-224.51
-226.23
-225.79
-222.59
-216.00
-205.65
-191.34
-173.14
-141.41
-94.38
-39.63
10.87
49.85
76.88
95.58
110.47
123.21
133.84
140.42
142.47
140.00
135.61
132.07
130.92
131.90
133.19
132.65
127.48
116.76
101.28
83.93
67.84
54.91
45.01
36.05
25.28
9.73
-12.00
-40.46
-73.78
-107.87
-137.09
-155.98
-160.89
-151.11
-129.76
-102.96
-79.86
-68.00
-70.42
-85.14
-107.15
-131.07
-152.96
-170.91
-173.70
-156.16
-122.58
-83.61
-47.73
-16.91
10.96
38.42
66.24
92.68
112.63
121.87
119.92
110.36
98.93
90.91
87.85
88.37
88.75
83.32
68.44
45.01
17.92
-4.90
-17.33
-17.61
-8.22
5.21
15.83
17.95
11.45
-1.73
-19.29
-39.72
-61.27
-80.39
-92.28
-93.35
-82.78
-64.31
-46.22
-38.11
-45.74
-70.75
-107.75
-146.51
-176.65
-190.29
-184.81
-162.36
-126.60
-80.37
-25.95
33.15
89.96
134.18
156.95
152.46
120.21
66.70
4.84
-49.88
-83.99
-90.00
-67.18
-17.85
51.68
131.81
211.53
280.65
331.28
358.75
362.18
329.59
262.50
176.82
93.83
27.23
-20.64
-53.49
-75.28
-88.34
-94.32
-93.53
-88.64
-84.28
-84.10
-88.73
-96.07
-103.27
-108.83
-112.59
-112.78
-107.28
-94.45
-73.68
-45.50
-11.71
25.01
59.36
86.41
104.60
114.91
119.37
119.86
117.88
114.21
108.83
100.99
89.55
74.20
55.48
34.13
11.21
-11.39
-31.24
-47.18
-56.77
-59.66
-59.03
-59.88
-66.51
-80.26
-98.97
-118.65
-135.35
-146.47
-151.35
-152.08
-148.26
-139.17
-124.62
-105.39
-83.72
-62.59
-44.60
-31.38
-23.20
-19.01
-17.70
-20.67
-28.78
-42.16
-59.41
-77.32
-91.88
-99.36
-97.29
-85.41
-65.33
-39.32
-9.83
21.04
51.52
79.89
104.47
124.04
137.84
146.07
150.11
151.90
153.26
155.19
157.54
159.06
158.26
154.08
146.53
136.71
125.98
115.11
103.64
90.23
73.58
53.50
31.34
9.56
-9.23
-23.43
-32.97
-38.97
-42.77
-45.20
-46.37
-45.99
-43.99
-40.99
-38.38
-37.94
-41.23
-48.90
-60.66
-75.41
-91.68
-108.10
-123.75
-138.22
-151.57
-163.95
-174.99
-183.96
-189.87
-191.60
-188.08
-178.49
-162.69
-141.35
-115.97
-87.79
-58.41
-29.56
-2.84
20.68
40.72
57.58
71.88
84.35
97.42
112.69
130.10
147.70
162.81
173.22
177.77
176.39
169.94
162.44
157.41
156.56
159.73
166.31
176.25
189.64
205.82
222.76
240.80
259.16
275.79
288.09
294.70
296.54
295.83
294.76
273.52
222.37
146.11
62.27
-12.05
-69.83
-113.49
-149.23
-181.98
-212.95
-236.57
-247.15
-242.84
-226.99
-205.67
-184.26
-165.51
-149.63
-135.71
-120.74
-103.86
-87.00
-73.55
-65.67
-62.68
-61.89
-60.52
-57.29
-51.20
-42.92
-34.33
-27.54
-23.68
-22.32
-22.17
-21.92
-20.93
-18.47
-14.46
-9.50
-4.60
-0.63
2.06
3.52
4.02
3.79
3.30
2.91
2.79
3.08
3.42
3.65
3.57
2.94
1.50
-0.92
-4.15
-7.75
-11.08
-13.54
-14.72
-14.62
-13.56
-12.08
-10.65
-9.49
-8.59
-7.77
-6.96
-6.11
-5.23
-4.29
-3.31
-2.36
-1.54
-1.01
-0.81
-0.82
-0.72
-0.10
1.32
3.38
5.54
7.12
7.67
7.15
5.88
4.38
3.24
2.96
3.65
4.90
6.32
7.70
9.00
10.10
10.76
10.82
11.34
12.97
15.53
18.87
23.11
28.21
33.42
37.41
38.78
36.71
31.12
21.54
8.52
-6.21
-20.47
-32.90
-43.16
-51.59
-58.52
-64.06
-69.72
-76.50
-84.38
-92.87
-102.00
-112.04
-122.96
-133.78
-132.22
-111.95
-76.45
-35.66
1.56
29.99
47.54
54.12
51.74
44.00
33.48
22.85
14.77
11.10
10.64
12.96
17.75
25.30
35.94
48.04
59.27
67.58
71.55
69.75
61.65
47.92
30.35
10.84
-9.56
-29.70
-48.07
-59.31
-59.67
-49.40
-32.79
-14.85
1.09
13.47
22.23
28.26
32.42
34.42
33.50
29.11
21.63
12.29
2.48
-6.57
-13.98
-19.51
-23.71
-27.12
-29.80
-31.12
-30.35
-27.23
-22.34
-16.93
-12.62
-10.93
-12.55
-16.91
-22.41
-27.19
-29.78
-30.04
-27.97
-24.30
-20.00
-15.92
-12.45
-9.55
-6.99
-4.46
-1.81
0.97
3.57
5.58
6.59
6.37
4.93
2.39
-1.05
-5.16
-9.67
-14.33
-18.78
-22.67
-25.78
-28.14
-30.04
-31.78
-33.65
-35.66
-37.55
-38.76
-38.62
-36.41
-31.54
-24.36
-15.43
-5.55
4.34
13.36
20.91
26.75
30.91
33.52
34.65
34.32
32.48
29.21
24.77
19.72
14.66
10.11
6.32
3.20
0.58
-1.73
-3.77
-5.44
-6.60
-7.22
-7.42
-7.45
-7.55
-7.75
-7.92
-7.79
-7.21
-6.25
-5.31
-4.92
-5.54
-7.29
-9.81
-12.34
-13.98
-13.87
-11.41
-6.42
0.93
10.04
19.99
29.72
38.17
44.49
48.20
49.23
47.77
44.24
39.15
33.13
26.80
20.86
15.88
12.28
10.22
9.54
9.91
10.92
12.10
13.13
13.80
14.05
13.91
13.49
12.85
11.99
10.78
9.01
6.39
2.70
-2.14
-7.95
-14.27
-20.39
-25.49
-28.79
-29.65
-27.66
-22.75
-15.26
-5.92
4.25
14.11
22.61
28.96
32.78
34.18
33.62
31.77
29.34
26.98
25.15
24.05
23.57
23.48
23.67
24.22
25.33
27.17
29.78
32.99
36.38
39.39
41.45
42.59
43.02
42.94
42.37
41.24
39.51
37.26
34.52
31.27
28.19
25.82
24.30
23.37
22.75
22.52
23.08
24.70
27.23
31.32
37.07
43.68
49.50
52.87
52.89
49.59
43.74
36.48
30.84
29.64
34.37
44.75
59.38
76.75
95.72
115.49
124.89
116.39
89.43
51.31
11.71
-22.93
-50.38
-70.98
-86.07
-97.07
-103.59
-105.22
-102.46
-97.05
-91.20
-86.58
-83.91
-83.13
-83.72
-83.67
-81.20
-75.59
-67.55
-58.54
-49.94
-42.48
-36.37
-31.62
-27.40
-23.07
-18.59
-14.54
-11.39
-9.68
-9.41
-10.41
-12.47
-15.02
-17.51
-19.47
-20.61
-20.71
-19.70
-17.66
-15.01
-12.43
-10.49
-9.60
-9.80
-10.76
-11.95
-12.79
-12.75
-11.55
-9.14
-5.78
-2.14
0.90
2.39
1.79
-0.74
-4.30
-7.66
-9.92
-10.49
-9.82
-9.06
-9.46
-11.48
-14.53
-17.31
-18.60
-17.91
-15.66
-12.79
-10.10
-7.83
-5.68
-3.22
-0.34
2.57
5.17
7.02
8.08
8.82
9.71
10.92
12.37
13.79
14.98
15.99
16.93
18.15
19.96
22.41
25.26
28.11
30.61
32.63
34.26
35.74
37.34
39.28
41.61
44.31
47.29
50.39
53.41
56.12
58.32
59.99
61.22
62.15
62.80
63.11
62.92
62.14
60.85
59.29
57.77
56.41
55.03
53.24
50.67
47.11
42.66
37.67
32.50
27.43
22.54
17.74
12.91
8.05
3.23
-1.48
-6.04
-10.51
-14.89
-19.11
-23.05
-26.51
-29.39
-31.66
-33.37
-34.59
-35.42
-36.02
-36.68
-37.75
-39.52
-42.10
-45.21
-48.23
-50.44
-51.22
-50.39
-48.24
-45.45
-42.77
-40.77
-39.70
-39.41
-39.60
-39.96
-40.33
-40.67
-41.05
-41.44
-41.71
-41.63
-41.00
-39.79
-38.08
-36.04
-33.77
-31.27
-28.51
-25.48
-22.34
-19.39
-16.98
-15.31
-14.37
-13.90
-13.55
-13.03
-12.19
-11.03
-9.65
-8.17
-6.66
-5.23
-3.98
-3.03
-2.42
-2.18
-2.23
-2.44
-2.63
-2.63
-2.33
-1.71
-0.87
-0.04
0.55
0.75
0.57
0.15
-0.28
-0.56
-0.64
-0.61
-0.59
-0.66
-0.86
-1.14
-1.44
-1.78
-2.20
-2.79
-3.66
-4.78
-6.11
-7.50
-8.82
-10.01
-11.06
-12.00
-12.77
-13.23
-13.14
-12.34
-10.81
-8.75
-6.45
-4.21
-2.22
-0.49
0.99
2.26
3.25
3.89
4.12
3.93
3.41
2.63
1.72
0.80
-0.01
-0.59
-0.85
-0.76
-0.38
0.20
0.85
1.44
1.83
1.89
1.54
0.70
-0.58
-2.20
-3.98
-5.78
-7.47
-9.06
-10.64
-12.33
-14.22
-16.26
-18.26
-19.80
-20.44
-19.79
-17.70
-14.30
-10.02
-5.39
-0.97
2.84
5.89
8.24
10.05
11.46
12.51
13.12
13.17
12.65
11.71
10.67
9.86
9.47
9.46
9.61
9.62
9.32
8.76
8.11
7.58
7.21
6.87
6.32
5.37
3.92
2.06
-0.07
-2.26
-4.39
-6.37
-8.19
-9.87
-11.48
-13.11
-14.86
-16.81
-19.01
-21.42
-23.93
-26.33
-28.29
-29.38
-29.14
-27.19
-23.46
-18.19
-11.97
-5.56
0.34
5.27
9.01
11.58
13.15
13.87
13.90
13.41
12.60
11.68
10.88
10.36
10.18
10.32
10.64
11.00
11.23
11.28
11.09
10.72
10.25
9.69
9.04
8.20
7.04
5.49
3.60
1.54
-0.47
-2.28
-3.87
-5.39
-7.04
-9.00
-11.32
-13.92
-16.63
-19.29
-21.80
-24.05
-25.81
-26.69
-26.24
-24.12
-20.25
-14.92
-8.74
-2.42
3.41
8.38
12.27
15.07
16.78
17.47
17.23
16.28
14.88
13.39
12.14
11.34
11.08
11.31
11.85
12.41
12.72
12.63
12.14
11.45
10.75
10.17
9.66
9.07
8.19
6.93
5.33
3.53
1.64
-0.31
-2.43
-4.84
-7.64
-10.74
-13.98
-17.14
-20.02
-22.47
-24.26
-25.13
-24.73
-22.75
-19.06
-13.85
-7.65
-1.19
4.84
9.90
13.83
16.67
18.58
19.67
19.99
19.57
18.51
17.07
15.58
14.38
13.63
13.33
13.30
13.36
13.34
13.23
13.03
12.75
12.36
11.76
10.90
9.75
8.36
6.81
5.17
3.49
1.72
-0.19
-2.25
-4.46
-6.76
-9.04
-11.22
-13.24
-15.16
-17.05
-19.04
-21.25
-23.77
-26.55
-29.36
-31.84
-33.44
-33.63
-31.97
-28.32
-22.89
-16.16
-8.84
-1.64
4.88
10.39
14.77
18.00
20.13
21.19
21.24
20.41
18.99
17.32
15.76
14.55
13.71
13.14
12.70
12.34
12.16
12.35
12.99
13.96
14.93
15.45
15.17
13.95
11.92
9.40
6.74
4.25
2.06
0.21
-1.38
-2.85
-4.32
-5.87
-7.48
-9.10
-10.65
-12.18
-13.80
-15.70
-18.07
-20.91
-24.06
-27.18
-29.81
-31.44
-31.63
-30.11
-26.80
-21.92
-15.87
-9.25
-2.61
3.53
8.82
13.04
16.05
17.81
18.39
17.98
16.89
15.42
13.88
12.48
11.39
10.77
10.73
11.33
12.44
13.77
14.96
15.68
15.78
15.35
14.63
13.80
12.93
11.91
10.54
8.69
6.33
3.64
0.86
-1.80
-4.21
-6.41
-8.47
-10.50
-12.58
-14.75
-17.04
-19.48
-22.03
-24.49
-26.40
-27.17
-26.21
-23.19
-18.25
-11.97
-5.18
1.30
6.92
11.51
15.13
17.93
19.92
21.00
20.98
19.86
17.79
15.25
12.81
10.99
10.11
10.15
10.87
11.86
12.77
13.35
13.53
13.35
12.88
12.21
11.39
10.44
9.35
8.04
6.45
4.50
2.22
-0.31
-2.94
-5.49
-7.86
-10.04
-12.11
-14.19
-16.39
-18.76
-21.22
-23.46
-25.05
-25.40
-23.98
-20.57
-15.40
-9.22
-3.11
1.82
4.79
5.49
4.09
1.10
-2.84
-7.18
-11.45
-15.29
-18.43
-20.67
-21.89
-22.03
-21.02
-18.72
-14.97
-9.61
-2.66
5.55
14.43
23.28
31.49
38.70
44.75
49.59
53.08
55.04
55.35
54.07
51.55
48.42
45.23
42.35
39.77
37.24
34.48
31.36
28.03
24.79
21.91
19.52
17.52
15.67
13.72
11.55
9.22
6.92
4.88
3.25
2.05
1.20
0.54
-0.04
-0.58
-1.08
-1.53
-2.04
-2.72
-3.69
-4.97
-6.43
-7.91
-9.30
-10.61
-11.84
-13.08
-14.41
-15.86
-17.35
-18.74
-19.88
-20.79
-21.54
-22.15
-22.61
-22.92
-23.08
-23.14
-23.21
-23.40
-24.04
-25.23
-26.77
-28.35
-29.77
-31.14
-32.75
-34.97
-38.06
-42.52
-48.17
-53.98
-58.70
-61.66
-63.00
-63.49
-64.03
-65.33
-68.69
-74.07
-79.88
-84.13
-85.79
-85.15
-83.36
-81.83
-81.88
-86.16
-95.45
-107.77
-119.55
-127.53
-129.45
-124.14
-111.69
-93.57
-74.63
-58.75
-47.06
-38.96
-33.93
-31.80
-32.31
-34.95
-23.66
5.55
42.20
72.33
90.40
98.85
103.04
107.74
115.37
125.59
133.95
136.90
134.12
127.57
119.04
109.38
98.69
87.51
75.57
61.96
47.65
35.27
27.18
23.38
22.05
21.02
19.11
16.58
13.89
12.53
14.41
21.10
30.82
40.74
48.28
52.15
52.09
48.02
40.71
31.48
22.36
15.04
10.83
10.13
12.38
16.14
19.43
22.10
22.48
20.02
14.69
7.11
-1.80
-11.04
-19.86
-27.82
-34.45
-39.71
-43.31
-44.96
-44.26
-40.86
-34.50
-24.94
-14.23
-3.89
4.61
10.45
13.42
13.85
12.36
9.74
6.85
4.51
3.84
5.41
9.23
14.33
19.06
21.59
20.73
16.37
9.47
1.82
-5.02
-10.14
-13.46
-15.40
-16.42
-16.67
-15.98
-14.12
-10.91
-6.53
-1.45
3.82
8.94
13.82
18.59
23.38
28.11
32.59
36.44
39.36
41.22
42.11
42.33
42.14
41.71
41.01
39.94
38.35
36.21
33.56
30.49
27.14
23.61
20.01
16.47
13.14
10.18
7.68
5.67
4.04
2.61
1.14
-0.55
-2.55
-4.83
-7.26
-9.67
-11.90
-13.82
-15.31
-16.33
-16.96
-17.40
-17.96
-18.93
-20.46
-22.43
-24.57
-26.52
-28.01
-28.96
-29.43
-29.56
-29.43
-29.16
-28.82
-28.50
-28.14
-27.45
-25.91
-22.96
-18.18
-11.66
-3.96
3.93
10.91
16.10
19.03
19.71
18.55
16.13
13.14
10.25
8.20
7.58
8.51
10.54
12.70
13.86
13.22
10.63
6.71
2.55
-0.82
-2.93
-3.85
-3.92
-3.34
-2.04
0.24
3.71
8.31
13.73
19.24
24.06
27.94
31.16
34.26
37.63
41.40
45.48
49.63
53.07
55.11
56.01
57.02
59.77
65.39
74.04
84.77
95.51
102.81
103.27
95.58
81.03
62.78
44.23
28.10
15.77
7.09
-0.43
-10.26
-24.76
-44.68
-69.33
-97.43
-127.04
-155.35
-172.56
-168.98
-144.33
-107.50
-68.50
-33.40
-6.00
11.12
16.59
10.80
-4.83
-27.37
-52.12
-75.46
-93.60
-104.72
-108.69
-106.33
-98.57
-87.04
-73.54
-56.36
-37.63
-19.75
-5.28
4.08
7.79
6.69
2.18
-4.06
-9.43
-13.65
-16.20
-17.48
-18.16
-18.85
-19.53
-19.82
-19.27
-17.53
-14.75
-10.22
-4.91
1.11
8.07
16.40
26.42
37.82
49.68
60.58
69.74
76.77
82.04
86.12
89.62
92.95
95.59
96.25
93.57
87.15
77.66
66.96
57.48
51.45
50.41
53.86
59.65
65.33
69.24
70.92
70.79
69.42
66.91
63.23
57.57
49.10
38.08
25.60
12.77
-0.12
-13.47
-30.47
-48.81
-63.25
-70.50
-71.03
-67.74
-63.71
-61.20
-61.01
-62.77
-65.10
-67.31
-70.54
-74.41
-78.05
-80.16
-79.96
-77.18
-72.45
-66.26
-59.60
-53.68
-48.94
-45.62
-42.26
-38.76
-35.42
-32.87
-30.96
-29.40
-28.15
-26.89
-25.66
-24.47
-23.43
-22.23
-20.53
-17.28
-11.69
-3.63
6.17
15.59
22.87
27.51
32.46
37.78
43.23
49.06
53.24
55.91
58.12
61.36
66.61
73.93
82.04
89.64
95.62
99.30
100.88
100.77
99.36
96.66
92.39
86.05
77.89
68.70
59.30
50.26
41.42
32.15
21.94
10.84
-0.55
-11.00
-19.35
-25.19
-28.83
-31.08
-32.76
-34.25
-35.60
-36.80
-37.84
-38.94
-40.57
-43.25
-47.43
-53.17
-60.18
-67.93
-75.70
-82.51
-87.21
-88.70
-86.43
-80.23
-70.25
-57.03
-41.70
-25.80
-10.84
2.12
12.69
20.40
25.42
28.56
30.68
31.80
30.95
26.84
18.64
6.49
-9.50
-28.08
-46.61
-61.84
-71.41
-74.38
-71.25
-63.56
-53.64
-45.66
-42.97
-46.61
-55.42
-67.45
-80.73
-93.31
-102.99
-98.22
-73.03
-31.80
13.85
53.79
82.85
100.06
107.53
109.29
109.66
110.04
109.82
107.44
101.27
89.99
73.48
53.47
33.22
16.28
4.03
-3.55
-7.13
-7.47
-5.66
-2.92
-0.20
2.08
3.95
5.02
5.20
4.84
4.34
3.53
1.69
-1.73
-6.71
-12.53
-18.52
-24.01
-28.64
-32.23
-34.82
-36.53
-37.29
-36.87
-35.13
-32.69
-29.71
-26.57
-23.38
-20.01
-16.18
-11.83
-7.33
-3.52
-1.38
-1.45
-3.57
-6.69
-9.32
-10.05
-8.13
-3.65
2.68
9.81
16.81
22.84
27.33
30.00
30.88
30.37
29.16
28.05
27.67
28.27
29.52
30.80
31.51
31.34
30.42
29.17
28.02
27.17
26.53
25.65
23.93
20.82
15.92
9.11
0.58
-9.17
-19.42
-28.79
-35.80
-39.31
-38.93
-35.23
-29.47
-23.18
-17.72
-13.93
-12.13
-12.36
-14.50
-18.39
-23.71
-29.87
-36.09
-41.49
-45.38
-47.44
-47.83
-47.04
-45.64
-44.02
-42.30
-40.36
-38.02
-35.21
-31.98
-28.52
-24.98
-21.45
-17.92
-14.33
-10.66
-6.81
-2.76
1.52
6.02
10.54
14.72
18.18
20.72
22.59
24.56
27.52
32.22
38.93
47.20
56.00
63.96
69.73
72.21
70.87
65.47
56.07
43.11
27.30
9.76
-7.96
-23.98
-36.55
-44.30
-47.56
-48.46
-50.34
-56.33
-67.96
-84.27
-102.23
-118.46
-128.08
-127.79
-116.73
-94.70
-62.01
-20.08
27.73
75.64
116.36
144.30
156.43
153.30
139.01
119.57
100.82
86.28
76.41
69.41
64.67
62.36
63.43
68.67
77.93
89.63
101.03
109.53
105.85
87.40
59.71
33.42
16.88
11.58
13.67
17.87
20.43
20.19
19.20
19.44
21.19
22.83
22.11
17.59
9.12
-2.43
-15.54
-27.40
-35.74
-39.50
-38.97
-35.34
-30.02
-24.71
-21.09
-20.37
-22.09
-24.94
-27.41
-28.30
-27.54
-25.72
-24.44
-25.31
-29.38
-35.89
-42.80
-47.40
-48.29
-45.06
-38.10
-28.73
-18.66
-10.46
-6.64
-10.15
-22.93
-43.90
-67.40
-83.80
-83.74
-62.50
-23.11
24.09
65.39
89.58
92.29
75.39
48.29
20.86
-1.17
-17.06
-28.64
-37.61
-43.99
-46.20
-43.09
-35.18
-25.42
-17.55
-14.49
-16.63
-22.05
-27.58
-30.22
-28.42
-22.59
-15.11
-9.02
-6.64
-8.57
-13.70
-19.77
-24.73
-26.67
-24.97
-20.35
-14.21
-7.89
-2.15
2.81
7.21
11.32
15.25
18.83
21.62
23.13
23.09
21.49
18.66
15.18
11.68
8.73
6.55
5.03
3.83
2.63
1.28
-0.15
-1.35
-1.97
-1.84
-1.04
0.21
1.59
2.83
3.72
4.19
4.23
3.89
3.27
2.34
0.97
-1.19
-4.38
-8.99
-15.22
-22.89
-31.32
-39.42
-46.01
-50.22
-51.84
-51.41
-50.08
-49.10
-49.45
-51.56
-55.22
-59.77
-64.26
-67.76
-69.41
-68.65
-65.33
-59.68
-52.23
-43.65
-34.43
-24.72
-14.36
-3.07
9.14
21.76
33.82
44.11
51.66
56.06
57.59
57.05
55.36
53.27
51.11
48.86
46.31
43.30
39.77
35.91
32.07
28.69
26.21
24.95
25.06
26.47
28.98
32.35
36.38
40.96
45.93
51.04
55.84
59.79
62.28
62.83
61.08
56.85
50.13
41.10
30.26
18.40
6.49
-4.63
-14.34
-22.28
-28.40
-32.86
-35.85
-37.53
-38.08
-37.70
-36.81
-35.73
-34.58
-33.28
-31.60
-29.41
-26.88
-24.28
-22.05
-20.89
-21.27
-23.23
-26.51
-30.51
-34.42
-37.39
-38.15
-35.68
-30.23
-22.38
-12.74
-2.22
8.33
18.11
26.26
32.96
38.48
41.50
41.27
38.21
32.95
26.66
20.33
14.31
10.24
9.61
10.96
13.13
16.09
19.59
23.85
28.75
33.15
38.28
45.92
54.46
62.92
72.05
82.26
94.70
109.69
115.55
105.05
93.38
87.55
84.13
82.51
82.64
86.03
93.35
102.27
112.42
123.67
131.97
134.18
129.64
110.68
76.57
42.07
11.72
-15.45
-38.47
-58.73
-77.02
-92.82
-105.99
-115.48
-121.27
-125.95
-129.96
-132.35
-133.75
-134.36
-133.53
-130.86
-125.25
-116.56
-106.91
-97.31
-87.97
-79.83
-73.49
-68.77
-65.24
-61.79
-57.74
-53.79
-50.09
-46.33
-42.59
-38.95
-35.31
-31.63
-27.68
-23.47
-19.72
-16.86
-15.01
-14.25
-14.59
-15.96
-18.13
-20.52
-22.39
-23.05
-21.70
-17.75
-11.13
-2.41
7.40
17.14
25.82
32.79
37.76
40.65
41.50
40.44
37.78
34.01
29.87
26.09
23.21
21.33
20.18
19.28
18.18
16.72
15.10
13.71
12.94
12.95
13.64
14.70
15.71
16.31
16.16
15.00
12.67
9.12
4.49
-0.88
-6.47
-11.72
-16.19
-19.63
-22.07
-23.79
-25.21
-26.74
-28.53
-30.33
-31.45
-31.02
-28.30
-23.06
-15.75
-7.41
0.68
7.41
12.12
14.67
15.30
14.42
12.42
9.64
6.37
2.97
-0.13
-2.47
-3.65
-3.42
-1.71
1.33
5.40
10.11
15.01
19.67
23.67
26.57
27.94
27.45
24.96
20.60
14.82
8.29
1.70
-4.41
-9.72
-14.20
-17.97
-21.21
-24.05
-26.62
-29.05
-31.49
-34.05
-36.61
-38.76
-39.75
-38.68
-34.81
-27.89
-18.34
-7.19
4.20
14.55
22.98
29.17
33.26
35.59
36.48
36.15
34.71
32.35
29.49
26.76
24.87
24.44
25.75
28.70
32.83
37.55
42.25
46.48
49.87
52.16
53.06
52.31
49.64
44.94
38.32
30.12
20.86
11.13
1.42
-7.91
-16.69
-24.82
-32.16
-38.55
-43.80
-47.80
-50.60
-52.38
-53.34
-53.50
-52.61
-50.22
-45.90
-39.49
-31.28
-21.92
-12.33
-3.39
4.27
10.34
14.74
17.49
18.58
17.97
15.64
11.73
6.61
0.89
-4.82
-10.02
-14.43
-18.01
-20.85
-23.05
-24.58
-25.37
-25.31
-24.42
-22.83
-20.72
-18.22
-15.40
-12.19
-8.44
-3.97
1.27
7.17
13.49
20.19
27.32
35.01
43.41
52.53
62.14
71.65
80.11
86.34
89.60
89.46
85.90
79.40
70.91
61.70
52.93
45.19
38.34
32.19
26.15
19.57
11.98
3.45
-5.26
-13.08
-19.06
-22.76
-23.55
-21.35
-16.63
-10.21
-2.79
5.29
14.09
23.89
30.55
31.71
27.59
20.67
13.25
5.87
-2.09
-11.06
-20.57
-29.60
-36.51
-40.60
-42.36
-42.92
-43.02
-42.36
-40.17
-35.96
-30.53
-25.16
-21.40
-20.28
-21.63
-23.93
-24.88
-22.59
-16.45
-7.85
1.05
7.85
10.68
8.75
2.45
-6.65
-16.03
-22.13
-22.08
-13.57
3.47
25.92
47.93
62.94
66.45
57.06
39.31
19.58
3.25
-7.65
-14.45
-20.03
-26.30
-32.92
-37.79
-38.76
-35.79
-30.98
-27.48
-27.69
-32.00
-38.65
-44.85
-48.18
-47.67
-44.16
-39.41
-35.33
-32.37
-30.10
-27.53
-23.65
-17.96
-10.54
-2.07
6.48
14.20
20.41
24.70
27.12
28.13
28.33
28.23
27.93
27.21
25.76
23.57
20.89
18.26
16.16
14.71
13.74
12.92
12.08
11.34
11.01
11.31
12.22
13.44
14.47
14.99
15.00
14.77
14.76
15.30
16.48
18.11
19.86
21.36
22.53
23.59
24.98
27.24
30.81
35.98
42.87
51.82
62.43
73.63
83.70
90.37
91.45
85.49
72.46
53.90
32.61
11.51
-7.24
-22.85
-35.58
-46.15
-55.07
-62.45
-68.07
-71.84
-74.26
-76.39
-79.52
-84.42
-91.22
-99.65
-109.49
-120.93
-134.19
-149.36
-165.99
-183.07
-198.74
-211.05
-218.76
-221.81
-221.12
-217.29
-210.72
-201.65
-190.98
-178.86
-165.45
-150.91
-135.63
-119.79
-101.85
-80.42
-55.40
-29.68
-5.34
16.11
34.26
49.23
61.86
75.38
92.70
114.45
136.77
157.33
174.66
188.51
198.59
204.98
210.87
219.74
232.70
245.44
255.93
263.40
268.73
272.58
258.74
218.81
157.72
106.88
72.31
52.68
39.40
29.76
22.50
16.93
15.07
19.52
30.18
41.40
50.14
55.30
57.99
59.26
59.97
53.69
38.46
17.02
-6.77
-27.36
-41.79
-49.57
-52.63
-53.89
-54.78
-54.67
-53.17
-51.98
-51.50
-51.46
-51.06
-50.07
-48.78
-46.99
-43.38
-37.28
-29.87
-22.54
-16.19
-11.96
-10.34
-11.19
-13.66
-16.02
-17.01
-16.48
-14.68
-12.01
-8.75
-5.06
-1.13
2.82
7.00
11.67
16.98
22.87
29.09
35.21
40.81
45.52
49.18
52.20
55.26
59.10
64.40
71.57
80.57
90.98
101.83
111.89
119.98
125.34
128.00
128.74
128.86
129.63
131.87
135.65
140.24
144.53
147.57
149.06
149.36
149.17
148.80
147.50
143.40
133.88
116.49
89.94
54.68
12.87
-32.13
-76.66
-117.49
-152.43
-180.45
-201.78
-217.80
-230.73
-243.37
-258.50
-278.33
-303.91
-334.82
-369.27
-404.54
-437.57
-465.38
-485.18
-494.43
-490.88
-472.87
-439.88
-393.08
-335.32
-270.57
-203.01
-136.13
-72.30
-12.85
41.56
90.64
134.55
173.96
209.76
243.06
274.84
305.63
335.29
363.17
388.50
410.33
427.38
437.42
437.79
426.20
401.70
365.28
319.63
268.40
215.18
162.60
111.52
61.93
13.68
-33.48
-80.07
-126.82
-173.84
-219.87
-262.12
-298.32
-325.97
-342.38
-345.61
-335.60
-314.22
-284.63
-250.91
-217.80
-193.04
-181.58
-181.77
-185.30
-181.31
-160.79
-119.65
-60.33
8.73
70.91
112.07
127.20
120.69
100.76
75.17
49.46
26.53
6.75
-17.82
-53.90
-101.84
-156.55
-213.42
-270.70
-328.18
-385.60
-400.22
-347.81
-242.40
-123.34
-19.80
59.63
117.61
159.50
189.42
209.65
215.59
206.00
187.37
171.13
165.75
173.09
190.19
211.93
233.42
246.35
246.51
236.00
220.34
203.06
184.42
163.85
140.93
115.49
85.00
48.73
8.74
-31.94
-72.42
-115.15
-156.92
-185.37
-191.12
-174.97
-144.68
-109.09
-74.30
-43.68
-18.69
1.40
17.45
29.69
35.62
34.23
26.51
14.90
2.77
-6.23
-8.77
-4.53
4.07
10.29
10.20
3.13
-8.84
-20.45
-26.16
-22.95
-12.73
1.83
15.48
28.07
42.43
62.53
91.39
126.73
165.05
190.79
211.14
217.64
207.16
179.27
135.20
76.90
9.31
-58.86
-117.65
-156.53
-171.23
-159.82
-125.69
-72.14
-14.73
28.10
48.85
52.04
47.51
40.32
33.36
26.86
20.14
12.48
5.24
1.17
1.56
6.18
11.90
16.58
19.00
18.82
16.16
12.57
10.30
10.57
13.59
18.07
23.14
27.84
30.71
29.76
23.50
11.45
-6.10
-27.92
-52.22
-76.39
-97.66
-114.44
-124.52
-125.92
-117.34
-99.02
-73.34
-44.30
-16.43
6.87
23.36
33.57
39.36
42.49
43.82
43.29
40.85
37.27
34.49
33.68
35.46
38.82
41.51
41.41
37.75
31.55
24.77
19.91
17.76
17.55
17.32
15.16
10.39
3.69
-3.55
-10.17
-15.78
-20.87
-25.85
-30.67
-34.92
-38.05
-39.89
-40.89
-41.69
-42.64
-43.62
-44.25
-43.71
-41.74
-38.62
-34.86
-30.85
-26.57
-21.78
-16.35
-10.51
-4.76
0.31
4.40
7.64
10.43
13.17
15.86
18.17
19.52
19.49
17.93
14.99
11.11
6.80
2.70
-0.80
-3.50
-5.49
-7.00
-8.30
-9.56
-10.75
-11.74
-12.27
-12.27
-11.91
-11.48
-11.27
-11.40
-11.87
-12.54
-13.22
-13.49
-13.02
-11.58
-9.05
-5.63
-1.74
1.99
5.19
6.61
6.29
5.17
4.64
5.86
9.17
14.01
19.25
23.87
27.50
30.61
33.93
37.85
42.15
46.10
48.83
49.77
48.77
45.95
41.69
36.27
30.00
23.20
16.29
9.70
3.77
-1.40
-5.88
-9.80
-13.31
-16.50
-19.35
-21.80
-23.69
-24.91
-25.38
-25.15
-24.38
-23.34
-22.39
-21.84
-21.80
-22.21
-22.83
-23.40
-23.74
-23.85
-23.92
-24.29
-25.23
-26.78
-28.55
-29.75
-29.37
-26.52
-20.76
-12.24
-1.67
9.93
21.53
32.27
41.54
48.99
54.44
57.93
59.66
60.01
59.44
58.34
56.97
55.40
53.56
51.34
48.69
45.61
42.14
38.29
34.00
29.16
23.69
17.66
11.28
4.90
-1.14
-6.57
-11.33
-15.52
-19.36
-23.14
-27.05
-31.19
-35.45
-39.48
-42.72
-44.46
-44.08
-41.20
-35.85
-28.48
-19.86
-10.94
-2.63
4.30
9.34
12.28
13.20
12.41
10.32
7.33
3.81
0.06
-3.64
-7.03
-9.88
-12.05
-13.47
-14.19
-14.32
-14.01
-13.44
-12.85
-12.46
-12.51
-13.08
-14.14
-15.53
-17.08
-18.63
-20.15
-21.69
-23.33
-25.14
-27.08
-29.02
-30.66
-31.59
-31.33
-29.40
-25.48
-19.55
-11.90
-3.18
5.76
13.98
20.69
25.42
28.11
29.01
28.52
27.02
24.82
22.09
18.96
15.60
12.41
9.88
8.37
7.98
8.50
9.61
10.87
11.86
12.29
12.22
11.90
11.52
11.15
10.73
10.21
9.58
8.74
7.53
6.00
4.09
1.59
-1.79
-5.95
-10.16
-13.19
-13.83
-11.47
-5.75
2.94
13.53
24.70
35.35
44.98
53.54
61.13
64.21
60.11
48.61
32.55
15.97
1.85
-8.69
-15.97
-21.03
-24.99
-27.97
-29.59
-29.39
-27.27
-23.72
-19.59
-15.98
-13.96
-14.24
-16.49
-19.78
-23.06
-25.60
-27.09
-27.56
-27.14
-26.03
-24.36
-21.97
-18.81
-15.08
-11.26
-7.91
-5.31
-3.36
-1.73
-0.11
1.75
3.81
5.86
7.52
8.55
8.89
8.73
8.42
8.37
8.97
10.33
12.17
13.86
14.63
13.98
11.86
8.77
5.53
2.95
1.49
1.23
1.98
3.43
5.35
7.63
10.12
12.58
14.67
16.01
16.26
15.31
13.32
10.67
7.84
5.24
3.09
1.37
-0.09
-1.51
-2.95
-4.30
-5.33
-5.83
-5.80
-5.40
-4.95
-4.76
-4.98
-5.63
-6.53
-7.45
-8.24
-8.80
-9.09
-9.11
-8.93
-8.51
-8.06
-7.65
-7.30
-6.93
-6.48
-6.03
-5.79
-6.01
-6.83
-8.02
-8.93
-8.72
-6.73
-2.75
2.80
9.03
14.76
18.65
19.39
15.91
7.73
-4.60
-19.31
-33.88
-45.56
-52.46
-54.11
-51.43
-45.99
-39.23
-31.98
-24.45
-16.74
-9.13
-2.17
3.55
7.78
10.62
12.35
13.21
13.30
12.65
11.58
10.51
9.78
9.59
9.90
10.73
12.39
15.34
19.95
25.97
32.49
37.97
41.11
41.31
38.81
34.36
28.76
22.52
16.03
9.61
3.78
-0.97
-4.54
-7.47
-10.52
-14.22
-18.23
-21.48
-22.66
-21.02
-16.85
-11.42
-6.28
-2.60
-0.76
-0.38
-0.68
-0.93
-0.75
-0.16
0.58
1.21
1.68
2.07
2.54
3.05
3.28
2.70
0.86
-2.18
-5.73
-8.55
-9.49
-7.94
-4.10
1.09
6.41
10.83
13.83
15.39
15.82
15.52
14.75
13.52
11.73
9.21
5.85
1.75
-2.78
-7.23
-11.11
-14.07
-15.98
-16.95
-17.21
-17.00
-16.50
-15.85
-15.23
-14.83
-14.79
-15.20
-15.95
-16.87
-17.74
-18.47
-19.13
-19.90
-20.94
-22.31
-23.89
-25.33
-26.27
-26.35
-25.31
-23.04
-19.57
-15.08
-9.95
-4.71
0.00
3.69
6.13
7.53
8.44
9.59
11.53
14.49
18.28
22.49
26.62
30.26
33.05
34.71
35.01
33.85
31.33
27.79
23.61
19.16
14.62
10.11
5.70
1.55
-2.13
-5.21
-7.82
-10.24
-12.75
-15.27
-17.25
-17.82
-16.19
-12.10
-5.91
1.47
9.02
16.01
22.08
27.25
31.51
34.76
36.65
36.81
35.05
31.52
26.73
21.33
16.00
11.27
7.41
4.45
2.26
0.54
-1.02
-2.74
-4.78
-7.21
-9.98
-12.94
-15.91
-18.80
-21.61
-24.48
-27.64
-31.27
-35.36
-39.61
-43.35
-45.71
-45.79
-42.95
-37.00
-28.37
-17.99
-7.03
3.33
12.29
19.46
24.86
28.74
31.32
32.70
32.80
31.59
29.13
25.73
21.87
18.08
14.82
12.32
10.59
9.44
8.59
7.75
6.73
5.42
3.80
1.84
-0.51
-3.29
-6.60
-10.48
-14.91
-19.88
-25.35
-31.24
-37.33
-43.19
-48.16
-51.42
-52.18
-49.96
-44.60
-36.42
-26.08
-14.45
-2.47
9.00
19.25
27.78
34.29
38.67
40.91
41.13
39.54
36.47
32.37
27.79
23.31
19.37
16.23
13.88
12.15
10.77
9.55
8.45
7.49
6.71
5.97
5.01
3.46
1.09
-2.12
-5.93
-9.99
-13.94
-17.63
-21.05
-24.31
-27.57
-31.02
-34.91
-39.49
-44.93
-51.13
-57.46
-62.77
-65.51
-64.18
-57.84
-46.55
-31.41
-14.31
2.64
17.64
29.61
38.18
43.54
46.15
46.50
45.11
42.52
39.32
36.10
33.29
31.16
29.76
29.06
28.91
29.15
29.61
30.17
30.73
31.20
31.50
31.60
31.42
30.75
29.40
27.25
24.36
20.93
17.26
13.69
10.69
8.53
7.05
5.85
4.46
2.54
-0.12
-3.52
-7.50
-11.41
-14.77
-17.58
-20.08
-22.47
-24.82
-27.24
-29.90
-32.93
-35.68
-37.49
-38.00
-37.06
-34.36
-29.54
-22.59
-13.80
-3.70
7.81
20.39
32.96
44.16
53.27
60.24
65.12
68.05
63.69
49.90
29.76
8.91
-8.69
-21.26
-28.42
-31.05
-30.55
-28.69
-26.29
-23.89
-22.04
-21.49
-22.06
-23.60
-26.43
-30.56
-35.61
-40.13
-42.73
-42.92
-41.30
-38.79
-34.22
-28.41
-21.73
-13.73
-3.34
9.55
23.41
35.65
44.39
49.08
50.31
49.83
49.35
49.96
51.73
54.53
57.06
58.78
59.59
59.33
57.97
55.50
52.00
47.72
42.97
38.17
33.92
30.58
28.03
25.99
23.91
21.03
17.55
13.54
9.13
4.67
0.51
-3.23
-6.49
-9.38
-12.14
-14.90
-17.80
-20.80
-23.62
-26.03
-27.95
-29.47
-30.79
-32.09
-33.41
-34.78
-36.13
-37.32
-38.34
-39.19
-39.94
-40.52
-40.75
-40.30
-38.93
-36.53
-33.15
-28.94
-24.13
-18.88
-13.37
-7.81
-2.56
1.93
5.26
7.27
8.05
7.94
7.28
6.36
5.37
4.44
3.74
3.44
3.62
4.19
4.88
5.38
5.45
5.11
4.51
3.85
3.24
2.64
1.90
0.92
-0.31
-1.72
-3.14
-4.48
-5.74
-6.95
-8.23
-9.64
-11.27
-13.08
-15.05
-17.07
-18.93
-20.34
-20.93
-20.38
-18.52
-15.40
-11.30
-6.62
-1.82
2.74
6.79
10.14
12.65
14.23
14.85
14.64
13.84
12.75
11.64
10.64
9.78
8.97
8.14
7.28
6.48
5.87
5.53
5.38
5.26
4.97
4.37
3.44
2.29
1.03
-0.24
-1.52
-2.83
-4.19
-5.62
-7.07
-8.52
-9.95
-11.34
-12.69
-14.00
-15.27
-16.55
-17.88
-19.25
-20.60
-21.70
-22.31
-22.12
-20.90
-18.55
-15.09
-10.71
-5.74
-0.61
4.23
8.38
11.54
13.55
14.39
14.19
13.24
11.95
10.72
9.87
9.48
9.40
9.31
8.96
8.26
7.33
6.43
5.79
5.45
5.25
4.92
4.29
3.32
2.19
1.11
0.20
-0.59
-1.48
-2.65
-4.19
-5.98
-7.76
-9.27
-10.42
-11.29
-12.14
-13.19
-14.57
-16.31
-18.27
-20.29
-22.13
-23.52
-24.12
-23.61
-21.79
-18.65
-14.41
-9.51
-4.48
0.25
4.37
7.73
10.29
12.03
12.94
13.05
12.45
11.34
9.99
8.66
7.55
6.76
6.28
6.07
6.08
6.24
6.48
6.71
6.83
6.72
6.34
5.64
4.63
3.34
1.83
0.15
-1.58
-3.27
-4.83
-6.21
-7.47
-8.72
-10.14
-11.88
-13.98
-16.32
-18.60
-20.45
-21.48
-21.45
-20.20
-17.75
-14.25
-9.94
-5.15
-0.25
4.39
8.43
11.60
13.72
14.73
14.66
13.70
12.13
10.30
8.58
7.26
6.44
6.05
5.92
5.86
5.77
5.59
5.34
4.98
4.45
3.71
2.72
1.55
0.29
-0.97
-2.23
-3.55
-5.09
-6.89
-8.94
-11.11
-13.25
-15.32
-17.32
-19.30
-21.24
-23.04
-24.55
-25.59
-26.06
-25.87
-24.91
-23.03
-20.14
-16.26
-11.64
-6.76
-2.10
1.94
5.18
7.56
9.11
9.83
9.75
8.96
7.66
6.17
4.76
3.66
2.95
2.68
2.83
3.42
4.38
5.53
6.65
7.54
8.21
8.82
9.59
10.67
12.02
13.41
14.53
15.19
15.28
14.85
14.10
13.24
12.50
12.06
11.99
12.19
12.40
12.26
11.49
9.99
7.93
5.78
4.13
3.58
4.52
7.09
11.04
15.89
20.90
25.28
28.37
29.79
29.62
28.39
26.94
26.17
26.79
29.04
32.70
37.28
42.22
47.23
52.38
57.99
64.34
71.46
79.03
86.38
92.80
97.71
100.92
102.66
103.47
103.90
104.40
105.06
105.61
105.63
104.66
102.25
98.01
91.52
82.40
70.58
56.46
41.15
26.25
13.18
2.72
-5.29
-11.70
-17.44
-22.97
-28.20
-32.75
-36.42
-39.50
-42.73
-46.80
-51.96
-57.87
-63.80
-69.06
-73.29
-76.56
-79.24
-81.72
-84.17
-86.59
-88.81
-90.57
-91.67
-92.02
-91.61
-90.55
-88.97
-87.11
-85.26
-83.68
-82.54
-81.93
-81.81
-82.15
-82.86
-83.78
-84.71
-85.37
-85.44
-84.67
-82.98
-80.46
-77.40
-74.10
-70.73
-67.24
-63.35
-58.66
-52.93
-46.18
-38.74
-31.17
-23.97
-17.45
-11.69
-6.58
-1.97
2.11
5.47
7.79
8.81
8.48
7.15
5.50
4.38
4.58
6.57
10.46
16.01
22.85
30.61
38.92
47.31
55.13
61.58
65.88
67.52
66.49
63.33
58.84
53.88
49.06
44.61
40.43
36.24
31.77
26.87
21.61
16.27
11.31
7.29
4.71
3.87
4.81
7.24
10.66
14.44
17.99
20.89
22.91
24.01
24.29
23.97
23.32
22.68
22.40
22.88
24.45
27.41
31.99
38.36
46.57
56.44
67.56
79.25
90.72
101.15
109.83
116.13
119.55
119.69
116.30
109.40
99.36
86.91
72.95
58.42
44.03
30.20
17.04
4.36
-8.15
-20.79
-33.61
-46.31
-58.12
-67.91
-74.57
-77.36
-76.27
-72.11
-66.27
-60.29
-55.39
-52.22
-50.84
-50.97
-52.21
-54.26
-56.87
-59.82
-62.84
-65.67
-68.13
-70.24
-72.17
-74.04
-75.86
-77.41
-78.28
-78.04
-76.41
-73.45
-69.52
-65.38
-61.84
-59.58
-58.90
-59.64
-61.28
-63.25
-65.19
-67.07
-69.15
-71.71
-74.86
-78.48
-82.40
-86.47
-90.74
-95.33
-100.22
-105.18
-109.51
-112.14
-112.20
-109.51
-104.74
-99.25
-94.58
-91.94
-91.98
-94.42
-98.14
-101.58
-103.32
-102.32
-98.20
-91.18
-82.04
-72.28
-62.99
-54.39
-45.76
-35.88
-23.31
-6.74
14.61
40.67
69.15
97.40
123.11
144.19
158.72
165.54
164.83
158.13
147.57
132.79
114.11
93.40
73.07
54.55
38.20
23.73
10.42
-2.81
-20.54
-44.50
-71.79
-97.33
-117.36
-130.49
-137.13
-138.61
-136.62
-137.44
-143.99
-153.99
-162.98
-168.24
-169.32
-166.74
-161.25
-124.37
-51.63
34.55
106.18
151.88
175.28
185.18
189.57
193.54
199.07
201.20
196.85
187.72
178.03
170.53
165.73
162.72
160.02
156.21
146.91
131.06
112.11
95.20
83.32
76.48
72.91
70.39
67.16
60.22
48.76
34.78
21.19
9.86
1.44
-3.86
-6.01
-5.27
-3.49
-2.28
-2.30
-3.38
-5.04
-6.62
-7.25
-6.35
-3.98
-1.28
0.44
0.40
-1.47
-4.83
-9.10
-13.76
-18.38
-22.48
-25.27
-25.57
-22.39
-15.44
-5.63
5.22
15.06
22.61
27.82
31.56
34.84
37.98
40.47
41.36
40.15
37.13
33.45
30.25
28.19
27.04
25.93
24.35
21.63
17.93
13.76
9.62
5.81
2.63
0.48
-0.20
0.39
1.68
2.25
0.67
-3.57
-9.47
-14.79
-17.20
-15.55
-10.37
-3.53
2.77
7.18
9.64
10.53
10.37
9.34
7.26
4.11
0.40
-2.95
-4.93
-5.13
-3.88
-2.07
-0.82
-0.95
-2.77
-6.06
-10.18
-14.33
-17.74
-19.81
-20.25
-19.11
-16.79
-13.82
-10.69
-7.79
-5.31
-3.38
-1.99
-1.10
-0.58
-0.22
0.27
1.14
2.42
3.93
5.32
6.39
7.06
7.46
7.87
8.59
9.83
11.63
13.90
16.40
18.90
20.97
22.20
22.36
21.58
20.34
19.36
19.41
19.89
20.69
21.37
21.35
20.22
17.88
14.67
11.10
7.68
4.57
1.83
-0.84
-3.69
-6.82
-10.04
-13.05
-15.46
-16.98
-17.48
-16.76
-14.84
-11.87
-8.13
-4.01
0.04
3.57
6.20
7.65
7.86
6.81
4.59
1.47
-2.15
-5.77
-8.92
-11.33
-12.99
-14.12
-15.09
-16.26
-17.91
-20.18
-23.20
-27.10
-31.88
-37.23
-42.39
-46.22
-47.53
-45.58
-40.37
-32.76
-24.07
-15.58
-8.12
-2.10
2.27
4.76
5.06
2.97
-1.38
-7.40
-14.23
-21.01
-27.17
-32.63
-37.53
-42.02
-46.02
-49.28
-51.42
-51.99
-50.54
-46.71
-40.46
-31.93
-21.27
-8.58
5.87
21.69
38.30
54.92
70.55
83.80
93.44
99.08
101.00
99.67
95.54
89.04
80.78
71.71
62.57
54.25
47.89
44.37
43.48
44.15
45.10
45.41
44.54
41.28
34.18
22.43
6.26
-13.12
-33.28
-50.94
-62.93
-63.81
-52.25
-34.66
-20.50
-14.83
-16.86
-22.65
-28.31
-31.70
-32.73
-33.10
-34.37
-36.35
-37.47
-36.45
-33.11
-28.59
-24.48
-22.07
-22.19
-24.53
-27.38
-28.54
-27.45
-23.80
-18.58
-13.03
-7.97
-3.82
-0.58
2.34
5.50
8.83
11.85
13.95
15.02
15.47
15.72
15.82
15.63
15.01
13.81
12.28
10.93
10.46
11.29
13.42
15.77
16.84
15.55
11.56
5.76
-0.31
-5.24
-8.45
-9.41
-8.60
-6.72
-3.84
0.25
5.42
10.40
12.96
11.07
4.34
-5.83
-16.95
-26.63
-33.82
-38.50
-41.49
-43.63
-45.41
-46.57
-46.68
-45.41
-40.14
-30.75
-18.38
-4.75
8.61
20.43
29.97
36.75
40.66
42.22
42.01
41.02
40.01
40.07
40.41
40.04
38.24
34.60
29.32
22.85
16.36
11.44
9.95
13.23
20.82
30.84
39.39
42.31
37.11
24.57
8.09
-7.87
-20.00
-27.22
-30.61
-32.48
-34.75
-38.80
-44.10
-49.68
-54.58
-57.99
-59.21
-57.76
-53.64
-47.16
-39.08
-30.24
-21.43
-12.93
-4.37
4.98
15.79
27.73
39.75
50.04
56.42
57.07
51.56
41.11
28.09
15.02
3.65
-4.98
-10.70
-14.03
-15.94
-17.35
-18.75
-20.24
-21.62
-22.49
-21.79
-18.35
-11.46
-1.22
11.64
26.01
40.42
53.19
59.69
56.30
43.03
23.92
4.15
-12.57
-24.45
-31.00
-32.54
-29.86
-23.70
-15.26
-6.48
0.30
3.21
1.78
-3.03
-9.19
-14.28
-15.61
-10.99
0.56
18.33
39.72
60.41
74.95
78.34
67.94
45.27
15.88
-12.42
-32.42
-40.00
-35.35
-22.52
-7.59
3.68
7.88
4.51
-4.50
-15.97
-26.55
-33.51
-35.19
-31.02
-21.22
-6.79
10.81
28.97
44.23
53.07
53.08
44.10
28.69
11.48
-2.44
-9.35
-8.36
-1.57
6.81
12.51
12.81
7.49
-1.57
-11.54
-20.02
-25.94
-29.64
-32.21
-34.76
-37.29
-38.99
-38.79
-36.10
-31.17
-25.00
-18.65
-12.65
-6.65
-0.52
5.33
9.50
10.25
7.01
1.29
-3.46
-3.66
2.18
12.26
22.29
27.97
27.19
20.96
12.47
5.04
0.34
-1.84
-2.83
-3.85
-5.57
-8.26
-12.08
-17.17
-23.02
-28.33
-31.31
-30.79
-27.20
-22.63
-19.67
-19.66
-21.75
-23.24
-21.42
-15.07
-5.07
6.17
16.21
23.70
29.03
33.48
38.09
42.60
45.65
45.65
41.84
34.84
26.27
18.28
11.71
7.17
3.89
0.90
-2.13
-4.81
-6.69
-8.48
-11.21
-16.08
-23.54
-33.04
-42.72
-50.10
-52.99
-48.59
-37.76
-22.90
-6.95
7.47
18.21
24.18
25.62
23.90
20.77
17.36
14.35
12.22
11.33
12.35
16.29
23.67
33.44
42.61
46.96
43.41
30.38
11.98
-5.78
-17.70
-21.52
-18.39
-11.55
-4.20
2.45
9.00
16.58
24.59
30.42
30.74
23.70
10.62
-4.19
-15.31
-19.11
-15.62
-8.58
-3.00
-2.34
-6.78
-13.74
-19.87
-23.06
-23.33
-22.01
-20.43
-18.73
-15.86
-10.66
-2.99
5.72
13.19
17.20
16.72
12.10
4.79
-3.23
-10.12
-14.66
-16.50
-16.18
-14.97
-14.37
-15.52
-18.96
-24.57
-31.83
-40.07
-48.69
-56.41
-61.67
-62.89
-59.05
-50.30
-37.99
-24.08
-10.20
2.19
12.35
19.54
22.92
22.13
18.00
12.88
9.93
11.76
19.01
30.11
41.74
50.47
54.12
52.42
46.70
39.03
31.26
24.77
20.33
18.22
18.30
19.98
22.11
23.06
21.06
14.82
4.19
-9.37
-23.11
-33.95
-39.74
-40.30
-37.22
-32.86
-28.70
-24.32
-17.72
-6.57
9.96
30.22
50.40
66.10
74.31
74.22
68.30
60.05
52.54
47.29
44.26
42.64
41.76
41.12
40.26
38.24
33.57
25.07
12.95
-0.85
-13.27
-21.64
-25.10
-25.13
-24.47
-25.68
-29.63
-35.20
-40.30
-43.34
-44.39
-44.95
-46.82
-50.63
-55.27
-58.57
-58.57
-55.08
-49.93
-46.17
-46.31
-51.12
-59.22
-67.93
-74.75
-78.24
-78.16
-74.82
-68.47
-58.53
-44.55
-26.84
-6.84
13.03
30.34
43.38
51.62
55.60
56.62
56.15
55.30
55.18
55.82
56.21
54.69
49.94
41.80
31.57
21.42
13.20
7.62
4.07
1.66
0.23
0.78
4.54
11.65
20.48
28.18
32.64
33.88
34.38
37.41
44.96
56.22
67.66
75.60
77.49
72.90
62.80
48.44
30.56
10.15
-10.71
-28.80
-40.61
-44.34
-41.22
-35.30
-31.52
-33.18
-40.18
-49.36
-56.57
-59.15
-57.61
-55.12
-55.79
-61.97
-73.37
-86.98
-98.49
-104.12
-102.00
-92.55
-77.67
-59.31
-38.07
-14.26
12.34
40.65
67.33
87.52
96.68
92.98
78.55
58.80
40.12
26.60
18.94
14.57
9.84
2.49
-6.44
-13.09
-12.70
-2.24
17.70
42.77
66.18
81.43
84.86
77.12
62.80
47.95
38.43
36.04
38.38
40.42
37.41
27.47
12.47
-3.17
-15.20
-21.74
-24.58
-27.65
-34.56
-45.94
-58.84
-68.33
-70.65
-65.83
-57.76
-52.14
-52.70
-59.11
-67.04
-71.27
-68.68
-59.87
-48.24
-37.34
-28.60
-20.65
-10.84
2.47
18.39
33.70
44.64
48.76
45.76
37.36
26.51
16.44
10.06
9.23
14.43
24.46
36.82
48.42
56.59
59.79
57.97
52.26
44.26
35.48
26.95
19.35
13.07
8.22
4.83
2.31
-0.30
-3.98
-9.19
-15.63
-22.46
-28.80
-34.27
-38.68
-41.94
-43.62
-42.95
-39.16
-32.03
-22.14
-10.79
0.44
9.96
16.67
20.01
19.79
16.35
10.55
3.73
-2.54
-7.09
-9.58
-10.61
-11.36
-13.05
-16.19
-20.49
-24.75
-27.21
-26.18
-20.52
-10.16
3.72
19.03
33.65
45.94
55.10
60.87
63.09
61.62
56.68
49.54
42.30
38.05
38.26
41.83
45.12
43.55
33.98
16.61
-4.83
-24.78
-38.14
-42.85
-40.65
-36.08
-34.11
-37.37
-44.85
-52.77
-57.12
-56.25
-52.21
-49.34
-51.54
-59.71
-71.17
-80.62
-83.07
-76.04
-60.00
-37.72
-12.75
11.64
32.74
48.45
57.12
58.44
53.32
43.37
30.37
15.91
1.62
-10.72
-19.24
-22.59
-20.52
-14.17
-5.76
2.33
8.45
12.35
15.00
17.95
22.58
29.40
37.70
45.88
52.24
55.46
55.40
52.92
49.38
45.88
42.82
39.80
35.91
30.86
24.37
16.42
7.16
-3.11
-13.64
-23.25
-30.62
-34.78
-35.49
-33.60
-30.44
-27.24
-24.63
-22.56
-20.64
-18.54
-16.16
-13.54
-10.79
-7.87
-4.71
-1.44
1.52
3.54
4.10
3.15
1.15
-1.27
-3.59
-5.66
-7.66
-9.82
-12.25
-14.91
-17.65
-20.38
-23.22
-26.33
-29.73
-33.25
-36.05
-37.26
-36.17
-32.48
-26.58
-19.40
-12.09
-5.61
-0.46
3.51
6.75
9.89
13.40
17.43
21.81
26.17
30.17
33.55
36.30
38.54
40.51
42.43
44.24
45.67
46.20
45.49
43.21
39.53
34.98
30.22
25.95
22.52
19.99
17.72
14.68
9.80
2.40
-7.25
-17.83
-27.19
-33.33
-35.21
-33.29
-29.25
-25.18
-22.54
-21.64
-21.74
-21.62
-20.37
-17.80
-14.42
-11.01
-8.15
-5.94
-4.07
-2.24
-0.34
1.29
2.23
2.15
1.19
-0.25
-1.60
-2.37
-2.55
-2.43
-2.53
-3.25
-4.63
-6.44
-8.35
-10.16
-11.65
-12.82
-13.71
-14.40
-14.91
-15.22
-15.30
-15.14
-14.65
-13.72
-12.22
-10.10
-7.43
-4.45
-1.55
0.84
2.39
3.03
2.97
2.64
2.56
3.10
4.29
5.87
7.31
8.18
8.26
7.56
6.46
5.59
5.64
7.12
10.20
14.69
20.09
25.61
30.09
32.69
33.08
31.53
28.72
25.50
22.66
20.74
19.92
19.12
17.58
14.79
10.59
4.92
-2.17
-10.59
-20.26
-31.07
-43.55
-57.68
-72.71
-87.16
-99.26
-107.39
-110.51
-108.39
-98.54
-81.61
-60.93
-40.36
-21.79
-4.99
10.66
24.94
36.69
44.79
48.64
49.35
49.30
51.02
56.00
64.33
75.13
86.91
97.83
105.28
106.89
101.27
88.55
70.52
50.19
30.86
15.07
3.88
-3.47
-8.52
-12.71
-16.79
-20.76
-24.07
-26.01
-25.95
-23.69
-19.69
-14.83
-10.10
-6.43
-4.52
-4.65
-6.72
-10.30
-14.78
-19.48
-23.58
-26.00
-25.41
-20.55
-10.86
2.99
18.99
34.01
44.64
48.28
44.06
32.97
17.42
0.34
-15.77
-28.99
-38.19
-42.83
-42.90
-38.94
-32.26
-24.81
-18.60
-15.31
-15.44
-18.38
-22.77
-26.95
-29.59
-29.98
-28.16
-24.14
-19.30
-14.68
-10.88
-8.07
-6.08
-4.74
-3.95
-3.72
-3.90
-4.25
-4.03
-2.37
1.34
7.22
14.58
22.05
28.03
31.37
31.34
28.40
24.05
19.66
16.57
15.35
15.55
15.96
15.61
13.67
10.33
6.60
3.56
1.80
0.87
-0.48
-3.67
-9.05
-16.45
-24.79
-32.66
-38.90
-42.86
-44.30
-42.92
-38.06
-28.38
-13.69
5.00
25.50
45.14
61.97
75.41
86.30
92.17
93.98
91.36
82.85
67.78
47.76
26.66
8.57
-4.27
-12.52
-18.09
-23.30
-28.73
-33.03
-34.33
-31.87
-26.94
-21.97
-19.19
-18.97
-20.63
-22.81
-24.22
-24.12
-22.38
-19.48
-16.38
-14.62
-15.87
-21.82
-32.95
-47.80
-63.14
-74.86
-79.85
-76.77
-66.57
-51.83
-35.92
-21.83
-11.09
-3.47
3.32
11.79
23.62
38.42
53.45
64.45
67.66
61.85
48.82
33.97
22.78
18.43
20.66
26.44
32.12
35.45
36.49
36.64
37.48
39.22
40.76
40.27
36.20
28.24
17.36
5.62
-4.68
-11.82
-15.34
-15.96
-15.34
-15.49
-18.05
-23.55
-30.97
-38.14
-42.58
-42.69
-38.33
-30.88
-22.57
-15.45
-10.69
-8.05
-6.31
-3.81
1.11
9.63
21.90
36.33
49.54
55.69
49.78
30.34
0.98
-30.48
-55.17
-66.79
-64.20
-51.26
-34.48
-19.67
-9.97
-5.75
-5.88
-9.12
-14.62
-21.86
-29.93
-37.47
-42.82
-44.84
-43.31
-38.88
-33.17
-26.90
-20.95
-16.00
-12.40
-9.99
-8.11
-5.73
-2.04
3.14
9.18
14.79
18.82
20.87
21.49
21.87
23.20
25.93
29.63
33.31
35.84
36.61
35.73
33.91
31.99
30.65
30.01
29.67
29.05
27.52
24.77
20.79
15.79
9.21
1.20
-7.88
-17.43
-26.66
-34.80
-41.05
-44.73
-45.22
-42.11
-35.24
-25.19
-13.30
-1.56
7.83
13.11
13.42
9.05
1.20
-8.35
-17.91
-26.27
-32.82
-37.45
-40.37
-41.80
-41.82
-40.23
-36.58
-30.48
-21.92
-11.47
-0.25
10.37
19.31
26.17
31.36
35.90
40.79
46.52
52.80
58.71
63.17
65.40
65.20
62.97
59.44
55.40
51.47
47.90
44.56
40.97
36.38
30.15
22.04
12.49
2.66
-5.85
-11.48
-13.27
-11.23
-6.31
-0.13
5.44
8.65
8.29
3.72
-4.93
-16.76
-30.23
-43.53
-55.05
-63.74
-69.35
-72.18
-72.79
-71.54
-68.38
-62.89
-54.69
-43.88
-31.24
-18.12
-5.95
4.07
11.39
16.19
19.21
21.36
23.30
25.40
27.75
30.63
34.12
38.19
42.68
47.19
50.80
52.10
49.50
41.92
29.85
14.70
-1.42
-16.04
-27.15
-34.12
-37.82
-40.07
-42.48
-45.12
-47.75
-49.76
-49.73
-45.19
-33.24
-11.55
20.40
60.47
104.41
144.94
173.91
185.22
176.82
150.42
110.29
61.80
5.99
-48.55
-90.52
-112.98
-116.75
-107.35
-90.77
-71.12
-50.72
-30.94
-12.36
3.01
12.37
14.03
10.00
2.86
-4.25
-8.79
-9.59
-6.52
-1.49
2.67
4.00
1.07
-4.37
-8.97
-9.80
-5.74
2.49
12.09
19.85
23.94
24.70
24.11
24.16
25.45
26.90
26.60
22.65
14.34
2.56
-10.78
-23.62
-34.80
-44.16
-51.51
-56.24
-57.48
-54.40
-47.00
-36.49
-25.14
-15.65
-10.17
-9.56
-13.21
-19.36
-25.47
-29.22
-29.37
-26.28
-21.82
-18.37
-17.72
-20.28
-24.97
-29.44
-31.30
-28.82
-21.70
-10.97
1.80
15.19
28.30
39.18
46.01
48.03
46.20
42.47
38.59
35.39
32.73
29.90
26.12
21.36
16.31
12.17
10.01
10.32
12.93
16.95
20.91
23.17
22.52
18.50
11.60
3.08
-5.31
-11.82
-15.33
-15.68
-13.71
-10.61
-7.39
-4.46
-1.79
0.89
3.59
5.96
7.44
7.55
6.42
4.70
3.31
2.97
3.88
5.67
7.72
9.44
10.54
11.06
11.24
11.37
11.56
11.75
11.74
11.34
10.52
9.43
8.44
7.67
7.13
6.62
5.84
4.59
2.81
0.67
-1.53
-3.51
-5.09
-6.20
-6.85
-7.06
-7.01
-6.85
-6.76
-6.76
-6.70
-6.37
-5.69
-4.85
-4.34
-4.80
-6.45
-9.37
-13.07
-17.00
-20.26
-22.27
-22.75
-21.80
-19.79
-17.20
-14.50
-11.96
-9.66
-7.44
-5.31
-3.52
-2.28
-2.34
-3.82
-6.18
-8.49
-9.94
-10.35
-10.10
-9.60
-9.04
-7.68
-4.94
-1.11
2.35
3.57
1.35
-3.87
-9.82
-13.45
-12.43
-6.26
3.53
14.11
22.64
27.21
27.15
23.02
16.14
8.04
0.06
-6.61
-11.01
-12.57
-11.34
-8.16
-4.59
-2.65
-3.92
-9.08
-16.93
-25.16
-31.04
-32.58
-29.27
-22.32
-14.21
-7.48
-3.91
-3.84
-6.31
-9.52
-11.61
-11.22
-7.50
-1.28
5.99
12.77
18.03
21.31
22.65
22.37
20.99
18.98
16.79
15.23
14.56
14.77
15.44
15.91
15.51
14.00
11.50
8.43
5.60
3.58
2.66
2.60
2.93
3.32
3.87
5.00
7.12
10.56
14.95
19.45
23.07
25.23
25.29
23.33
19.63
13.77
6.87
1.42
0.39
5.00
13.80
23.03
28.28
26.51
17.52
4.21
-9.39
-19.96
-26.56
-30.35
-33.18
-36.03
-38.64
-39.87
-38.68
-35.85
-32.17
-29.13
-27.90
-28.70
-30.71
-32.75
-33.79
-32.46
-29.32
-25.12
-20.54
-15.70
-10.08
-2.96
5.80
15.36
24.07
30.23
33.35
34.08
34.30
35.34
37.83
41.22
44.19
45.63
45.22
43.75
41.84
39.30
34.87
27.10
15.16
-0.09
-15.73
-27.62
-32.01
-27.65
-16.53
-3.37
6.31
8.11
0.32
-15.48
-34.72
-51.33
-61.07
-63.29
-60.44
-55.94
-52.51
-51.24
-51.29
-50.58
-46.60
-37.50
-22.68
-3.33
17.33
36.25
50.41
58.24
60.09
57.86
53.81
49.76
45.43
41.38
36.74
30.07
20.63
8.70
-4.33
-17.65
-30.12
-40.26
-46.63
-48.56
-46.12
-39.99
-31.37
-22.00
-13.37
-7.60
-5.33
-5.70
-7.23
-8.40
-8.02
-5.59
-1.38
3.83
9.15
14.10
18.41
21.81
24.31
26.29
28.62
32.25
37.65
44.04
49.47
51.51
48.47
40.86
31.54
24.67
23.67
29.54
40.34
52.09
60.77
63.74
60.49
52.37
41.97
30.77
19.79
9.16
-1.67
-13.30
-26.06
-39.88
-54.05
-66.91
-75.82
-77.58
-69.89
-53.06
-30.66
-9.18
4.15
4.60
-7.75
-28.02
-48.88
-63.18
-68.17
-65.19
-57.58
-48.65
-40.36
-33.45
-27.95
-23.54
-19.25
-13.66
-5.29
6.54
20.75
34.97
46.59
54.08
57.61
58.66
58.89
59.17
59.07
56.75
49.58
35.38
14.31
-10.08
-31.38
-42.98
-41.34
-28.31
-10.67
3.15
7.38
1.53
-10.09
-21.49
-28.55
-31.13
-31.46
-32.45
-35.29
-38.56
-39.37
-35.03
-24.84
-10.69
3.71
14.55
19.70
18.96
14.34
8.69
4.49
3.10
4.83
9.31
15.71
22.70
28.46
31.09
29.22
22.67
12.70
1.46
-8.82
-16.72
-22.03
-25.30
-27.18
-27.92
-27.24
-24.86
-20.94
-16.35
-12.30
-9.77
-8.89
-9.06
-9.36
-9.05
-7.93
-6.40
-5.10
-4.49
-4.60
-4.76
-4.10
-2.01
1.71
6.74
12.38
17.68
21.66
23.56
23.42
21.78
19.60
17.95
17.46
18.10
19.11
19.47
17.08
11.84
5.32
-0.05
-2.37
-1.29
2.09
5.95
8.80
10.10
10.49
10.68
10.60
9.20
5.02
-2.79
-13.62
-25.34
-35.01
-39.81
-38.49
-31.89
-22.37
-12.79
-5.43
-1.48
-1.46
-5.52
-13.25
-23.51
-33.99
-41.38
-42.46
-35.50
-21.39
-3.56
12.58
23.16
27.25
26.69
24.49
22.60
21.26
19.81
16.89
13.00
10.50
12.24
20.16
34.42
52.76
70.98
84.02
87.30
77.99
55.97
23.89
-13.37
-49.97
-81.03
-103.92
-118.74
-127.73
-133.60
-138.08
-141.34
-142.49
-138.65
-129.73
-118.30
-108.85
-105.86
-111.36
-123.44
-136.22
-141.70
-132.67
-105.90
-63.91
-13.05
39.67
88.96
132.02
168.28
198.73
225.04
248.23
266.57
278.34
284.15
286.85
289.51
293.99
300.92
309.97
319.93
325.85
323.29
311.30
291.72
265.95
233.77
194.23
146.80
91.94
26.74
-50.15
-135.33
-222.13
-305.09
-381.76
-451.54
-514.16
-540.31
-510.61
-434.13
-339.46
-249.07
-171.40
-106.73
-52.65
-6.79
32.16
59.69
71.13
66.32
49.74
27.26
4.25
-14.42
-24.97
-25.72
-21.18
-17.57
-18.14
-22.04
-26.28
-27.53
-23.00
-11.43
6.37
25.51
40.65
49.05
51.07
48.43
43.21
37.54
33.51
32.59
34.18
36.75
39.08
40.70
41.55
41.73
41.58
41.58
42.01
42.64
43.23
43.89
44.49
44.16
41.18
33.74
20.90
3.35
-16.40
-34.87
-48.64
-55.66
-55.92
-51.27
-44.36
-37.76
-33.15
-31.22
-32.07
-35.32
-40.26
-45.65
-49.76
-50.84
-47.87
-41.16
-32.31
-23.56
-16.45
-11.06
-6.17
-0.26
7.47
16.43
24.78
30.48
32.20
30.04
25.30
19.68
14.70
11.21
9.44
9.26
10.31
12.17
14.43
16.55
17.95
18.52
18.65
19.20
20.96
24.21
28.40
32.39
34.81
33.97
28.53
17.79
2.02
-17.15
-36.89
-53.78
-64.94
-67.29
-60.49
-46.73
-29.84
-13.88
-2.05
3.76
2.84
-4.64
-17.73
-34.59
-52.02
-65.62
-71.02
-65.70
-50.33
-28.71
-6.47
11.26
21.48
24.16
21.62
16.47
10.12
2.47
-7.08
-18.37
-29.96
-39.88
-46.50
-48.75
-47.00
-42.68
-37.48
-32.62
-28.73
-26.33
-26.02
-28.21
-31.19
-32.75
-31.37
-26.98
-20.81
-14.75
-10.58
-9.20
-9.79
-8.10
0.01
15.86
37.26
59.83
79.42
93.38
101.33
105.18
110.73
122.77
142.29
166.21
189.65
208.87
222.22
230.01
218.25
181.13
125.63
67.52
19.31
-15.18
-37.43
-50.89
-59.07
-64.83
-67.74
-67.10
-63.33
-56.77
-50.19
-45.19
-42.87
-44.11
-49.09
-55.14
-59.35
-60.26
-58.62
-56.62
-56.13
-58.21
-63.79
-71.67
-78.25
-79.88
-74.66
-63.02
-47.13
-29.47
-12.51
1.65
11.73
17.86
20.86
21.62
20.80
18.69
15.36
10.42
3.26
-6.38
-17.96
-30.42
-42.62
-53.68
-63.17
-70.79
-76.29
-79.47
-79.93
-77.22
-70.92
-60.89
-47.63
-32.46
-17.29
-4.29
4.83
9.50
10.46
9.43
8.53
9.37
12.65
18.05
24.65
31.33
37.13
41.33
43.44
43.45
41.98
40.47
40.91
44.96
52.87
62.71
70.58
71.90
63.59
45.79
22.34
-0.51
-16.73
-23.01
-20.02
-11.82
-3.81
-0.39
-3.42
-11.80
-22.16
-30.19
-31.96
-24.92
-8.46
15.84
44.62
73.57
98.46
116.17
125.08
125.32
118.50
107.26
94.65
83.26
74.43
67.79
61.60
53.42
41.51
25.60
6.97
-12.36
-30.64
-46.74
-59.79
-68.37
-71.16
-67.50
-58.24
-46.33
-36.35
-32.79
-37.77
-49.70
-63.30
-72.84
-74.50
-67.16
-52.12
-32.01
-9.47
13.82
37.16
60.72
82.99
101.38
114.05
121.20
124.75
127.09
130.22
134.86
141.23
146.77
147.36
139.51
121.47
93.28
56.01
11.97
-41.13
-94.38
-134.89
-156.04
-160.23
-153.88
-143.05
-132.26
-123.70
-117.65
-112.27
-106.92
-101.98
-97.76
-95.36
-94.22
-94.37
-95.01
-94.77
-91.50
-85.18
-77.43
-70.34
-65.59
-64.39
-67.59
-73.94
-81.10
-85.36
-85.11
-79.99
-69.95
-55.22
-36.83
-17.09
2.63
21.74
40.86
61.09
84.82
115.33
155.52
206.30
255.23
287.81
295.21
279.02
245.88
201.70
150.14
94.20
37.53
-14.92
-57.66
-87.54
-105.08
-114.91
-120.73
-123.76
-122.98
-116.45
-102.21
-79.74
-51.25
-20.98
6.53
29.05
47.36
64.83
77.33
83.53
84.66
82.88
79.50
74.17
65.58
52.05
32.66
8.10
-18.09
-41.35
-58.18
-67.87
-72.63
-75.53
-78.94
-82.59
-83.99
-79.61
-68.32
-52.54
-37.48
-28.41
-27.69
-34.78
-46.90
-60.74
-73.26
-82.83
-88.99
-91.67
-92.01
-89.28
-83.69
-75.98
-66.71
-55.69
-42.42
-26.78
-9.39
8.65
26.45
42.94
58.09
72.80
88.08
103.99
118.93
130.03
131.77
123.33
105.76
82.41
58.10
37.32
22.88
15.34
13.43
15.99
22.37
32.56
46.66
63.92
81.96
97.23
106.38
105.28
95.07
79.08
60.53
41.71
23.76
6.96
-8.80
-23.76
-38.32
-53.48
-69.46
-85.95
-101.77
-114.82
-122.88
-124.52
-119.73
-107.74
-91.94
-75.20
-59.31
-44.99
-32.40
-21.68
-13.18
-7.22
-3.78
-2.49
-2.21
-1.88
-0.85
0.93
3.00
4.72
5.65
5.67
4.88
3.99
3.59
3.95
4.89
5.93
6.57
6.52
5.85
4.79
3.88
3.46
3.67
4.23
4.80
4.97
4.35
2.70
-0.20
-4.01
-7.81
-10.32
-9.99
-5.97
1.39
10.52
19.22
25.34
27.73
26.32
21.88
15.54
8.36
1.25
-4.86
-8.88
-9.86
-7.33
-1.68
5.64
12.49
16.60
16.37
11.37
2.77
-7.06
-15.32
-19.76
-19.46
-14.95
-7.77
0.23
7.49
12.92
15.88
16.11
13.81
9.79
5.49
2.52
2.06
4.21
8.00
11.83
14.18
14.29
12.23
8.91
5.44
2.72
1.09
0.36
0.02
-0.47
-1.53
-3.36
-5.92
-9.21
-12.51
-15.63
-18.53
-21.16
-23.39
-25.09
-26.33
-27.54
-29.47
-32.98
-38.91
-47.76
-59.48
-73.32
-87.81
-100.96
-110.90
-116.63
-118.82
-119.88
-123.12
-131.51
-146.50
-167.58
-192.68
-218.91
-243.17
-262.41
-273.80
-275.39
-267.22
-252.25
-236.06
-225.03
-223.56
-231.99
-246.35
-260.21
-267.60
-265.44
-254.19
-236.70
-216.28
-195.11
-173.89
-152.53
-131.07
-110.18
-90.89
-73.89
-59.06
-45.42
-31.56
-16.28
1.00
20.21
40.84
62.28
84.19
106.50
129.37
152.90
176.97
201.16
224.87
247.61
269.46
291.26
314.36
339.92
367.73
395.49
418.86
432.77
433.23
419.07
392.51
358.26
321.70
286.91
255.67
227.64
201.46
175.97
150.94
126.92
105.24
86.67
71.18
58.17
47.06
37.40
28.78
20.66
12.47
4.30
-3.48
-10.38
-15.97
-20.11
-23.30
-26.77
-31.90
-39.34
-47.23
-52.69
-52.81
-45.40
-29.44
-5.89
22.00
49.26
70.75
85.67
94.38
97.47
96.22
93.31
91.91
94.08
100.37
110.33
128.92
157.89
193.24
227.79
255.92
275.21
285.72
289.26
288.70
296.22
317.85
349.15
379.70
401.53
411.96
412.19
405.50
395.92
398.91
421.70
458.11
494.71
521.27
533.77
531.84
516.16
413.56
207.72
-50.21
-285.15
-455.18
-557.06
-605.94
-620.90
-618.72
-611.15
-592.30
-558.07
-513.21
-467.74
-429.02
-399.53
-378.99
-365.83
-357.75
-343.20
-316.50
-282.02
-249.36
-225.35
-211.43
-205.70
-205.29
-207.72
-205.52
-195.14
-179.50
-163.47
-150.24
-140.12
-131.95
-124.29
-115.77
-102.39
-82.25
-57.03
-30.83
-7.84
9.17
19.20
22.89
22.18
20.34
19.46
19.48
18.78
15.68
9.70
2.12
-4.63
-7.98
-6.34
0.15
9.96
20.79
30.64
37.80
41.99
44.10
45.43
46.87
48.38
49.36
48.77
45.76
40.26
33.15
25.78
19.19
13.60
7.25
-0.54
-9.51
-18.98
-28.57
-38.20
-47.89
-57.62
-66.93
-74.73
-79.18
-78.84
-73.55
-64.85
-55.52
-48.43
-45.67
-47.42
-53.02
-61.07
-70.30
-79.85
-88.91
-96.24
-99.68
-97.00
-86.84
-69.77
-48.30
-26.38
-8.00
4.57
9.94
9.80
8.06
8.94
15.05
26.41
40.83
55.41
68.25
79.33
90.28
102.75
116.90
131.00
142.25
148.14
147.57
141.10
130.33
117.35
103.87
91.00
79.30
68.91
59.76
51.57
43.89
36.20
28.07
19.16
9.20
-1.93
-14.08
-26.91
-40.00
-53.07
-66.21
-79.81
-94.30
-109.76
