1699445691.00
64.000000
-0.00
-0.00
-0.00
-0.00
-0.00
-0.00
-0.00
-0.00
-0.00
-0.00
0.00
0.01
0.01
-0.00
-0.03
-0.05
-0.05
0.00
0.13
0.36
0.66
1.01
1.37
1.72
2.06
2.40
2.79
3.24
3.80
4.42
5.06
5.66
6.20
6.68
7.15
7.68
8.31
9.14
10.09
11.04
11.88
12.56
13.14
13.76
14.65
15.96
17.91
20.32
22.90
25.38
27.58
29.57
31.68
34.32
37.81
42.54
48.15
54.10
59.83
64.97
69.58
74.14
79.34
85.71
93.76
103.00
112.62
121.73
129.77
136.75
143.30
150.75
157.77
166.64
177.95
191.79
206.97
220.57
228.25
225.36
208.53
176.87
132.76
80.05
23.07
-34.94
-92.44
-149.16
-205.23
-260.37
-313.74
-363.87
-409.83
-450.91
-486.50
-515.74
-537.23
-549.22
-549.96
-538.37
-514.21
-478.67
-433.88
-382.45
-327.02
-269.84
-212.63
-156.66
-102.95
-52.37
-5.90
35.58
71.43
101.35
125.50
144.38
158.69
169.15
176.37
180.75
182.57
182.07
179.51
175.23
169.65
163.17
156.14
148.80
141.30
133.71
126.05
118.37
110.70
103.10
95.67
88.46
81.52
74.90
68.59
62.61
56.93
51.53
46.41
41.57
37.04
32.82
28.95
25.42
22.19
19.22
16.46
13.88
11.48
9.31
7.42
5.86
4.63
3.63
2.74
1.83
0.82
-0.28
-1.34
-2.21
-2.75
-2.93
-2.91
-2.94
-3.28
-4.07
-5.26
-6.59
-7.69
-8.29
-8.32
-8.01
-7.78
-8.08
-9.12
-10.82
-12.77
-14.45
-15.47
-15.73
-15.46
-15.11
-15.13
-15.86
-17.55
-20.33
-24.01
-27.86
-30.44
-29.95
-24.91
-15.04
-1.73
12.33
24.12
31.55
34.20
33.18
30.35
27.29
24.73
22.63
20.70
18.94
17.72
17.50
18.39
19.95
21.36
21.87
21.11
19.35
17.31
15.75
15.14
15.42
16.18
16.88
17.18
17.04
16.72
16.55
16.76
17.28
17.92
18.48
18.89
19.27
19.76
20.42
20.99
20.98
19.97
17.37
13.04
7.17
0.29
-6.88
-13.58
-19.14
-23.07
-25.15
-25.50
-24.49
-22.77
-21.00
-19.72
-19.12
-19.01
-18.95
-18.42
-17.05
-14.77
-11.82
-8.64
-5.79
-3.67
-2.52
-2.38
-3.07
-4.33
-5.82
-7.25
-8.42
-9.25
-9.76
-9.98
-9.95
-9.72
-9.33
-8.77
-8.02
-7.06
-5.85
-4.38
-2.69
-0.85
1.10
3.13
5.30
7.64
10.11
12.56
14.78
16.49
17.46
17.57
16.82
15.34
13.34
11.06
8.68
6.34
4.09
1.94
-0.11
-2.17
-4.16
-5.95
-7.47
-8.72
-9.82
-10.91
-12.12
-13.51
-15.02
-16.50
-17.78
-18.72
-19.32
-19.70
-20.06
-20.62
-21.52
-22.78
-24.27
-25.80
-27.12
-27.95
-27.91
-26.67
-23.98
-19.76
-14.24
-7.85
-1.13
5.46
11.75
17.81
23.79
29.69
35.21
39.77
42.73
43.65
42.39
39.20
34.56
29.10
23.44
18.09
13.47
9.84
7.30
5.80
5.16
5.10
5.32
5.54
5.51
5.07
4.14
2.76
1.15
-0.39
-1.55
-2.14
-2.16
-1.80
-1.40
-1.26
-1.55
-2.25
-3.20
-4.22
-5.22
-6.22
-7.36
-8.74
-10.35
-12.10
-13.82
-15.39
-16.84
-18.26
-19.77
-21.42
-23.14
-24.81
-26.39
-28.00
-29.85
-32.13
-34.80
-37.50
-39.59
-40.36
-39.35
-36.48
-32.18
-27.20
-22.39
-18.46
-15.84
-14.69
-14.94
-16.41
-18.85
-21.98
-25.49
-29.06
-32.42
-35.41
-37.98
-40.25
-42.37
-44.54
-46.86
-49.25
-51.46
-53.09
-53.71
-53.00
-50.91
-47.59
-43.29
-38.18
-32.15
-24.93
-16.21
-5.92
5.59
17.56
29.08
39.32
47.81
54.54
59.74
63.80
67.00
69.51
71.42
72.85
74.07
75.42
77.20
79.49
82.01
84.10
84.93
83.78
80.32
74.82
68.16
61.58
56.36
53.44
53.22
55.58
59.98
65.74
72.20
78.75
84.91
90.21
94.25
96.74
97.49
96.55
94.09
90.48
86.15
81.60
77.22
73.23
69.53
65.68
60.93
54.40
45.33
33.34
18.63
1.95
-15.57
-32.66
-48.20
-61.42
-71.88
-79.44
-84.15
-86.20
-86.00
-84.16
-81.49
-78.81
-76.72
-75.50
-75.02
-74.98
-75.04
-75.00
-74.79
-74.45
-73.95
-73.18
-71.98
-70.26
-68.00
-65.29
-62.21
-58.83
-55.17
-51.38
-47.75
-44.70
-42.65
-41.81
-42.07
-42.97
-43.78
-43.65
-41.79
-37.63
-30.88
-21.70
-10.64
1.39
13.39
24.38
33.72
41.08
46.41
49.84
51.50
51.54
50.04
47.11
42.95
37.84
32.20
26.56
21.38
17.03
13.68
11.34
9.90
9.24
9.26
9.83
10.78
11.85
12.77
13.29
13.32
12.85
11.99
10.82
9.38
7.66
5.66
3.40
0.89
-1.87
-4.95
-8.43
-12.34
-16.65
-21.27
-26.17
-31.38
-37.01
-43.11
-49.61
-56.26
-62.69
-68.57
-73.75
-78.37
-82.77
-87.36
-92.49
-98.33
-104.90
-112.13
-119.90
-128.05
-136.27
-143.85
-150.09
-154.52
-157.14
-158.33
-158.77
-159.22
-160.25
-162.16
-164.69
-167.36
-169.54
-170.29
-168.26
-161.77
-149.43
-130.60
-105.75
-75.75
-42.13
-6.73
28.64
62.46
93.38
120.07
141.27
156.24
166.58
174.07
179.71
183.40
184.69
183.45
180.08
175.39
170.44
169.03
173.10
181.45
190.59
197.49
201.25
202.86
204.10
206.76
216.92
237.79
267.57
300.37
330.10
353.40
370.30
383.32
396.40
419.03
455.32
500.69
543.83
573.35
583.08
573.18
548.10
475.26
345.59
178.21
10.14
-129.48
-230.89
-297.49
-336.97
-357.29
-364.80
-358.60
-339.66
-312.86
-285.61
-263.53
-248.31
-238.73
-234.28
-233.36
-230.46
-223.10
-212.80
-203.83
-199.72
-201.33
-203.93
-206.28
-207.56
-204.61
-196.20
-183.49
-169.40
-156.47
-145.62
-136.37
-128.28
-122.73
-116.64
-108.42
-98.22
-87.51
-77.89
-70.25
-64.63
-60.82
-57.83
-54.78
-51.16
-47.08
-43.33
-40.98
-40.83
-43.05
-47.35
-47.39
-41.64
-30.77
-16.57
-1.26
12.95
24.04
30.30
31.02
27.24
20.82
15.72
16.59
26.72
46.31
72.03
97.39
115.24
121.45
112.74
90.70
61.44
33.50
14.85
10.11
19.04
37.64
59.64
77.60
86.30
83.45
69.55
46.73
18.28
-12.58
-41.09
-60.11
-66.58
-62.39
-53.32
-45.79
-43.87
-48.28
-55.56
-58.83
-50.74
-26.92
13.00
65.28
123.92
182.64
236.75
274.39
287.76
274.77
238.86
187.27
129.21
73.29
25.02
-14.21
-49.09
-83.72
-119.02
-153.20
-184.21
-210.43
-231.21
-246.77
-240.67
-206.36
-151.76
-92.59
-39.91
2.07
33.77
56.93
72.93
83.21
86.65
83.77
77.34
70.84
64.68
58.31
50.52
39.69
25.40
6.57
-15.98
-39.63
-55.74
-63.95
-66.74
-67.07
-67.81
-69.73
-72.79
-75.25
-74.56
-68.87
-59.41
-51.68
-46.47
-45.44
-49.30
-58.23
-71.12
-84.94
-94.73
-95.34
-82.50
-55.34
-19.55
14.47
35.05
34.23
11.08
-28.86
-74.86
-115.27
-141.84
-153.21
-153.02
-146.46
-136.95
-125.30
-111.15
-95.42
-81.24
-72.87
-73.98
-84.70
-100.82
-115.09
-120.13
-111.40
-88.89
-57.08
-22.86
7.14
29.33
44.03
54.32
63.66
73.83
84.23
92.82
97.97
99.80
100.47
103.01
109.63
120.58
134.08
147.32
157.39
161.97
159.54
149.36
131.56
107.16
78.18
47.31
17.40
-9.24
-31.39
-48.95
-62.69
-73.79
-83.40
-92.17
-99.85
-105.09
-105.40
-97.71
-79.22
-48.33
-5.14
48.72
110.55
177.00
244.08
307.02
360.30
398.49
417.65
416.67
397.81
365.89
326.67
285.03
243.98
204.83
167.98
133.84
103.30
77.39
56.78
41.18
29.32
19.21
8.66
-4.08
-19.98
-39.28
-61.46
-85.54
-110.30
-134.40
-156.53
-175.62
-190.89
-202.03
-209.28
-213.31
-215.04
-215.30
-214.60
-212.96
-210.04
-205.45
-199.15
-191.72
-184.31
-178.18
-174.07
-171.67
-169.41
-164.88
-155.58
-139.71
-116.76
-87.65
-54.54
-20.23
12.38
40.87
63.73
80.52
91.77
98.68
102.56
104.37
104.46
102.69
98.70
92.35
83.90
74.08
63.91
54.50
46.90
41.87
39.68
40.00
41.76
43.38
43.33
40.63
35.22
27.95
20.07
12.59
5.94
-0.07
-5.81
-11.36
-16.43
-20.48
-23.06
-24.07
-23.75
-22.43
-20.36
-17.65
-14.42
-10.81
-6.91
-2.48
3.16
11.02
21.84
35.43
50.22
63.70
73.31
77.63
77.10
73.81
70.38
68.66
68.89
69.87
69.87
67.75
63.52
57.92
51.49
43.78
33.33
18.48
-1.43
-25.47
-51.25
-76.05
-97.81
-115.69
-129.71
-139.89
-145.65
-145.72
-138.90
-124.91
-104.94
-81.43
-57.39
-35.35
-16.76
-1.88
9.83
19.11
26.45
31.98
35.74
37.94
39.26
40.60
42.66
45.48
48.25
49.73
48.89
45.73
41.31
37.39
35.53
36.29
38.98
41.97
43.46
42.17
37.73
30.50
21.23
10.60
-1.15
-14.09
-28.43
-43.98
-59.83
-74.07
-84.21
-87.80
-83.36
-71.07
-52.80
-31.62
-10.79
7.17
20.97
30.50
36.44
39.57
40.42
39.16
35.79
30.56
24.11
17.48
11.83
8.12
6.77
7.66
10.31
14.13
18.66
23.52
28.24
32.15
34.29
33.72
29.83
22.69
13.05
2.20
-8.49
-18.00
-25.88
-32.35
-38.00
-43.48
-49.12
-54.80
-59.98
-64.10
-66.81
-68.19
-68.81
-69.50
-71.07
-74.05
-78.49
-83.73
-88.45
-90.74
-88.53
-80.13
-64.91
-43.53
-17.91
9.51
36.33
60.77
81.74
98.59
110.88
118.24
120.58
118.24
112.12
103.41
93.21
82.24
70.79
59.00
47.20
36.04
26.44
19.27
15.04
13.66
14.53
16.69
19.05
20.65
20.82
19.32
16.37
12.55
8.52
4.73
1.17
-2.59
-7.21
-13.23
-20.81
-29.62
-39.06
-48.38
-56.95
-64.31
-70.13
-74.26
-76.75
-78.05
-78.97
-80.63
-84.12
-89.93
-97.66
-105.84
-112.13
-113.92
-109.14
-96.96
-78.11
-54.83
-30.28
-7.72
10.27
22.33
28.38
29.39
26.73
21.65
14.95
6.89
-2.46
-12.98
-24.13
-35.05
-44.72
-52.27
-57.26
-59.77
-60.29
-59.56
-58.44
-57.71
-57.91
-59.13
-60.72
-61.13
-58.18
-49.52
-33.60
-10.43
18.22
49.30
79.61
106.94
130.73
151.90
171.81
191.17
209.25
224.10
233.40
235.55
230.31
218.75
202.55
183.25
161.88
139.08
115.53
92.18
70.26
50.77
34.07
19.74
6.78
-5.81
-18.55
-31.26
-43.26
-53.66
-61.72
-66.99
-69.15
-67.98
-63.20
-54.76
-43.04
-29.17
-15.02
-2.92
4.89
7.00
3.53
-3.59
-10.88
-14.23
-9.91
4.26
28.46
61.00
98.98
139.20
178.88
215.96
249.09
277.45
300.48
317.90
329.59
335.54
335.69
329.80
317.43
298.08
271.52
237.93
198.20
153.85
106.69
58.47
10.55
-36.23
-81.35
-124.39
-164.73
-201.38
-233.07
-258.62
-277.22
-288.78
-294.06
-294.59
-292.36
-289.45
-287.46
-287.31
-289.15
-292.45
-296.33
-299.72
-301.57
-300.99
-297.53
-291.42
-283.93
-277.26
-273.88
-275.49
-282.02
-290.98
-297.94
-297.81
-286.64
-262.95
-228.16
-185.82
-140.15
-94.53
-50.65
-8.56
32.78
74.88
119.34
167.59
220.48
277.55
336.23
391.57
436.95
465.92
474.09
460.56
427.99
381.49
326.81
268.91
211.27
156.06
104.77
58.67
18.85
-14.01
-40.04
-60.18
-75.99
-88.98
-100.12
-109.57
-116.89
-121.57
-123.33
-122.26
-118.43
-111.51
-100.61
-84.75
-63.74
-38.81
-12.81
10.59
28.02
37.51
38.99
33.93
24.61
13.31
1.80
-8.74
-17.60
-24.37
-28.79
-30.75
-30.33
-27.77
-23.53
-18.24
-12.69
-7.61
-3.61
-0.91
0.44
0.58
-0.41
-2.70
-6.49
-12.00
-19.10
-27.32
-35.89
-43.98
-50.96
-56.53
-60.80
-64.25
-67.63
-71.70
-77.08
-83.91
-91.63
-98.89
-103.70
-103.91
-97.81
-84.77
-65.57
-42.29
-17.80
5.00
23.82
37.44
45.67
49.13
48.70
45.33
39.85
33.02
25.63
18.47
12.27
7.53
4.40
2.74
2.33
2.98
4.67
7.45
11.22
15.56
19.72
22.79
24.09
23.41
21.11
17.94
14.67
11.72
9.04
6.14
2.47
-2.29
-7.95
-13.96
-19.57
-24.24
-27.89
-30.83
-33.62
-36.73
-40.28
-43.87
-46.67
-47.44
-44.76
-37.33
-24.40
-6.22
15.72
38.80
59.93
76.48
87.11
92.08
92.95
91.80
90.26
89.10
88.12
86.64
84.00
79.87
74.24
67.27
59.17
50.10
40.37
30.52
21.33
13.73
8.41
5.59
4.86
5.17
5.29
4.15
1.25
-3.22
-8.54
-13.80
-18.31
-21.82
-24.58
-27.10
-29.93
-33.34
-37.30
-41.47
-45.43
-48.81
-51.53
-53.81
-56.15
-59.13
-63.21
-68.41
-74.06
-78.79
-80.66
-77.72
-68.65
-53.34
-33.20
-10.76
11.04
29.69
43.73
52.86
57.54
58.50
56.29
51.31
43.93
34.89
25.26
16.37
9.34
4.79
2.69
2.56
3.80
5.97
8.91
12.61
16.92
21.32
24.96
26.91
26.51
23.75
19.22
13.96
9.02
4.97
1.83
-0.95
-4.08
-8.10
-13.07
-18.55
-23.81
-28.13
-31.11
-32.82
-33.78
-34.78
-36.71
-40.19
-45.34
-51.56
-57.48
-61.14
-60.53
-54.14
-41.61
-23.91
-3.17
17.87
36.57
50.97
60.15
64.15
63.79
60.16
54.39
47.39
39.80
32.11
24.74
18.13
12.74
8.90
6.71
6.05
6.60
7.98
9.92
12.20
14.67
17.05
18.99
20.00
19.71
17.96
14.89
10.90
6.51
2.19
-1.79
-5.36
-8.61
-11.70
-14.82
-18.07
-21.47
-24.94
-28.33
-31.38
-33.90
-35.73
-36.91
-37.63
-38.28
-39.35
-41.34
-44.58
-49.05
-54.11
-58.46
-60.35
-57.96
-50.13
-36.83
-19.29
0.24
19.19
35.33
47.26
54.52
57.43
56.72
53.21
47.66
40.83
33.53
26.65
21.00
17.11
15.00
14.28
14.29
14.53
14.88
15.62
17.19
19.77
23.05
26.32
28.69
29.49
28.52
26.05
22.58
18.64
14.59
10.61
6.77
3.18
-0.05
-2.75
-4.92
-6.70
-8.39
-10.26
-12.41
-14.66
-16.69
-18.22
-19.34
-20.45
-22.09
-24.59
-27.81
-31.15
-33.83
-35.37
-35.79
-35.67
-35.87
-37.26
-40.44
-45.51
-52.00
-58.78
-64.05
-65.74
-61.99
-51.86
-35.89
-16.17
4.11
21.61
33.79
39.72
40.10
36.76
31.96
27.54
24.53
23.14
22.85
22.91
22.58
21.36
19.13
16.30
13.69
12.35
13.11
16.18
20.92
25.93
29.47
30.12
27.17
20.78
11.83
1.57
-8.66
-17.65
-24.47
-28.55
-29.75
-28.39
-25.18
-21.04
-16.77
-12.98
-9.91
-7.55
-5.71
-4.16
-2.74
-1.39
-0.09
1.08
2.01
2.52
2.40
1.40
-0.74
-4.22
-9.05
-14.91
-21.07
-26.43
-29.66
-29.44
-24.88
-15.74
-2.63
13.03
29.24
43.85
55.08
61.91
64.33
63.05
59.15
53.57
46.87
39.17
30.49
21.01
11.30
2.17
-5.60
-11.46
-15.30
-17.34
-17.91
-17.35
-16.02
-14.27
-12.57
-11.43
-11.10
-11.36
-11.21
-9.11
-3.46
6.63
20.78
37.21
53.26
66.32
74.67
77.91
76.89
73.07
67.85
62.07
56.05
49.68
42.72
35.05
26.58
17.28
7.11
-3.83
-15.24
-26.61
-37.28
-46.72
-54.75
-61.67
-68.19
-75.15
-83.11
-91.96
-100.74
-107.70
-110.78
-108.20
-99.10
-83.94
-64.53
-43.48
-23.62
-7.12
4.91
12.49
16.47
18.03
18.22
17.74
16.98
16.20
15.81
16.33
18.38
22.43
28.63
36.81
46.52
57.28
68.58
79.92
90.75
100.49
108.63
115.00
119.84
123.73
127.39
131.32
135.55
139.52
142.10
142.00
138.03
129.52
116.38
99.06
78.35
55.24
30.87
6.56
-16.20
-35.88
-51.24
-61.61
-67.08
-68.33
-66.41
-62.40
-57.26
-51.93
-47.30
-44.30
-43.72
-46.01
-51.05
-58.08
-65.71
-72.16
-75.63
-74.69
-68.69
-57.86
-43.21
-26.40
-9.35
5.97
17.68
24.29
24.89
19.41
8.65
-5.96
-22.72
-39.99
-56.42
-70.81
-82.01
-88.82
-90.38
-86.39
-77.45
-65.00
-50.94
-37.11
-24.92
-15.23
-8.46
-4.71
-3.86
-5.52
-9.00
-13.39
-17.75
-21.32
-23.79
-25.21
-25.93
-26.32
-26.72
-27.26
-28.00
-29.02
-30.34
-31.99
-33.80
-35.34
-35.98
-35.10
-32.33
-27.63
-21.26
-13.41
-3.97
7.65
22.08
39.49
59.23
79.86
99.68
117.50
133.05
146.86
159.68
171.72
182.37
190.37
194.31
193.16
186.57
174.76
158.29
137.88
114.39
88.82
62.34
36.21
11.64
-10.42
-29.36
-45.00
-57.56
-67.60
-75.92
-83.44
-90.97
-98.99
-107.35
-115.18
-121.10
-123.63
-121.89
-116.08
-107.66
-98.99
-92.56
-90.32
-93.02
-100.31
-110.96
-123.45
-136.22
-147.92
-157.41
-163.78
-166.48
-165.52
-161.64
-156.28
-151.40
-148.97
-150.37
-155.66
-163.27
-169.97
-171.64
-164.55
-146.56
-118.09
-82.01
-42.79
-4.98
28.11
55.08
76.35
93.35
107.67
120.43
132.13
142.83
152.42
160.82
167.91
173.47
177.14
178.39
176.67
171.59
163.03
151.28
136.92
120.74
103.54
85.96
68.48
51.46
35.30
20.42
7.38
-3.34
-11.38
-16.77
-19.96
-21.77
-23.24
-25.25
-28.38
-32.65
-37.75
-43.10
-48.22
-52.90
-57.27
-61.70
-66.64
-72.32
-78.53
-84.51
-89.19
-91.55
-91.17
-88.54
-84.92
-82.01
-81.26
-83.33
-87.83
-93.32
-97.61
-98.32
-93.44
-81.94
-64.27
-42.39
-19.38
1.48
17.78
28.76
35.38
39.84
44.46
50.84
59.22
68.64
77.37
83.67
86.31
84.84
79.63
71.61
61.95
51.87
42.42
34.34
28.07
23.71
21.11
19.97
19.85
20.31
20.90
21.25
21.18
20.78
20.34
20.26
20.83
22.03
23.39
24.05
23.05
19.64
13.69
5.77
-3.05
-11.53
-18.76
-24.39
-28.66
-32.17
-35.55
-39.23
-43.44
-48.20
-53.31
-58.22
-61.89
-62.84
-59.48
-50.71
-36.47
-18.00
2.39
22.03
38.66
51.03
59.01
63.34
65.08
65.15
64.11
62.19
59.48
56.10
52.28
48.32
44.49
40.96
37.84
35.20
33.16
31.85
31.42
31.94
33.31
35.30
37.46
39.29
40.25
40.02
38.53
36.02
32.93
29.68
26.51
23.36
19.97
16.12
11.81
7.36
3.24
-0.19
-2.84
-5.00
-7.20
-9.97
-13.61
-18.13
-23.21
-28.36
-33.19
-37.49
-41.34
-45.09
-49.16
-53.90
-59.36
-65.17
-70.49
-74.07
-74.52
-70.65
-61.84
-48.36
-31.38
-12.77
5.37
21.19
33.50
41.89
46.67
48.54
48.29
46.66
44.15
41.14
37.91
34.84
32.25
30.46
29.65
29.78
30.71
32.23
34.21
36.54
39.10
41.62
43.74
45.10
45.50
45.01
43.83
42.17
40.00
37.06
32.94
27.41
20.54
12.76
4.74
-2.93
-9.92
-16.23
-22.09
-27.73
-33.19
-38.26
-42.65
-46.11
-48.73
-50.91
-53.31
-56.58
-61.00
-66.27
-71.41
-74.93
-75.23
-71.05
-61.96
-48.47
-31.97
-14.34
2.56
17.24
28.79
36.87
41.59
43.32
42.60
40.01
36.17
31.65
26.97
22.54
18.73
15.84
14.09
13.59
14.24
15.76
17.77
19.91
21.93
23.70
25.14
26.12
26.43
25.86
24.30
21.86
18.88
15.83
13.14
11.06
9.59
8.53
7.63
6.66
5.42
3.83
1.83
-0.60
-3.41
-6.49
-9.68
-12.78
-15.68
-18.38
-21.11
-24.23
-28.10
-32.79
-37.89
-42.45
-45.09
-44.36
-39.29
-29.71
-16.47
-1.24
13.95
27.23
37.33
43.84
47.03
47.63
46.34
43.68
39.87
35.02
29.35
23.30
17.50
12.52
8.66
5.90
4.04
2.84
2.21
2.24
3.01
4.48
6.45
8.62
10.73
12.71
14.57
16.41
18.27
20.15
22.10
24.12
26.02
27.39
27.51
25.53
20.86
13.47
3.98
-6.46
-16.52
-25.04
-31.26
-34.81
-35.70
-34.12
-30.53
-25.55
-20.02
-14.80
-10.61
-7.93
-6.87
-7.37
-9.31
-12.61
-17.26
-23.07
-29.44
-35.32
-39.31
-40.06
-36.76
-29.43
-19.06
-7.31
3.89
12.89
18.61
20.75
19.64
15.99
10.60
4.07
-3.14
-10.75
-18.35
-25.40
-31.12
-34.63
-35.20
-32.31
-25.74
-15.52
-2.06
13.86
30.91
47.39
61.53
72.03
78.45
81.33
81.98
81.93
82.48
84.36
87.73
92.27
97.34
102.11
105.66
107.19
106.26
102.91
97.76
91.66
85.45
79.58
74.03
68.47
62.53
56.04
49.10
41.90
34.52
26.77
18.23
8.41
-3.03
-16.12
-30.49
-45.32
-59.41
-71.25
-79.43
-83.01
-81.94
-77.28
-70.93
-64.92
-60.83
-59.26
-59.91
-62.12
-65.37
-69.60
-75.02
-81.72
-89.29
-96.82
-103.14
-107.31
-108.91
-108.09
-105.37
-101.28
-96.01
-89.41
-81.12
-70.80
-58.46
-44.61
-30.29
-16.76
-5.28
3.33
8.72
11.11
10.97
8.88
5.29
0.53
-5.08
-11.09
-16.93
-22.01
-25.92
-28.58
-30.35
-31.82
-33.49
-35.63
-38.12
-40.57
-42.50
-43.37
-42.50
-39.07
-32.10
-20.92
-5.60
12.76
32.06
49.83
64.01
73.63
78.83
80.51
79.73
77.25
73.44
68.53
62.89
57.07
51.64
46.97
43.04
39.53
36.04
32.43
28.85
25.67
23.24
21.67
20.78
20.22
19.54
18.41
16.60
14.06
10.89
7.35
3.81
0.62
-1.99
-3.98
-5.48
-6.69
-7.70
-8.53
-9.12
-9.47
-9.76
-10.30
-11.51
-13.67
-16.75
-20.32
-23.48
-25.03
-23.76
-18.80
-9.97
2.01
15.60
28.80
39.67
46.85
49.86
49.00
45.10
39.10
31.72
23.39
14.43
5.11
-4.14
-12.84
-20.53
-26.82
-31.46
-34.31
-35.34
-34.73
-32.99
-30.84
-29.06
-28.18
-28.26
-28.88
-29.33
-28.88
-27.08
-23.89
-19.66
-15.02
-10.68
-7.23
-4.95
-3.66
-2.68
-1.20
1.48
5.67
11.15
17.30
23.41
28.90
33.47
37.14
40.01
42.21
43.85
44.83
44.90
43.67
40.73
35.89
29.47
22.00
14.58
8.38
4.26
2.31
1.83
1.48
-0.23
-4.09
-11.11
-21.37
-34.72
-51.13
-70.79
-93.93
-120.35
-149.15
-177.85
-205.05
-228.32
-245.39
-254.37
-253.72
-242.35
-219.89
-186.90
-143.86
-94.85
-42.99
8.52
56.90
99.95
136.06
164.15
183.58
195.76
199.19
194.57
182.89
165.31
143.29
118.59
93.04
58.45
29.02
2.49
-21.88
-44.62
-65.67
-84.13
-98.63
-107.96
-111.48
-107.58
-98.28
-83.54
-63.22
-37.32
-6.49
27.85
63.71
99.03
133.33
163.97
190.11
210.87
225.28
232.27
231.05
221.45
204.18
181.65
155.49
128.67
103.91
83.13
66.95
54.85
45.59
37.92
31.47
25.69
20.90
17.48
15.56
14.91
15.05
15.32
14.95
13.34
9.76
4.12
-3.12
-10.98
-18.28
-24.03
-27.74
-29.39
-29.33
-27.94
-25.56
-22.37
-18.49
-14.13
-9.53
-5.02
-0.95
2.37
4.68
5.94
6.45
7.07
9.08
13.91
22.54
34.95
49.80
64.62
76.32
81.98
79.51
68.05
48.10
21.30
-9.97
-42.91
-74.66
-102.51
-124.13
-137.80
-142.71
-139.20
-128.84
-114.23
-98.64
-85.41
-77.40
-76.48
-83.18
-96.51
-114.12
-132.74
-148.85
-159.45
-162.74
-158.28
-146.97
-130.55
-111.20
-91.07
-72.01
-55.36
-41.83
-31.40
-23.47
-17.19
-11.79
-6.84
-2.32
1.51
4.18
5.10
3.74
-0.06
-5.65
-11.36
-14.78
-13.58
-6.50
5.97
21.68
37.79
51.94
63.16
71.85
79.16
85.96
92.37
97.77
101.45
103.23
103.67
103.68
103.98
104.65
105.18
104.94
103.65
101.74
100.08
99.52
100.38
102.29
104.42
106.02
106.73
106.59
105.76
104.07
100.89
95.44
87.22
76.53
64.51
52.71
42.45
34.31
27.95
22.44
16.70
9.98
2.08
-6.67
-15.49
-23.31
-28.90
-31.06
-29.00
-22.60
-12.65
-0.74
11.10
20.99
27.64
30.65
30.38
27.64
23.26
17.83
11.59
4.63
-3.04
-11.38
-20.44
-30.39
-41.57
-54.31
-68.69
-84.44
-101.08
-118.09
-135.26
-152.58
-170.06
-187.43
-204.03
-219.03
-231.81
-242.19
-250.41
-256.91
-261.95
-265.58
-267.87
-269.18
-270.39
-272.70
-277.17
-284.19
-293.22
-302.89
-311.48
-317.27
-318.83
-315.03
-304.94
-287.76
-263.03
-230.88
-192.23
-148.73
-102.37
-54.89
-7.26
40.40
88.32
136.36
183.18
226.20
262.05
287.76
301.81
304.80
299.18
288.38
275.70
263.52
253.12
245.02
239.35
236.05
234.61
233.79
231.56
225.54
213.87
196.01
173.05
147.52
122.33
99.84
81.11
65.80
52.72
40.56
28.51
16.49
4.96
-5.49
-14.49
-21.97
-28.17
-33.34
-37.64
-41.11
-43.68
-45.31
-46.00
-45.80
-44.79
-43.08
-40.85
-38.34
-35.91
-33.97
-32.93
-33.07
-34.44
-36.71
-39.12
-40.57
-39.78
-35.67
-27.65
-15.90
-1.39
14.32
29.47
42.51
52.44
58.86
61.89
61.93
59.44
54.81
48.38
40.54
31.88
23.17
15.30
9.04
4.82
2.64
2.17
2.93
4.59
6.96
9.97
13.49
17.18
20.56
23.07
24.35
24.28
23.03
20.85
17.92
14.30
9.99
5.11
-0.06
-5.04
-9.32
-12.61
-14.94
-16.67
-18.34
-20.37
-22.85
-25.55
-27.99
-29.72
-30.60
-30.84
-30.95
-31.51
-32.88
-35.07
-37.64
-39.84
-40.68
-39.24
-34.83
-27.25
-16.90
-4.78
7.76
19.28
28.71
35.54
39.81
41.96
42.47
41.72
39.88
37.07
33.51
29.61
25.92
22.97
21.08
20.29
20.31
20.79
21.36
21.81
22.13
22.37
22.55
22.58
22.31
21.57
20.24
18.36
16.00
13.22
10.02
6.36
2.21
-2.30
-6.95
-11.45
-15.59
-19.29
-22.54
-25.36
-27.73
-29.62
-31.07
-32.31
-33.71
-35.71
-38.57
-42.24
-46.33
-50.15
-52.92
-53.90
-52.51
-48.49
-41.85
-33.04
-22.87
-12.44
-2.84
4.98
10.57
13.85
15.15
14.90
13.49
11.20
8.22
4.73
1.01
-2.60
-5.75
-8.10
-9.42
-9.55
-8.47
-6.30
-3.32
0.07
3.35
6.05
7.82
8.49
8.07
6.71
4.59
1.91
-1.21
-4.56
-7.97
-11.26
-14.28
-16.92
-19.20
-21.21
-23.09
-24.96
-26.91
-28.97
-31.16
-33.54
-36.09
-38.59
-40.47
-40.83
-38.67
-33.24
-24.50
-13.19
-0.73
11.21
21.25
28.65
33.36
35.78
36.44
35.77
33.99
31.25
27.71
23.75
19.83
16.48
14.01
12.48
11.67
11.27
11.03
10.89
11.04
11.66
12.83
14.33
15.71
16.48
16.28
15.09
13.17
11.01
9.00
7.36
5.98
4.61
2.88
0.57
-2.38
-5.78
-9.31
-12.54
-15.15
-16.95
-18.03
-18.71
-19.44
-20.66
-22.70
-25.60
-29.08
-32.63
-35.49
-36.86
-35.99
-32.39
-26.05
-17.45
-7.49
2.71
12.16
20.17
26.40
30.75
33.26
34.02
33.22
31.13
28.20
24.90
21.64
18.70
16.22
14.33
13.17
12.89
13.61
15.25
17.59
20.30
22.99
25.36
27.16
28.18
28.25
27.27
25.31
22.63
19.66
16.76
14.14
11.75
9.37
6.79
3.96
1.04
-1.71
-4.08
-6.02
-7.65
-9.18
-10.76
-12.50
-14.39
-16.37
-18.38
-20.37
-22.29
-24.10
-25.79
-27.38
-28.92
-30.58
-32.54
-34.97
-37.85
-40.87
-43.28
-44.04
-42.09
-36.76
-28.03
-16.65
-3.96
8.52
19.42
27.85
33.40
36.15
36.45
34.77
31.65
27.61
23.13
18.70
14.70
11.46
9.21
8.01
7.83
8.49
9.78
11.46
13.35
15.32
17.35
19.37
21.29
22.97
24.21
24.82
24.70
23.86
22.41
20.53
18.44
16.31
14.29
12.51
11.05
9.88
8.99
8.31
7.83
7.58
7.59
7.86
8.31
8.74
8.94
8.80
8.34
7.77
7.46
7.79
9.00
11.09
13.70
16.26
18.23
19.45
20.45
22.49
27.34
36.65
51.31
70.99
94.12
118.36
141.33
161.23
177.34
189.97
200.06
208.73
216.75
224.38
231.21
236.15
237.54
233.30
221.33
200.15
169.42
130.09
84.14
33.89
-18.59
-71.86
-124.91
-176.72
-226.08
-271.64
-312.25
-347.45
-377.52
-403.35
-426.13
-447.21
-467.96
-489.48
-511.84
-533.41
-550.62
-558.72
-553.37
-532.47
-497.06
-450.94
-399.09
-345.81
-293.57
-242.95
-193.57
-145.06
-97.50
-51.18
-6.07
38.23
82.15
125.22
165.59
200.01
224.63
236.00
232.21
213.48
182.23
142.63
99.71
58.40
22.61
-5.51
-25.72
-39.37
-48.66
-55.74
-62.17
-68.74
-75.64
-82.69
-89.42
-95.05
-98.77
-100.11
-99.53
-98.37
-98.23
-99.86
-102.04
-101.55
-94.08
-76.01
-45.87
-4.91
43.80
96.86
152.01
208.75
267.77
329.54
392.88
454.29
508.27
548.77
571.02
572.93
555.45
521.74
475.82
421.53
362.29
301.51
242.93
190.41
146.98
113.83
89.88
72.46
58.70
46.74
36.15
27.43
21.21
17.68
16.57
17.42
19.76
22.96
26.04
27.73
27.01
23.82
19.33
15.67
15.05
18.67
26.30
36.55
47.79
59.13
70.77
83.60
98.30
114.37
129.78
141.36
145.66
140.07
123.56
97.01
62.89
24.49
-14.92
-53.01
-88.93
-123.52
-159.02
-198.27
-243.62
-295.77
-352.81
-410.15
-461.35
-499.81
-520.58
-521.77
-504.82
-473.74
-433.54
-388.79
-342.64
-296.71
-251.54
-207.12
-163.20
-119.28
-74.47
-27.44
23.41
79.16
139.35
201.42
260.84
312.14
350.59
373.72
381.77
377.12
362.93
341.90
315.91
286.61
256.24
228.06
205.81
192.37
188.44
191.91
198.41
202.62
199.92
187.50
164.84
133.52
96.32
56.29
16.01
-22.58
-57.98
-88.61
-112.46
-127.39
-131.95
-126.16
-111.99
-92.95
-73.03
-55.46
-42.12
-33.53
-29.45
-29.48
-33.20
-39.93
-48.51
-57.39
-65.16
-71.09
-75.32
-78.48
-81.16
-83.47
-85.07
-85.56
-84.78
-82.84
-79.85
-75.68
-69.92
-62.18
-52.44
-41.13
-28.86
-16.02
-2.61
11.63
26.84
42.68
58.35
72.86
85.47
95.93
104.21
110.27
113.65
113.60
109.42
100.94
88.77
74.20
58.75
43.79
30.26
18.67
9.24
1.94
-3.57
-7.99
-12.37
-17.84
-25.03
-33.68
-42.45
-49.19
-51.68
-48.38
-39.05
-24.80
-7.77
9.55
24.96
36.99
44.95
48.83
49.01
46.12
40.97
34.37
26.96
18.89
9.63
-1.99
-17.43
-37.78
-63.12
-92.11
-122.08
-149.65
-171.57
-185.59
-190.92
-188.26
-179.27
-165.86
-149.65
-131.63
-112.38
-92.48
-72.85
-54.85
-39.97
-29.23
-22.73
-19.54
-18.08
-16.70
-14.44
-11.24
-7.90
-5.47
-4.73
-5.78
-8.03
-10.48
-12.20
-12.79
-12.63
-12.66
-14.03
-17.56
-23.30
-30.48
-37.62
-43.04
-45.29
-43.58
-37.98
-29.29
-18.71
-7.46
3.54
13.77
23.03
31.19
37.95
42.88
45.53
45.69
43.60
39.89
35.46
31.09
27.36
24.58
22.89
22.38
23.04
24.73
27.09
29.51
31.32
31.96
31.22
29.34
26.88
24.46
22.43
20.73
18.97
16.61
13.33
9.09
4.20
-0.83
-5.44
-9.13
-11.57
-12.66
-12.62
-11.93
-11.24
-11.15
-12.04
-13.92
-16.40
-18.90
-20.88
-22.20
-23.24
-24.94
-28.32
-34.02
-41.67
-49.88
-56.47
-59.36
-57.34
-50.57
-40.47
-29.17
-18.81
-11.06
-6.91
-6.61
-9.70
-14.88
-20.20
-23.45
-22.85
-17.69
-8.63
2.59
13.84
23.40
30.44
35.11
38.22
40.74
43.43
46.70
50.61
55.01
59.61
64.10
68.15
71.34
73.22
73.34
71.47
67.68
62.46
56.50
50.42
44.53
38.80
33.02
27.18
21.57
16.77
13.21
10.94
9.52
8.23
6.59
4.49
2.28
0.40
-0.92
-1.81
-2.62
-3.65
-4.94
-6.21
-7.13
-7.64
-8.05
-9.06
-11.34
-15.29
-20.84
-27.39
-34.07
-39.88
-43.83
-45.04
-42.79
-36.70
-26.95
-14.45
-0.75
12.36
23.30
31.24
36.12
38.42
38.70
37.25
34.07
29.18
22.91
15.95
9.28
3.72
-0.29
-2.73
-3.87
-4.03
-3.42
-2.10
-0.12
2.41
5.30
8.20
10.76
12.65
13.71
13.92
13.47
12.63
11.69
10.79
9.87
8.71
7.08
4.84
2.09
-0.85
-3.53
-5.59
-6.84
-7.42
-7.65
-7.92
-8.51
-9.51
-10.86
-12.45
-14.16
-15.85
-17.36
-18.65
-19.80
-21.14
-23.05
-25.71
-28.83
-31.59
-32.84
-31.58
-27.30
-20.19
-11.04
-0.91
9.13
18.16
25.46
30.51
33.11
33.33
31.60
28.56
24.90
21.13
17.57
14.33
11.46
9.00
7.07
5.76
5.09
5.00
5.36
6.12
7.20
8.54
10.02
11.40
12.36
12.63
12.05
10.60
8.45
5.86
3.09
0.38
-2.15
-4.47
-6.63
-8.78
-11.06
-13.47
-15.92
-18.18
-19.98
-21.27
-22.18
-23.05
-24.18
-25.75
-27.65
-29.64
-31.55
-33.44
-35.51
-37.90
-40.38
-42.23
-42.43
-40.06
-34.79
-27.08
-18.03
-8.96
-0.94
5.54
10.51
14.26
16.96
18.54
18.71
17.27
14.30
10.27
5.92
1.96
-1.14
-3.30
-4.63
-5.30
-5.36
-4.64
-2.96
-0.23
3.36
7.36
11.18
14.31
16.39
17.30
17.13
16.05
14.33
12.19
9.89
7.64
5.56
3.62
1.64
-0.64
-3.41
-6.68
-10.17
-13.43
-16.01
-17.67
-18.47
-18.73
-18.97
-19.68
-21.27
-23.89
-27.36
-31.04
-33.93
-34.81
-32.60
-26.82
-17.80
-6.64
5.05
15.70
24.19
30.07
33.57
35.19
35.44
34.58
32.66
29.70
25.84
21.52
17.33
13.83
11.32
9.75
8.83
8.23
7.89
8.06
9.14
11.37
14.50
17.80
20.30
21.25
20.42
18.21
15.31
12.40
9.76
7.27
4.71
1.93
-0.90
-3.35
-5.05
-5.78
-5.69
-5.14
-4.60
-4.50
-5.10
-6.46
-8.49
-10.93
-13.50
-15.91
-17.99
-19.63
-20.82
-21.57
-21.96
-22.11
-22.21
-22.54
-23.46
-25.36
-28.47
-32.71
-37.50
-41.72
-43.90
-42.66
-37.25
-27.88
-15.74
-2.58
9.85
20.31
28.24
33.53
36.35
36.86
35.31
32.17
28.16
24.15
20.83
18.51
17.06
16.10
15.28
14.55
14.19
14.57
15.95
18.24
20.97
23.51
25.25
25.86
25.35
23.97
22.13
20.16
18.27
16.52
14.88
13.30
11.77
10.32
8.96
7.61
6.07
4.10
1.49
-1.78
-5.50
-9.17
-12.19
-14.15
-14.95
-15.05
-15.23
-16.30
-18.68
-22.21
-26.17
-29.63
-31.89
-32.76
-32.57
-31.91
-31.37
-31.32
-31.96
-33.39
-35.58
-38.22
-40.51
-41.26
-39.21
-33.61
-24.61
-13.40
-1.70
8.84
17.15
23.05
26.88
29.21
30.41
30.59
29.72
27.85
25.25
22.39
19.70
17.41
15.49
13.71
11.88
10.06
8.59
7.90
8.25
9.52
11.23
12.76
13.64
13.74
13.23
12.34
11.21
9.79
7.99
5.84
3.60
1.66
0.27
-0.57
-1.18
-1.99
-3.28
-4.96
-6.60
-7.60
-7.56
-6.48
-4.81
-3.32
-2.76
-3.56
-5.72
-8.77
-12.06
-14.97
-17.11
-18.43
-19.16
-19.78
-20.88
-23.06
-26.69
-31.59
-36.91
-41.09
-42.29
-39.05
-30.99
-19.06
-5.36
7.59
17.71
24.01
26.65
26.58
24.89
22.36
19.36
15.95
12.27
8.58
5.21
2.37
-0.01
-2.16
-4.25
-6.15
-7.40
-7.55
-6.34
-4.04
-1.29
1.14
2.78
3.62
4.13
4.95
6.59
9.19
12.46
15.83
18.76
20.76
21.59
21.19
19.67
17.30
14.44
11.48
8.77
6.58
5.03
4.11
3.66
3.40
3.01
2.19
0.67
-1.60
-4.44
-7.46
-10.18
-12.22
-13.56
-14.52
-15.69
-17.69
-20.87
-25.10
-29.66
-33.39
-34.95
-33.30
-28.11
-19.84
-9.62
1.17
11.24
19.79
26.42
31.03
33.66
34.33
33.18
30.53
26.95
23.12
19.66
16.97
15.08
13.80
12.87
12.11
11.59
11.51
12.13
13.52
15.44
17.43
18.95
19.70
19.70
19.29
18.90
18.76
18.79
18.64
17.95
16.48
14.30
11.68
8.93
6.32
4.01
2.12
0.70
-0.28
-0.96
-1.68
-2.78
-4.52
-6.87
-9.53
-12.06
-14.07
-15.41
-16.14
-16.51
-16.77
-17.13
-17.76
-18.85
-20.61
-23.13
-26.17
-29.02
-30.61
-29.89
-26.26
-19.91
-11.82
-3.36
4.21
10.13
14.34
17.19
19.13
20.33
20.55
19.30
16.07
10.71
3.66
-4.10
-11.34
-16.93
-20.31
-21.50
-20.98
-19.26
-16.64
-13.18
-8.92
-4.14
0.45
4.02
5.90
6.01
4.85
3.25
1.88
1.02
0.45
-0.27
-1.48
-3.25
-5.38
-7.51
-9.31
-10.58
-11.22
-11.29
-10.92
-10.40
-10.04
-10.14
-10.84
-12.03
-13.29
-14.17
-14.36
-13.97
-13.56
-13.95
-15.85
-19.37
-23.83
-27.81
-29.69
-28.15
-22.81
-14.24
-3.81
6.86
16.37
23.83
28.85
31.37
31.55
29.73
26.42
22.26
18.01
14.29
11.51
9.80
8.97
8.66
8.44
8.02
7.36
6.67
6.35
6.82
8.24
10.43
12.92
15.11
16.54
17.02
16.64
15.61
14.14
12.34
10.28
8.04
5.80
3.82
2.33
1.36
0.74
0.06
-1.02
-2.70
-4.87
-7.19
-9.35
-11.22
-12.89
-14.50
-16.09
-17.46
-18.36
-18.62
-18.44
-18.35
-18.93
-20.67
-23.66
-27.63
-31.97
-35.84
-38.29
-38.37
-35.43
-29.35
-20.70
-10.63
-0.53
8.43
15.61
20.89
24.51
26.70
27.60
27.28
25.84
23.61
20.99
18.37
15.99
13.91
12.07
10.49
9.32
8.83
9.27
10.75
13.15
16.12
19.16
21.79
23.64
24.51
24.36
23.27
21.42
19.09
16.61
14.28
12.31
10.68
9.16
7.44
5.33
2.83
0.21
-2.22
-4.26
-5.97
-7.50
-8.98
-10.41
-11.72
-12.96
-14.34
-16.14
-18.51
-21.25
-23.89
-25.90
-27.08
-27.69
-28.42
-29.98
-32.80
-36.72
-40.97
-44.41
-45.75
-44.00
-38.71
-30.17
-19.47
-8.13
2.28
10.61
16.31
19.47
20.49
19.88
18.07
15.42
12.34
9.31
6.84
5.27
4.77
5.22
6.34
7.86
9.53
11.25
12.99
14.79
16.64
18.52
20.32
21.81
22.76
22.97
22.30
20.75
18.45
15.67
12.75
10.06
7.91
6.44
5.57
5.04
4.48
3.62
2.39
0.94
-0.46
-1.58
-2.41
-3.12
-3.97
-5.11
-6.54
-8.13
-9.75
-11.38
-13.10
-14.96
-16.94
-18.95
-20.93
-23.02
-25.48
-28.50
-31.88
-34.86
-36.27
-34.98
-30.39
-22.79
-13.24
-3.19
6.06
13.74
19.64
23.93
26.89
28.68
29.30
28.67
26.75
23.70
19.90
15.90
12.26
9.36
7.38
6.28
5.96
6.33
7.39
9.05
11.12
13.22
14.91
15.81
15.74
14.81
13.27
11.46
9.61
7.87
6.23
4.64
2.98
1.20
-0.62
-2.26
-3.40
-3.81
-3.42
-2.43
-1.25
-0.30
0.08
-0.18
-0.94
-1.88
-2.79
-3.61
-4.56
-5.95
-7.97
-10.50
-13.05
-14.96
-15.76
-15.45
-14.62
-14.24
-15.25
-18.13
-22.64
-27.83
-32.22
-34.31
-32.98
-27.86
-19.45
-9.05
1.71
11.26
18.62
23.50
26.22
27.45
27.82
27.78
27.48
26.85
25.73
23.98
21.60
18.76
15.79
13.18
11.40
10.85
11.68
13.80
16.81
20.17
23.27
25.59
26.84
26.99
26.28
25.12
23.90
22.85
21.90
20.70
18.79
15.86
11.94
7.52
3.34
0.17
-1.56
-1.93
-1.52
-1.07
-1.21
-2.12
-3.57
-5.12
-6.44
-7.50
-8.53
-9.87
-11.71
-14.03
-16.66
-19.42
-22.24
-25.17
-28.21
-31.25
-34.13
-36.67
-38.92
-41.05
-43.25
-45.50
-47.38
-48.15
-47.02
-43.42
-37.32
-29.29
-20.35
-11.68
-4.39
0.78
3.54
4.02
2.70
0.21
-2.77
-5.74
-8.45
-10.95
-13.64
-17.23
-22.65
-30.84
-42.52
-57.88
-76.51
-97.48
-119.65
-141.87
-163.19
-182.72
-199.52
-212.51
-220.65
-223.20
-220.14
-212.42
-201.88
-191.17
-183.23
-180.77
-185.38
-196.81
-212.52
-228.08
-238.31
-238.89
-227.69
-205.31
-174.42
-138.54
-100.65
-62.55
-24.88
12.43
49.69
87.39
126.42
168.29
214.81
267.30
325.42
386.46
445.50
496.56
534.35
555.98
561.76
554.72
539.28
519.57
498.27
476.22
452.91
427.38
398.93
367.53
333.69
298.18
261.65
224.49
186.91
149.10
111.61
75.37
41.56
11.22
-15.15
-37.67
-57.04
-73.99
-88.96
-101.85
-112.32
-120.11
-125.38
-128.79
-131.16
-133.11
-134.70
-135.53
-135.02
-132.85
-129.17
-124.60
-119.92
-115.76
-112.34
-109.55
-107.12
-104.81
-102.64
-100.75
-99.27
-98.27
-97.61
-97.07
-96.37
-95.33
-93.84
-91.86
-89.43
-86.55
-83.13
-78.96
-73.77
-67.35
-59.71
-51.29
-42.89
-35.57
-30.35
-27.92
-28.42
-31.41
-35.98
-41.07
-45.77
-49.54
-52.37
-54.67
-57.03
-59.91
-63.42
-67.30
-71.09
-74.49
-77.48
-80.45
-83.99
-88.65
-94.74
-102.26
-110.97
-120.52
-130.55
-140.62
-150.20
-158.50
-164.59
-167.53
-166.54
-161.05
-150.67
-134.99
-113.65
-86.48
-53.88
-17.05
22.18
61.90
100.64
137.63
172.41
204.12
230.67
248.74
254.42
244.51
218.02
177.07
127.05
75.65
31.26
0.96
-11.13
-4.97
15.38
42.78
68.70
85.24
86.89
71.71
41.65
1.99
-40.01
-77.07
-103.91
-118.67
-122.99
-120.71
-115.71
-109.96
-102.76
-91.65
-74.26
-49.98
-20.59
10.51
39.71
64.27
82.47
93.23
95.71
89.57
75.57
56.18
35.51
18.32
8.66
8.55
17.52
32.82
50.44
66.35
77.75
83.78
85.63
85.89
87.38
91.88
99.54
109.04
118.41
126.04
131.17
133.93
134.92
134.93
134.72
135.04
136.56
139.61
143.97
148.68
152.32
153.52
151.50
146.38
139.04
130.75
122.66
115.51
109.58
105.07
102.27
101.71
103.97
109.39
117.85
128.83
141.46
154.73
167.41
177.87
184.14
184.16
176.32
160.08
135.96
105.28
69.54
30.13
-11.57
-53.71
-93.73
-128.73
-156.35
-175.81
-188.19
-195.84
-201.12
-205.26
-208.07
-208.59
-206.14
-201.24
-195.68
-191.91
-192.02
-196.89
-205.90
-217.12
-227.95
-235.78
-238.61
-235.50
-226.62
-213.03
-196.22
-177.64
-158.39
-139.27
-120.90
-103.90
-88.75
-75.56
-63.91
-52.93
-41.69
-29.74
-17.51
-6.17
2.77
8.22
10.02
9.05
6.95
5.46
5.89
8.75
13.74
20.04
26.63
32.67
37.61
41.18
43.34
44.09
43.46
41.57
38.72
35.39
32.15
29.44
27.28
25.15
22.02
16.73
8.40
-3.14
-17.12
-31.93
-45.58
-56.27
-62.95
-65.54
-64.86
-62.21
-58.79
-55.39
-52.27
-49.38
-46.78
-44.78
-44.00
-44.98
-47.86
-52.09
-56.49
-59.55
-59.90
-56.67
-49.67
-39.28
-26.31
-11.87
2.61
15.62
25.80
32.55
36.40
38.98
42.38
48.07
56.08
64.87
71.95
75.19
73.75
68.40
60.95
53.30
46.61
41.17
36.76
33.13
30.34
28.53
27.67
27.20
26.12
23.30
17.90
9.78
-0.36
-11.11
-20.71
-27.44
-30.22
-28.93
-24.54
-18.94
-14.40
-12.86
-15.28
-21.38
-29.77
-38.48
-45.51
-49.27
-48.88
-44.21
-35.77
-24.58
-11.95
0.79
12.63
23.08
32.32
41.07
50.23
60.46
71.81
83.50
93.97
101.31
103.79
100.39
91.01
76.56
58.53
38.64
18.59
-0.14
-16.29
-28.88
-37.39
-41.94
-43.33
-42.90
-42.09
-41.94
-42.88
-44.65
-46.62
-48.11
-48.74
-48.48
-47.68
-46.79
-46.28
-46.38
-47.01
-47.78
-48.09
-47.30
-44.95
-40.96
-35.69
-29.72
-23.78
-18.46
-14.12
-10.91
-8.87
-8.01
-8.34
-9.75
-11.94
-14.34
-16.19
-16.79
-15.76
-13.17
-9.46
-5.16
-0.64
4.06
9.20
15.05
21.67
28.85
36.15
43.07
49.25
54.51
58.76
61.96
64.04
65.00
64.94
64.21
63.30
62.67
62.58
62.92
63.28
63.11
61.93
59.56
56.08
51.76
46.76
41.11
34.57
26.87
17.74
6.98
-5.53
-19.88
-35.94
-53.13
-70.18
-85.15
-95.78
-100.15
-97.37
-88.01
-73.93
-57.67
-41.75
-27.87
-16.81
-8.52
-2.57
1.48
3.93
4.97
4.78
3.62
1.86
-0.08
-1.67
-2.28
-1.23
1.96
7.30
14.14
21.30
27.51
31.80
33.99
34.70
35.08
36.43
39.75
45.45
53.32
62.53
71.88
79.98
85.68
88.27
87.73
84.69
80.16
75.00
69.60
63.76
56.87
48.34
37.94
26.01
13.28
0.57
-11.55
-22.89
-33.47
-43.33
-52.23
-59.64
-64.90
-67.46
-67.15
-64.20
-59.19
-52.94
-46.25
-39.78
-33.94
-28.92
-24.82
-21.68
-19.63
-18.79
-19.14
-20.48
-22.37
-24.27
-25.73
-26.46
-26.51
-26.08
-25.42
-24.64
-23.66
-22.27
-20.26
-17.61
-14.53
-11.47
-8.87
-7.03
-5.94
-5.39
-5.13
-4.98
-4.93
-5.13
-5.69
-6.63
-7.88
-9.34
-10.97
-12.78
-14.76
-16.82
-18.83
-20.67
-22.36
-23.96
-25.50
-26.72
-27.10
-25.99
-22.91
-17.85
-11.34
-4.25
2.49
8.24
12.71
15.90
17.97
19.03
19.12
18.30
16.69
14.53
12.13
9.84
7.98
6.81
6.50
7.08
8.45
10.36
12.48
14.47
16.09
17.19
17.68
17.50
16.54
14.75
12.16
8.94
5.42
2.00
-0.99
-3.36
-5.10
-6.41
-7.59
-8.97
-10.77
-13.00
-15.37
-17.36
-18.38
-17.93
-15.76
-11.94
-6.84
-0.94
5.24
11.21
16.58
21.01
24.24
26.08
26.45
25.38
23.11
20.00
16.55
13.23
10.42
8.29
6.81
5.82
5.16
4.75
4.56
4.61
4.82
5.09
5.24
5.16
4.83
4.27
3.51
2.51
1.16
-0.62
-2.78
-5.15
-7.51
-9.73
-11.85
-14.01
-16.44
-19.21
-22.10
-24.59
-25.97
-25.57
-22.99
-18.30
-12.02
-4.99
1.91
7.97
12.80
16.30
18.60
19.85
20.13
19.56
18.23
16.39
14.33
12.34
10.59
9.16
8.01
7.15
6.62
6.50
6.86
7.65
8.68
9.68
10.38
10.62
10.32
9.52
8.30
6.74
4.96
3.07
1.22
-0.48
-1.94
-3.20
-4.41
-5.72
-7.27
-9.06
-10.91
-12.57
-13.81
-14.59
-15.05
-15.57
-16.50
-18.09
-20.27
-22.67
-24.65
-25.51
-24.69
-21.92
-17.29
-11.24
-4.46
2.27
8.25
13.03
16.45
18.61
19.78
20.19
20.01
19.25
17.91
16.03
13.76
11.41
9.26
7.62
6.64
6.37
6.77
7.72
9.08
10.67
12.28
13.68
14.67
15.09
14.91
14.19
13.10
11.86
10.63
9.51
8.50
7.58
6.70
5.87
5.08
4.32
3.52
2.62
1.62
0.55
-0.46
-1.29
-1.86
-2.22
-2.54
-3.02
-3.87
-5.13
-6.76
-8.60
-10.44
-12.14
-13.62
-14.87
-15.98
-17.12
-18.48
-20.24
-22.37
-24.62
-26.42
-27.06
-25.94
-22.78
-17.75
-11.48
-4.76
1.63
7.20
11.68
15.02
17.25
18.36
18.38
17.36
15.44
12.89
10.05
7.31
5.01
3.39
2.53
2.39
2.83
3.69
4.81
6.07
7.31
8.37
9.06
9.28
9.02
8.45
7.75
7.06
6.38
5.63
4.66
3.44
2.07
0.71
-0.48
-1.46
-2.30
-3.10
-3.97
-4.90
-5.88
-6.84
-7.73
-8.55
-9.32
-10.08
-10.85
-11.63
-12.41
-13.20
-14.12
-15.30
-16.83
-18.61
-20.34
-21.48
-21.43
-19.78
-16.41
-11.59
-5.86
0.13
5.78
10.65
14.49
17.17
18.69
19.10
18.47
16.92
14.64
11.92
9.14
6.66
4.70
3.37
2.67
2.52
2.87
3.73
5.09
6.88
8.90
10.83
12.35
13.19
13.27
12.65
11.56
10.23
8.86
7.55
6.30
5.05
3.78
2.51
1.31
0.25
-0.69
-1.59
-2.57
-3.66
-4.83
-5.98
-7.07
-8.10
-9.14
-10.21
-11.29
-12.29
-13.20
-14.11
-15.24
-16.80
-18.83
-21.05
-22.82
-23.41
-22.14
-18.74
-13.44
-6.94
-0.18
5.92
10.71
13.94
15.73
16.43
16.40
15.93
15.15
14.07
12.71
11.14
9.48
7.91
6.55
5.53
4.95
4.89
5.44
6.52
7.91
9.29
10.32
10.80
10.78
10.52
10.32
10.35
10.60
10.85
10.90
10.61
9.96
9.03
7.87
6.50
4.97
3.43
2.11
1.22
0.88
0.93
1.02
0.69
-0.37
-2.17
-4.40
-6.54
-8.13
-8.92
-9.02
-8.80
-8.71
-9.08
-9.98
-11.23
-12.53
-13.60
-14.32
-14.73
-14.99
-15.33
-15.96
-17.06
-18.71
-20.77
-22.87
-24.42
-24.72
-23.21
-19.67
-14.33
-7.80
-0.89
5.56
10.92
14.80
17.04
17.71
17.01
15.30
13.04
10.67
8.59
7.00
5.93
5.18
4.53
3.79
2.89
1.91
1.05
0.53
0.56
1.33
2.89
5.17
7.89
10.62
12.86
14.22
14.54
13.94
12.73
11.26
9.76
8.33
6.93
5.52
4.07
2.61
1.15
-0.36
-1.99
-3.79
-5.73
-7.70
-9.56
-11.21
-12.66
-13.96
-15.17
-16.28
-17.26
-18.12
-18.93
-19.86
-21.00
-22.32
-23.50
-24.04
-23.38
-21.15
-17.28
-12.09
-6.15
-0.15
5.35
9.98
13.61
16.19
17.76
18.34
17.96
16.74
14.93
12.86
10.84
9.08
7.65
6.54
5.73
5.25
5.20
5.70
6.80
8.41
10.29
12.05
13.22
13.45
12.55
10.59
7.90
4.92
2.04
-0.54
-2.77
-4.69
-6.29
-7.51
-8.30
-8.79
-9.30
-10.27
-12.10
-14.98
-18.72
-22.79
-26.43
-28.88
-29.58
-28.30
-25.21
-20.79
-15.69
-10.51
-5.67
-1.42
2.14
4.98
7.08
8.39
8.91
8.67
7.81
6.53
5.13
3.89
3.02
2.59
2.47
2.45
2.37
2.22
2.15
2.41
3.14
4.34
5.78
7.12
7.97
8.06
7.23
5.54
3.19
0.53
-2.04
-4.20
-5.76
-6.75
-7.38
-7.94
-8.68
-9.76
-11.12
-12.55
-13.67
-13.97
-12.97
-10.35
-6.06
-0.42
5.99
12.47
18.38
23.29
26.98
29.47
30.87
31.39
31.27
30.72
29.94
29.02
27.96
26.76
25.43
24.07
22.85
21.99
21.66
21.90
22.63
23.70
24.84
25.72
26.01
25.44
23.86
21.36
18.16
14.59
10.84
6.98
2.94
-1.38
-5.99
-10.72
-15.33
-19.53
-23.08
-25.87
-27.89
-29.26
-30.18
-30.95
-31.87
-33.15
-34.81
-36.60
-38.04
-38.49
-37.39
-34.44
-29.70
-23.67
-17.11
-10.83
-5.47
-1.29
1.74
3.81
5.11
5.70
5.56
4.72
3.34
1.72
0.21
-0.90
-1.48
-1.54
-1.13
-0.33
0.82
2.23
3.76
5.24
6.47
7.30
7.72
7.83
7.81
7.84
8.02
8.32
8.55
8.48
7.93
6.88
5.50
4.10
2.97
2.25
1.91
1.71
1.38
0.71
-0.37
-1.80
-3.48
-5.32
-7.21
-9.04
-10.66
-11.82
-12.28
-11.95
-10.99
-9.84
-9.12
-9.42
-11.05
-13.94
-17.60
-21.28
-24.09
-25.30
-24.44
-21.43
-16.54
-10.34
-3.52
3.22
9.27
14.14
17.59
19.58
20.28
20.05
19.28
18.33
17.33
16.24
14.89
13.19
11.18
9.12
7.37
6.24
5.90
6.39
7.54
9.08
10.67
11.94
12.60
12.47
11.64
10.32
8.87
7.58
6.60
5.89
5.33
4.74
4.04
3.22
2.27
1.25
0.19
-0.89
-1.96
-3.03
-4.12
-5.24
-6.34
-7.30
-7.99
-8.30
-8.34
-8.32
-8.57
-9.37
-10.85
-12.95
-15.44
-17.95
-19.98
-21.00
-20.52
-18.25
-14.22
-8.86
-2.88
2.88
7.83
11.68
14.49
16.53
18.03
19.11
19.72
19.76
19.15
17.93
16.21
14.20
12.12
10.20
8.61
7.51
7.01
7.16
7.91
9.16
10.72
12.29
13.60
14.36
14.41
13.80
12.72
11.46
10.30
9.36
8.64
7.98
7.16
6.01
4.50
2.66
0.64
-1.33
-3.05
-4.33
-5.10
-5.44
-5.56
-5.76
-6.33
-7.47
-9.17
-11.20
-13.20
-14.77
-15.69
-15.98
-15.88
-15.80
-16.09
-16.96
-18.40
-20.21
-22.11
-23.72
-24.64
-24.47
-22.84
-19.51
-14.52
-8.24
-1.34
5.35
11.05
15.25
17.78
18.76
18.50
17.33
15.51
13.23
10.62
7.83
5.09
2.65
0.77
-0.34
-0.62
-0.14
0.93
2.32
3.82
5.30
6.70
8.01
9.18
10.08
10.57
10.47
9.76
8.53
6.94
5.20
3.45
1.74
0.05
-1.61
-3.23
-4.73
-5.98
-6.88
-7.39
-7.59
-7.68
-7.92
-8.51
-9.57
-11.07
-12.90
-14.86
-16.79
-18.58
-20.20
-21.81
-23.67
-26.16
-29.56
-33.89
-38.71
-43.27
-46.61
-48.00
-47.13
-44.25
-40.01
-35.19
-30.55
-26.61
-23.69
-21.86
-21.01
-20.79
-20.69
-20.14
-18.65
-16.04
-12.47
-8.40
-4.33
-0.60
2.76
6.01
9.52
13.59
18.29
23.41
28.62
33.53
37.76
41.00
43.00
43.63
42.98
41.42
39.50
37.85
36.90
36.77
37.29
38.12
38.86
39.22
39.09
38.45
37.42
36.19
34.92
33.66
32.34
30.68
28.27
24.74
19.87
13.73
6.66
-0.73
-7.75
-13.79
-18.47
-21.80
-24.09
-25.86
-27.58
-29.36
-30.97
-31.85
-31.41
-29.31
-25.55
-20.47
-14.56
-8.36
-2.37
2.96
7.20
10.05
11.39
11.39
10.42
8.88
7.03
5.02
2.90
0.81
-1.00
-2.25
-2.74
-2.42
-1.39
0.22
2.26
4.61
7.07
9.32
10.96
11.64
11.20
9.76
7.67
5.35
3.17
1.30
-0.22
-1.50
-2.63
-3.72
-4.81
-5.86
-6.81
-7.56
-8.10
-8.45
-8.72
-9.06
-9.58
-10.29
-11.10
-11.87
-12.49
-12.99
-13.55
-14.40
-15.70
-17.37
-19.14
-20.57
-21.17
-20.59
-18.61
-15.24
-10.63
-5.07
1.06
7.28
13.03
17.77
21.07
22.66
22.53
20.92
18.27
15.16
12.12
9.52
7.44
5.76
4.22
2.66
1.09
-0.22
-0.93
-0.82
0.07
1.45
2.91
4.09
4.81
5.07
5.00
4.71
4.25
3.60
2.71
1.63
0.44
-0.75
-1.84
-2.88
-3.97
-5.22
-6.74
-8.47
-10.24
-11.84
-13.09
-14.01
-14.83
-15.89
-17.50
-19.68
-22.15
-24.30
-25.37
-24.76
-22.19
-17.83
-12.21
-6.01
0.11
5.66
10.39
14.18
16.98
18.78
19.60
19.51
18.62
17.06
14.98
12.49
9.75
7.03
4.66
3.00
2.28
2.59
3.75
5.46
7.36
9.10
10.40
11.11
11.21
10.82
10.12
9.31
8.48
7.59
6.55
5.30
3.84
2.24
0.59
-1.10
-2.87
-4.76
-6.71
-8.60
-10.23
-11.54
-12.56
-13.50
-14.62
-16.14
-18.16
-20.61
-23.26
-25.63
-27.10
-26.98
-24.77
-20.33
-14.09
-6.89
0.27
6.52
11.44
15.02
17.55
19.31
20.43
20.84
20.44
19.18
17.18
14.70
12.02
9.41
7.14
5.45
4.55
4.58
5.53
7.22
9.28
11.27
12.79
13.58
13.60
13.01
12.08
11.04
10.04
9.02
7.81
6.26
4.36
2.32
0.46
-0.94
-1.82
-2.40
-3.02
-3.95
-5.23
-6.64
-7.82
-8.50
-8.67
-8.53
-8.43
-8.69
-9.44
-10.61
-12.01
-13.40
-14.63
-15.60
-16.32
-16.84
-17.25
-17.76
-18.60
-20.03
-22.14
-24.72
-27.26
-28.97
-29.08
-27.05
-22.76
-16.58
-9.22
-1.57
5.58
11.63
16.24
19.33
20.98
21.39
20.77
19.33
17.26
14.78
12.17
9.70
7.67
6.29
5.65
5.70
6.28
7.20
8.24
9.28
10.26
11.14
11.89
12.42
12.65
12.52
12.00
11.17
10.12
8.96
7.76
6.51
5.20
3.81
2.36
0.91
-0.47
-1.73
-2.88
-3.92
-4.84
-5.59
-6.12
-6.45
-6.67
-6.97
-7.52
-8.41
-9.58
-10.85
-12.04
-13.04
-13.86
-14.63
-15.49
-16.52
-17.73
-19.11
-20.65
-22.30
-23.92
-25.17
-25.56
-24.51
-21.63
-16.92
-10.79
-3.98
2.72
8.64
13.46
17.10
19.59
20.97
21.23
20.38
18.57
16.14
13.57
11.31
9.59
8.44
7.73
7.32
7.17
7.35
7.93
8.90
10.08
11.24
12.12
12.64
12.81
12.73
12.53
12.21
11.71
10.91
9.74
8.18
6.34
4.40
2.54
0.84
-0.68
-2.10
-3.49
-4.89
-6.29
-7.66
-8.99
-10.29
-11.57
-12.81
-13.91
-14.79
-15.43
-16.02
-16.86
-18.28
-20.38
-22.89
-25.13
-26.20
-25.31
-22.08
-16.72
-9.94
-2.66
4.31
10.41
15.39
19.16
21.71
23.00
23.05
21.99
20.10
17.74
15.24
12.83
10.62
8.64
6.96
5.71
5.11
5.33
6.43
8.26
10.48
12.58
14.07
14.62
14.17
12.96
11.43
10.00
8.94
8.25
7.69
6.93
5.73
4.07
2.14
0.20
-1.50
-2.89
-4.07
-5.16
-6.32
-7.60
-8.94
-10.27
-11.56
-12.80
-14.04
-15.30
-16.60
-17.93
-19.36
-20.99
-22.91
-25.08
-27.17
-28.64
-28.80
-27.08
-23.31
-17.73
-10.99
-3.90
2.84
8.70
13.42
16.85
18.90
19.56
18.93
17.25
14.85
12.10
9.31
6.66
4.28
2.26
0.69
-0.35
-0.85
-0.87
-0.54
0.06
0.90
1.99
3.33
4.76
5.98
6.56
6.16
4.69
2.36
-0.32
-2.76
-4.57
-5.72
-6.66
-8.14
-10.92
-15.32
-21.04
-27.09
-32.12
-35.05
-35.57
-34.39
-33.11
-33.53
-36.99
-43.80
-53.24
-63.88
-74.29
-83.54
-91.48
-98.53
-105.21
-111.53
-116.77
-119.50
-118.16
-111.74
-100.49
-86.15
-71.63
-60.19
-54.35
-54.89
-60.20
-66.17
-66.79
-55.62
-27.83
17.59
76.65
140.71
198.84
241.21
262.34
262.60
247.55
225.24
202.97
184.79
170.81
158.22
143.45
124.31
101.05
76.09
52.41
31.41
11.36
-12.64
-46.93
-96.29
-161.24
-236.81
-313.67
-381.15
-430.80
-458.85
-466.42
-457.60
-436.81
-406.71
-367.91
-320.24
-264.50
-203.41
-141.10
-81.29
-25.27
28.99
85.85
149.34
220.23
294.52
364.11
419.70
454.29
465.84
457.83
437.64
413.62
392.33
377.15
368.39
364.49
363.11
361.78
357.78
348.10
329.78
300.83
261.21
213.06
160.19
106.89
56.59
11.07
-29.48
-65.70
-98.14
-126.72
-150.80
-169.60
-182.75
-190.49
-193.60
-193.00
-189.38
-183.00
-173.80
-161.66
-146.80
-130.03
-112.73
-96.50
-82.60
-71.37
-62.06
-53.01
-42.18
-27.86
-9.20
13.36
38.18
62.73
84.35
101.00
112.02
118.35
122.20
126.25
132.59
141.85
152.77
162.33
166.49
161.11
143.07
111.19
66.77
13.57
-42.99
-97.09
-143.87
-180.44
-206.10
-221.91
-229.83
-231.89
-229.63
-223.93
-215.12
-203.29
-188.57
-171.52
-153.19
-135.15
-119.07
-106.38
-97.75
-92.97
-91.01
-90.38
-89.57
-87.46
-83.42
-77.28
-69.19
-59.41
-48.27
-36.03
-22.91
-9.10
5.26
20.06
35.21
50.64
66.37
82.45
98.94
115.86
133.08
150.24
166.68
181.51
193.78
202.85
208.59
211.54
212.84
213.94
216.13
220.14
225.86
232.43
238.56
243.00
244.78
243.16
237.52
227.22
211.77
191.28
166.64
139.40
111.10
82.53
53.39
22.54
-11.15
-47.91
-86.72
-125.64
-162.38
-194.99
-222.04
-242.57
-256.00
-262.31
-262.39
-258.30
-253.04
-249.91
-251.61
-259.45
-273.08
-290.67
-309.26
-325.25
-335.01
-335.45
-324.68
-302.52
-270.47
-231.10
-187.09
-140.44
-92.32
-43.65
4.09
48.44
86.41
115.55
135.08
146.20
151.44
153.36
153.40
151.58
147.12
139.49
129.16
117.50
106.08
95.71
86.06
76.08
64.86
52.45
40.05
29.62
22.90
20.60
22.13
25.92
30.17
33.56
35.59
36.56
37.14
38.07
39.84
42.65
46.39
50.68
54.81
57.84
58.78
56.88
51.89
44.15
34.53
24.12
13.97
4.88
-2.68
-8.48
-12.47
-14.77
-15.61
-15.38
-14.48
-13.22
-11.68
-9.75
-7.26
-4.15
-0.68
2.51
4.51
4.45
1.71
-3.82
-11.69
-21.01
-30.69
-39.77
-47.59
-53.89
-58.76
-62.50
-65.45
-67.85
-69.81
-71.31
-72.27
-72.59
-72.21
-71.11
-69.39
-67.24
-64.91
-62.64
-60.56
-58.55
-56.31
-53.36
-49.22
-43.59
-36.34
-27.61
-17.75
-7.27
3.22
13.02
21.53
28.24
32.91
35.56
36.45
35.97
34.56
32.56
30.21
27.63
24.89
22.06
19.31
16.86
14.97
13.80
13.38
13.57
14.13
14.86
15.60
16.28
16.83
17.13
17.01
16.31
14.92
12.92
10.47
7.81
5.16
2.66
0.34
-1.81
-3.84
-5.83
-7.88
-10.15
-12.85
-16.19
-20.28
-24.99
-29.89
-34.26
-37.23
-37.96
-35.93
-31.06
-23.78
-14.93
-5.57
3.27
10.83
16.68
20.72
23.13
24.14
24.02
22.98
21.22
18.91
16.23
13.42
10.70
8.30
6.41
5.15
4.52
4.42
4.64
4.95
5.15
5.15
4.99
4.79
4.68
4.74
4.97
5.28
5.53
5.60
5.37
4.76
3.70
2.16
0.10
-2.55
-5.83
-9.70
-14.01
-18.35
-22.06
-24.34
-24.40
-21.79
-16.58
-9.43
-1.42
6.30
12.80
17.61
20.74
22.46
23.14
23.03
22.24
20.82
18.80
16.33
13.65
11.03
8.75
7.06
6.11
5.95
6.48
7.47
8.59
9.51
9.97
9.85
9.18
8.12
6.82
5.41
3.97
2.49
0.92
-0.71
-2.40
-4.09
-5.72
-7.30
-8.87
-10.51
-12.38
-14.67
-17.53
-20.88
-24.30
-27.01
-27.96
-26.26
-21.55
-14.29
-5.64
2.96
10.28
15.69
19.25
21.43
22.77
23.56
23.87
23.64
22.86
21.72
20.44
19.21
18.08
16.95
15.69
14.31
13.00
12.09
11.91
12.62
14.10
15.96
17.66
18.74
18.93
18.23
16.87
15.21
13.58
12.19
11.00
9.89
8.65
7.15
5.39
3.46
1.51
-0.35
-2.09
-3.71
-5.14
-6.25
-6.96
-7.40
-8.05
-9.61
-12.73
-17.63
-23.78
-29.98
-34.73
-36.69
-35.21
-30.40
-23.10
-14.44
-5.49
2.95
10.39
16.57
21.38
24.73
26.60
27.00
26.03
23.94
21.11
18.03
15.23
13.16
12.11
12.15
13.12
14.66
16.25
17.35
17.51
16.47
14.27
11.24
7.92
4.88
2.56
1.16
0.63
0.75
1.24
1.83
2.26
2.36
2.01
1.20
0.02
-1.35
-2.69
-3.84
-4.69
-5.26
-5.65
-6.00
-6.48
-7.21
-8.26
-9.62
-11.16
-12.68
-13.99
-15.02
-15.88
-16.83
-18.19
-20.10
-22.41
-24.65
-26.14
-26.25
-24.53
-20.86
-15.43
-8.71
-1.32
6.01
12.60
17.87
21.50
23.43
23.84
23.10
21.56
19.57
17.39
15.20
13.13
11.26
9.63
8.25
7.21
6.63
6.66
7.39
8.71
10.36
11.93
13.06
13.53
13.34
12.64
11.66
10.56
9.46
8.37
7.26
6.07
4.74
3.28
1.75
0.29
-1.00
-2.06
-2.98
-3.91
-5.03
-6.40
-7.95
-9.51
-10.93
-12.11
-13.12
-14.02
-14.93
-15.93
-17.06
-18.36
-19.82
-21.37
-22.75
-23.58
-23.41
-21.85
-18.77
-14.30
-8.86
-2.98
2.79
7.99
12.29
15.51
17.58
18.52
18.45
17.51
15.95
13.99
11.82
9.61
7.43
5.38
3.58
2.24
1.53
1.57
2.35
3.67
5.24
6.75
7.95
8.68
8.89
8.59
7.91
7.03
6.16
5.43
4.85
4.26
3.41
2.10
0.31
-1.81
-3.96
-5.88
-7.41
-8.59
-9.56
-10.51
-11.60
-12.91
-14.40
-15.97
-17.46
-18.67
-19.46
-19.86
-20.03
-20.27
-20.90
-22.09
-23.80
-25.64
-27.00
-27.14
-25.37
-21.26
-14.80
-6.48
2.80
11.93
19.83
25.82
29.68
31.60
32.00
31.32
29.84
27.67
24.83
21.38
17.53
13.60
9.96
6.91
4.59
2.99
2.04
1.65
1.79
2.42
3.48
4.80
6.10
7.07
7.49
7.28
6.56
5.55
4.47
3.51
2.71
2.04
1.37
0.51
-0.68
-2.25
-4.13
-6.12
-7.98
-9.55
-10.79
-11.80
-12.72
-13.68
-14.68
-15.66
-16.49
-17.14
-17.70
-18.33
-19.18
-20.22
-21.21
-21.71
-21.23
-19.42
-16.16
-11.65
-6.26
-0.53
5.05
10.02
14.09
17.03
18.75
19.26
18.70
17.28
15.31
13.05
10.74
8.51
6.44
4.56
2.88
1.55
0.74
0.65
1.38
2.83
4.70
6.59
8.13
9.13
9.61
9.70
9.60
9.36
8.93
8.18
6.98
5.32
3.29
1.09
-1.09
-3.03
-4.63
-5.85
-6.77
-7.53
-8.28
-9.15
-10.20
-11.38
-12.60
-13.72
-14.68
-15.50
-16.28
-17.20
-18.40
-19.98
-21.86
-23.78
-25.32
-25.93
-25.12
-22.55
-18.19
-12.34
-5.65
1.14
7.27
12.25
15.84
18.05
19.02
18.89
17.79
15.84
13.23
10.26
7.25
4.55
2.35
0.73
-0.32
-0.83
-0.82
-0.27
0.79
2.28
4.00
5.75
7.29
8.45
9.13
9.31
9.05
8.38
7.34
5.97
4.35
2.63
1.05
-0.10
-0.56
-0.26
0.61
1.54
1.86
0.90
-1.73
-5.99
-11.39
-17.15
-22.48
-26.85
-30.14
-32.59
-34.62
-36.56
-38.48
-40.13
-41.02
-40.64
-38.64
-34.99
-29.94
-23.97
-17.64
-11.49
-6.01
-1.56
1.59
3.25
3.41
2.17
-0.19
-3.35
-6.95
-10.74
-14.55
-18.23
-21.63
-24.50
-26.56
-27.47
-26.94
-24.76
-20.93
-15.70
-9.57
-3.23
2.59
7.36
10.83
13.11
14.51
15.35
15.89
16.21
16.30
16.13
15.74
15.18
14.57
14.02
13.59
13.24
12.79
11.92
10.27
7.57
3.81
-0.71
-5.42
-9.65
-12.81
-14.56
-14.94
-14.34
-13.40
-12.88
-13.45
-15.51
-19.05
-23.73
-28.94
-34.09
-38.80
-43.09
-47.32
-51.99
-57.46
-63.73
-70.38
-76.63
-81.65
-84.80
-85.94
-85.49
-84.54
-84.68
-87.76
-95.23
-107.35
-122.39
-136.45
-144.13
-140.08
-120.89
-86.35
-39.68
13.68
67.92
118.52
163.03
200.80
232.11
257.30
276.49
289.80
297.71
301.17
301.31
299.00
294.51
287.65
278.13
266.06
252.02
236.89
221.33
205.49
188.90
170.73
150.26
127.08
101.35
73.60
44.64
15.42
-13.02
-39.62
-63.40
-83.61
-99.90
-112.39
-121.61
-128.36
-133.45
-137.51
-140.85
-143.43
-144.98
-145.13
-143.55
-140.06
-134.69
-127.67
-119.34
-110.16
-100.69
-91.49
-83.05
-75.58
-68.80
-61.99
-54.12
-44.34
-32.30
-18.45
-3.94
9.77
21.41
30.19
35.95
38.90
39.42
37.83
34.33
29.14
22.57
15.12
7.39
0.03
-6.41
-11.52
-15.08
-17.09
-17.82
-17.69
-17.23
-16.83
-16.65
-16.57
-16.23
-15.25
-13.44
-10.90
-8.05
-5.43
-3.48
-2.45
-2.31
-2.96
-4.31
-6.44
-9.51
-13.62
-18.65
-24.18
-29.52
-33.84
-36.43
-36.92
-35.35
-32.21
-28.30
-24.49
-21.51
-19.73
-19.20
-19.67
-20.74
-22.08
-23.49
-24.99
-26.79
-29.15
-32.26
-36.02
-39.89
-42.92
-43.95
-42.00
-36.63
-28.24
-17.92
-7.14
2.67
10.54
16.14
19.70
21.97
23.93
26.59
30.73
36.68
44.08
51.96
58.88
63.41
64.49
61.77
55.64
47.06
37.23
27.28
18.07
10.08
3.41
-2.20
-7.21
-12.17
-17.45
-22.99
-28.19
-32.08
-33.60
-32.08
-27.48
-20.44
-12.01
-3.33
4.71
11.50
16.74
20.26
22.01
22.09
20.79
18.57
15.95
13.37
11.12
9.28
7.84
6.82
6.23
6.16
6.62
7.54
8.72
9.92
10.88
11.44
11.53
11.24
10.74
10.22
9.85
9.73
9.85
10.12
10.43
10.65
10.71
10.63
10.44
10.18
9.82
9.19
8.07
6.27
3.77
0.78
-2.35
-5.27
-7.82
-10.02
-12.10
-14.25
-16.56
-19.04
-21.68
-24.50
-27.61
-30.94
-34.19
-36.74
-37.77
-36.53
-32.50
-25.52
-15.76
-3.66
10.01
24.08
37.00
46.96
52.40
52.37
47.01
37.47
25.65
13.60
2.97
-5.31
-10.98
-14.27
-15.58
-15.24
-13.55
-10.81
-7.39
-3.79
-0.51
2.16
4.14
5.66
7.09
8.70
10.50
12.17
13.28
13.44
12.53
10.74
8.47
6.12
3.93
1.94
0.00
-2.06
-4.35
-6.78
-9.16
-11.20
-12.69
-13.53
-13.77
-13.56
-13.11
-12.55
-11.93
-11.28
-10.58
-9.93
-9.43
-9.26
-9.60
-10.51
-11.95
-13.70
-15.37
-16.47
-16.52
-15.18
-12.42
-8.48
-3.87
0.83
5.12
8.67
11.34
13.13
14.08
14.26
13.72
12.57
10.94
8.99
6.90
4.86
3.04
1.60
0.76
0.69
1.43
2.87
4.69
6.50
7.93
8.82
9.16
9.11
8.82
8.38
7.81
7.09
6.26
5.39
4.54
3.69
2.75
1.60
0.16
-1.50
-3.22
-4.82
-6.13
-7.14
-7.93
-8.66
-9.47
-10.43
-11.48
-12.53
-13.43
-14.11
-14.60
-15.04
-15.64
-16.60
-17.97
-19.60
-21.07
-21.78
-21.17
-18.88
-14.94
-9.81
-4.18
1.19
5.71
9.12
11.41
12.77
13.37
13.28
12.48
10.93
8.67
5.87
2.86
0.02
-2.28
-3.82
-4.49
-4.40
-3.77
-2.91
-2.15
-1.77
-1.91
-2.44
-2.94
-2.72
-1.07
2.44
7.74
14.23
20.88
26.59
30.50
32.18
31.69
29.43
25.96
21.77
17.23
12.59
8.03
3.71
-0.15
-3.33
-5.75
-7.43
-8.60
-9.56
-10.64
-12.01
-13.71
-15.60
-17.44
-18.96
-19.86
-19.92
-18.98
-17.01
-14.06
-10.28
-5.87
-1.01
4.09
9.10
13.63
17.22
19.39
19.88
18.71
16.17
12.79
9.19
5.91
3.33
1.63
0.84
0.87
1.53
2.57
3.71
4.68
5.33
5.65
5.79
5.95
6.28
6.76
7.23
7.40
7.04
6.06
4.57
2.82
1.05
-0.57
-2.00
-3.31
-4.60
-5.92
-7.27
-8.57
-9.77
-10.83
-11.78
-12.72
-13.77
-15.04
-16.56
-18.26
-19.91
-21.22
-21.83
-21.46
-19.91
-17.12
-13.23
-8.54
-3.48
1.44
5.78
9.23
11.68
13.12
13.65
13.37
12.39
10.81
8.81
6.62
4.48
2.60
1.05
-0.15
-1.03
-1.60
-1.79
-1.52
-0.76
0.39
1.73
2.98
3.95
4.54
4.78
4.75
4.55
4.20
3.69
2.99
2.09
0.99
-0.32
-1.83
-3.52
-5.31
-7.05
-8.56
-9.66
-10.31
-10.61
-10.79
-11.14
-11.88
-13.13
-14.78
-16.55
-18.02
-18.76
-18.39
-16.70
-13.67
-9.47
-4.43
1.02
6.39
11.24
15.18
17.96
19.50
19.84
19.17
17.72
15.77
13.55
11.27
9.11
7.21
5.69
4.61
3.95
3.66
3.64
3.84
4.23
4.78
5.44
6.12
6.66
6.94
6.87
6.46
5.78
4.88
3.81
2.53
1.01
-0.75
-2.66
-4.55
-6.24
-7.60
-8.65
-9.53
-10.47
-11.69
-13.28
-15.21
-17.35
-19.51
-21.48
-22.99
-23.69
-23.20
-21.20
-17.58
-12.54
-6.60
-0.46
5.23
9.98
13.57
16.02
17.46
18.04
17.87
17.03
15.59
13.62
11.23
8.58
5.86
3.33
1.26
-0.08
-0.49
0.11
1.58
3.62
5.80
7.72
9.05
9.66
9.54
8.79
7.57
6.05
4.43
2.88
1.55
0.49
-0.34
-1.07
-1.89
-2.97
-4.38
-6.07
-7.92
-9.70
-11.20
-12.29
-13.00
-13.48
-14.02
-14.89
-16.25
-18.00
-19.81
-21.13
-21.33
-19.95
-16.81
-12.10
-6.39
-0.41
5.13
9.73
13.17
15.46
16.72
17.11
16.74
15.75
14.30
12.64
11.05
9.73
8.78
8.13
7.65
7.22
6.84
6.58
6.55
6.78
7.22
7.74
8.24
8.63
8.89
8.94
8.64
7.80
6.33
4.37
2.25
0.42
-0.78
-1.34
-1.57
-1.93
-2.75
-4.10
-5.72
-7.26
-8.44
-9.21
-9.72
-10.21
-10.84
-11.68
-12.67
-13.79
-15.06
-16.49
-18.06
-19.53
-20.44
-20.26
-18.54
-15.14
-10.28
-4.51
1.49
7.12
11.94
15.75
18.50
20.20
20.90
20.65
19.51
17.62
15.16
12.41
9.69
7.35
5.71
4.90
4.89
5.46
6.33
7.27
8.17
9.02
9.80
10.44
10.83
10.89
10.57
9.92
9.01
7.87
6.49
4.88
3.10
1.28
-0.44
-1.95
-3.24
-4.38
-5.46
-6.57
-7.73
-8.93
-10.11
-11.23
-12.28
-13.26
-14.16
-15.04
-15.93
-16.88
-17.90
-18.88
-19.61
-19.76
-18.96
-16.93
-13.60
-9.12
-3.89
1.58
6.78
11.32
14.98
17.65
19.27
19.80
19.21
17.50
14.82
11.43
7.73
4.19
1.25
-0.78
-1.73
-1.64
-0.64
1.06
3.21
5.53
7.70
9.41
10.39
10.53
9.88
8.74
7.51
6.53
5.94
5.64
5.32
4.71
3.64
2.20
0.63
-0.84
-2.06
-3.08
-4.04
-5.08
-6.24
-7.40
-8.36
-8.99
-9.29
-9.42
-9.66
-10.26
-11.33
-12.79
-14.38
-15.80
-16.75
-16.99
-16.34
-14.64
-11.77
-7.75
-2.84
2.44
7.44
11.54
14.36
15.79
15.99
15.23
13.78
11.84
9.63
7.37
5.29
3.64
2.55
2.03
1.98
2.25
2.68
3.21
3.80
4.51
5.36
6.33
7.29
8.09
8.48
8.31
7.54
6.25
4.62
2.88
1.21
-0.26
-1.51
-2.57
-3.54
-4.56
-5.74
-7.14
-8.71
-10.31
-11.73
-12.76
-13.28
-13.40
-13.38
-13.60
-14.41
-15.96
-18.07
-20.26
-21.83
-22.05
-20.45
-16.94
-11.86
-5.86
0.29
5.92
10.58
14.09
16.53
18.09
19.01
19.41
19.38
18.87
17.86
16.33
14.37
12.14
9.89
7.87
6.33
5.43
5.25
5.70
6.60
7.60
8.33
8.44
7.74
6.23
4.14
1.82
-0.41
-2.32
-3.96
-5.48
-7.17
-9.18
-11.52
-14.00
-16.35
-18.26
-19.60
-20.40
-20.85
-21.28
-21.97
-23.05
-24.42
-25.70
-26.32
-25.77
-23.67
-20.05
-15.23
-9.79
-4.36
0.54
4.58
7.64
9.72
10.91
11.31
11.07
10.31
9.14
7.65
5.88
3.91
1.81
-0.28
-2.21
-3.85
-5.11
-5.95
-6.33
-6.24
-5.72
-4.87
-3.86
-2.94
-2.33
-2.18
-2.60
-3.57
-5.00
-6.76
-8.63
-10.40
-11.87
-12.96
-13.82
-14.74
-16.08
-18.07
-20.54
-22.95
-24.46
-24.33
-22.14
-17.98
-12.42
-6.19
0.02
5.82
11.01
15.49
19.06
21.41
22.25
21.48
19.28
16.12
12.57
9.14
6.19
3.86
2.15
1.00
0.34
0.07
0.08
0.21
0.33
0.36
0.25
0.01
-0.36
-0.86
-1.42
-1.93
-2.28
-2.36
-2.24
-2.12
-2.28
-3.00
-4.41
-6.46
-8.95
-11.55
-13.88
-15.47
-15.87
-14.67
-11.67
-7.01
-1.19
5.04
10.85
15.64
19.22
21.72
23.49
24.82
25.77
26.14
25.63
24.06
21.51
18.37
15.16
12.34
10.20
8.75
7.88
7.45
7.35
7.50
7.84
8.29
8.65
8.73
8.34
7.34
5.74
3.70
1.54
-0.41
-1.87
-2.75
-3.21
-3.55
-4.09
-5.07
-6.55
-8.38
-10.27
-11.82
-12.66
-12.42
-10.87
-7.93
-3.75
1.30
6.67
11.70
15.83
18.70
20.19
20.48
19.84
18.62
17.08
15.36
13.51
11.51
9.37
7.24
5.32
3.93
3.30
3.53
4.52
5.96
7.47
8.73
9.56
9.98
10.15
10.24
10.30
10.31
10.15
9.71
8.95
7.95
6.90
5.97
5.24
4.61
3.86
2.70
0.99
-1.30
-3.95
-6.63
-9.01
-10.86
-12.15
-12.99
-13.61
-14.22
-15.04
-16.19
-17.69
-19.40
-20.94
-21.79
-21.37
-19.25
-15.38
-10.11
-4.14
1.74
6.90
10.97
13.87
15.65
16.36
16.04
14.73
12.61
10.06
7.55
5.51
4.14
3.37
2.92
2.49
1.93
1.33
0.96
1.04
1.66
2.68
3.76
4.54
4.75
4.35
3.45
2.32
1.24
0.42
-0.05
-0.22
-0.27
-0.42
-0.87
-1.81
-3.33
-5.44
-8.07
-11.03
-14.03
-16.76
-18.97
-20.60
-21.76
-22.73
-23.79
-25.14
-26.74
-28.41
-29.85
-30.91
-31.58
-32.09
-32.71
-33.53
-34.30
-34.38
-32.90
-29.06
-22.43
-12.99
-1.08
12.78
28.03
44.04
60.04
75.08
88.11
98.19
104.80
107.83
107.54
104.27
98.36
90.20
80.49
70.41
61.59
55.65
53.51
54.81
57.74
59.45
56.90
47.96
32.17
10.93
-12.95
-36.18
-55.91
-70.32
-78.72
-81.27
-78.64
-71.82
-62.13
-51.30
-41.28
-33.71
-29.40
-27.93
-27.87
-27.42
-25.23
-21.00
-15.46
-10.01
-6.10
-4.71
-6.10
-9.90
-15.22
-20.95
-26.01
-29.50
-30.88
-30.03
-27.17
-22.84
-17.70
-12.49
-7.90
-4.43
-2.29
-1.34
-1.22
-1.52
-2.01
-2.76
-3.97
-5.84
-8.28
-10.97
-13.44
-15.29
-16.36
-16.74
-16.60
-16.12
-15.36
-14.33
-13.06
-11.71
-10.51
-9.74
-9.59
-10.09
-11.14
-12.49
-13.88
-15.10
-16.01
-16.61
-16.97
-17.17
-17.30
-17.40
-17.46
-17.55
-17.77
-18.28
-19.22
-20.63
-22.37
-24.16
-25.67
-26.68
-27.19
-27.52
-28.26
-29.99
-33.00
-37.05
-41.27
-44.40
-45.15
-42.70
-36.87
-28.22
-17.78
-6.74
3.83
13.12
20.59
25.97
29.24
30.56
30.24
28.68
26.26
23.36
20.41
17.97
16.80
17.71
21.29
27.53
35.63
44.21
51.71
57.03
59.81
60.43
59.62
58.05
56.04
53.50
50.09
45.46
39.38
31.90
23.38
14.63
6.84
1.34
-0.81
0.75
5.51
12.23
19.29
25.11
28.47
28.59
25.33
19.14
11.08
2.60
-4.81
-10.15
-13.13
-14.24
-14.36
-14.30
-14.51
-14.85
-14.89
-14.17
-12.47
-9.93
-7.02
-4.28
-2.29
-1.43
-1.90
-3.64
-6.37
-9.62
-12.83
-15.49
-17.28
-18.08
-18.07
-17.53
-16.77
-15.99
-15.24
-14.43
-13.44
-12.21
-10.79
-9.36
-8.14
-7.34
-7.07
-7.37
-8.18
-9.41
-10.89
-12.39
-13.66
-14.49
-14.83
-14.86
-14.89
-15.25
-16.06
-17.11
-17.96
-18.05
-17.00
-14.75
-11.53
-7.75
-3.77
0.16
3.92
7.39
10.36
12.56
13.70
13.65
12.50
10.57
8.29
6.05
4.10
2.50
1.19
0.10
-0.80
-1.46
-1.82
-1.76
-1.24
-0.28
0.99
2.37
3.62
4.58
5.14
5.31
5.13
4.63
3.82
2.70
1.31
-0.24
-1.82
-3.29
-4.59
-5.69
-6.58
-7.21
-7.49
-7.34
-6.83
-6.14
-5.62
-5.59
-6.27
-7.62
-9.35
-10.97
-11.96
-11.89
-10.51
-7.88
-4.25
-0.03
4.33
8.43
11.98
14.82
16.90
18.26
18.94
19.00
18.46
17.36
15.75
13.77
11.63
9.55
7.78
6.51
5.83
5.73
6.13
6.88
7.81
8.76
9.56
10.10
10.33
10.24
9.89
9.35
8.69
7.94
7.05
5.96
4.61
3.03
1.32
-0.29
-1.64
-2.68
-3.56
-4.51
-5.77
-7.33
-9.03
-10.55
-11.65
-12.29
-12.69
-13.17
-14.02
-15.37
-17.13
-18.97
-20.45
-21.13
-20.63
-18.72
-15.36
-10.73
-5.13
0.97
7.08
12.59
16.96
19.74
20.76
20.21
18.63
16.71
14.96
13.60
12.45
11.19
9.61
7.76
5.92
4.50
3.71
3.57
3.85
4.29
4.74
5.23
5.82
6.59
7.44
8.16
8.46
8.12
7.09
5.47
3.53
1.61
0.09
-0.75
-0.79
-0.15
0.88
1.84
2.30
1.96
0.76
-1.18
-3.60
-6.20
-8.72
-10.96
-12.82
-14.31
-15.55
-16.72
-17.94
-19.18
-20.21
-20.62
-20.01
-18.11
-14.96
-10.84
-6.19
-1.46
2.98
6.88
10.07
12.38
13.72
14.04
13.43
12.07
10.20
8.00
5.63
3.23
0.94
-1.01
-2.37
-2.92
-2.63
-1.62
-0.16
1.43
2.91
4.12
5.06
5.74
6.21
6.46
6.48
6.25
5.78
5.08
4.18
3.09
1.84
0.47
-0.95
-2.36
-3.68
-4.92
-6.08
-7.16
-8.10
-8.87
-9.48
-10.03
-10.75
-11.85
-13.47
-15.49
-17.59
-19.25
-20.02
-19.58
-17.77
-14.69
-10.54
-5.64
-0.41
4.68
9.16
12.65
14.95
16.09
16.25
15.70
14.63
13.12
11.19
8.88
6.41
4.07
2.18
0.97
0.48
0.63
1.28
2.32
3.66
5.20
6.75
8.05
8.87
9.08
8.79
8.22
7.63
7.10
6.54
5.74
4.49
2.74
0.62
-1.67
-3.93
-5.98
-7.73
-9.14
-10.24
-11.15
-12.09
-13.29
-14.86
-16.58
-17.95
-18.35
-17.20
-14.33
-9.97
-4.71
0.75
5.84
10.19
13.66
16.21
17.80
18.39
17.98
16.68
14.71
12.42
10.17
8.26
6.86
6.02
5.71
5.80
6.18
6.69
7.19
7.58
7.80
7.85
7.78
7.62
7.41
7.12
6.68
6.05
5.19
4.16
3.07
2.01
1.06
0.18
-0.70
-1.66
-2.75
-3.95
-5.20
-6.40
-7.48
-8.37
-9.03
-9.45
-9.71
-9.99
-10.56
-11.65
-13.32
-15.37
-17.35
-18.67
-18.81
-17.45
-14.53
-10.29
-5.16
0.29
5.53
10.08
13.69
16.28
17.95
18.83
19.02
18.58
17.53
15.93
14.00
12.00
10.25
8.99
8.33
8.28
8.75
9.61
10.70
11.84
12.82
13.46
13.64
13.36
12.74
11.95
11.20
10.58
10.10
9.66
9.07
8.23
7.13
5.86
4.64
3.63
2.90
2.37
1.86
1.21
0.34
-0.74
-1.90
-3.09
-4.30
-5.58
-7.02
-8.68
-10.55
-12.64
-14.93
-17.40
-20.02
-22.61
-24.87
-26.40
-26.77
-25.68
-23.06
-19.08
-14.20
-8.99
-4.01
0.28
3.66
6.02
7.42
7.92
7.64
6.73
5.41
3.99
2.74
1.82
1.29
1.07
1.12
1.45
2.16
3.34
4.97
6.86
8.81
10.61
12.16
13.49
14.56
15.29
15.49
14.98
13.76
12.05
10.22
8.59
7.26
6.08
4.82
3.27
1.38
-0.74
-2.94
-5.16
-7.45
-9.83
-12.26
-14.52
-16.37
-17.62
-18.35
-18.87
-19.64
-21.04
-23.21
-25.96
-28.79
-31.06
-32.14
-31.63
-29.37
-25.54
-20.57
-15.01
-9.51
-4.57
-0.55
2.43
4.44
5.68
6.32
6.51
6.32
5.81
5.07
4.26
3.57
3.16
3.14
3.54
4.35
5.55
7.08
8.80
10.49
11.88
12.75
12.97
12.58
11.74
10.63
9.40
8.09
6.67
5.10
3.39
1.60
-0.16
-1.80
-3.32
-4.79
-6.34
-8.09
-10.11
-12.40
-14.89
-17.45
-19.88
-21.95
-23.48
-24.34
-24.58
-24.40
-24.13
-24.09
-24.48
-25.19
-25.79
-25.68
-24.22
-21.07
-16.30
-10.38
-4.04
1.98
7.16
11.27
14.30
16.32
17.35
17.32
16.20
14.11
11.34
8.31
5.43
3.00
1.18
0.04
-0.46
-0.40
0.08
0.82
1.62
2.38
3.06
3.67
4.20
4.49
4.36
3.60
2.23
0.45
-1.38
-2.90
-3.96
-4.60
-5.00
-5.35
-5.73
-6.11
-6.42
-6.60
-6.70
-6.80
-6.98
-7.28
-7.76
-8.52
-9.74
-11.56
-13.96
-16.61
-18.89
-20.02
-19.39
-16.67
-12.09
-6.26
-0.03
5.81
10.71
14.45
17.10
18.91
20.16
21.03
21.51
21.47
20.76
19.34
17.32
15.03
12.85
11.10
9.93
9.29
9.02
8.94
8.93
8.98
9.02
8.95
8.60
7.79
6.44
4.66
2.65
0.72
-0.90
-2.09
-2.88
-3.39
-3.75
-4.03
-4.26
-4.44
-4.61
-4.92
-5.56
-6.68
-8.20
-9.76
-10.80
-10.66
-8.91
-5.52
-0.87
4.33
9.29
13.41
16.35
18.11
18.88
18.93
18.53
17.82
16.88
15.74
14.44
13.01
11.51
10.01
8.62
7.51
6.87
6.85
7.49
8.68
10.11
11.41
12.25
12.47
12.15
11.44
10.53
9.47
8.17
6.50
4.36
1.77
-1.11
-4.07
-6.86
-9.34
-11.42
-13.15
-14.64
-16.04
-17.47
-18.98
-20.49
-21.78
-22.53
-22.39
-21.04
-18.33
-14.31
-9.31
-3.86
1.41
5.93
9.37
11.61
12.77
13.04
12.61
11.66
10.35
8.87
7.47
6.34
5.60
5.28
5.29
5.54
6.03
6.85
8.10
9.82
11.85
13.86
15.44
16.20
15.97
14.83
13.02
10.92
8.86
7.07
5.58
4.30
3.03
1.54
-0.29
-2.45
-4.80
-7.06
-8.92
-10.18
-10.76
-10.79
-10.57
-10.48
-10.86
-11.88
-13.41
-15.01
-16.08
-15.96
-14.26
-10.89
-6.15
-0.53
5.38
11.06
16.09
20.11
22.87
24.20
24.09
22.69
20.29
17.22
13.84
10.44
7.27
4.58
2.60
1.52
1.41
2.17
3.55
5.25
7.03
8.74
10.31
11.71
12.87
13.69
14.06
13.89
13.21
12.11
10.82
9.56
8.53
7.79
7.29
6.87
6.29
5.38
4.03
2.29
0.30
-1.80
-3.86
-5.83
-7.78
-9.82
-12.06
-14.63
-17.55
-20.81
-24.34
-27.99
-31.59
-34.95
-37.99
-40.77
-43.58
-46.87
-51.09
-56.50
-62.96
-69.92
-76.63
-82.51
-87.37
-91.51
-95.45
-99.46
-103.25
-105.94
-106.47
-104.19
-99.31
-93.02
-86.96
-82.54
-80.52
-80.93
-83.41
-87.54
-92.68
-97.62
-100.16
-97.48
-87.19
-68.75
-44.36
-18.40
4.16
19.83
27.68
29.27
27.29
23.95
20.25
16.08
11.12
5.55
0.17
-4.05
-6.64
-7.90
-8.51
-8.80
-8.04
-4.35
4.85
21.84
47.51
80.73
118.44
156.45
190.71
218.44
238.77
252.58
261.78
268.30
273.32
276.88
278.04
275.35
267.36
253.13
232.53
206.49
176.98
146.93
119.78
98.81
86.21
82.45
86.01
93.85
102.32
108.37
110.37
108.38
103.90
99.13
96.33
97.16
102.33
111.49
123.27
135.68
146.60
154.30
157.86
157.20
152.97
146.16
137.69
128.02
116.96
103.71
87.27
66.94
42.82
15.89
-12.47
-41.00
-68.95
-96.09
-122.08
-146.08
-166.75
-182.93
-194.53
-202.99
-210.83
-220.47
-232.91
-247.31
-261.44
-272.90
-280.29
-283.47
-283.20
-280.29
-275.08
-267.44
-257.23
-244.75
-230.88
-216.94
-204.14
-193.24
-184.32
-176.88
-169.96
-162.39
-153.02
-141.01
-126.05
-108.46
-89.14
-69.26
-49.96
-32.18
-16.65
-3.99
5.19
10.52
12.10
10.85
8.40
6.74
7.49
11.43
18.14
26.37
34.60
41.58
46.64
49.76
51.26
51.63
51.23
50.23
48.66
46.45
43.55
40.05
36.17
32.25
28.63
25.53
22.99
20.97
19.37
18.19
17.49
17.32
17.58
18.05
18.40
18.41
17.97
17.21
16.29
15.39
14.52
13.54
12.25
10.49
8.28
5.84
3.50
1.46
-0.27
-1.92
-3.85
-6.29
-9.19
-12.08
-14.27
-14.97
-13.66
-10.23
-5.01
1.28
7.73
13.47
17.83
20.51
21.60
21.44
20.46
19.06
17.42
15.63
13.75
11.92
10.31
9.12
8.45
8.29
8.51
9.01
9.74
10.71
11.94
13.37
14.86
16.21
17.23
17.79
17.81
17.30
16.33
15.03
13.47
11.73
9.83
7.83
5.80
3.90
2.30
1.15
0.43
-0.02
-0.50
-1.32
-2.63
-4.37
-6.31
-8.12
-9.56
-10.61
-11.42
-12.30
-13.49
-15.05
-16.75
-18.12
-18.64
-17.89
-15.66
-12.02
-7.20
-1.57
4.42
10.24
15.34
19.21
21.51
22.17
21.42
19.68
17.39
14.88
12.40
10.08
8.07
6.57
5.75
5.70
6.36
7.49
8.76
9.88
10.66
11.10
11.33
11.50
11.68
11.84
11.85
11.55
10.83
9.69
8.24
6.60
4.92
3.27
1.68
0.16
-1.33
-2.82
-4.38
-6.04
-7.84
-9.76
-11.70
-13.54
-15.12
-16.34
-17.20
-17.86
-18.59
-19.71
-21.38
-23.46
-25.46
-26.64
-26.25
-23.82
-19.37
-13.39
-6.64
0.08
6.16
11.26
15.28
18.17
19.91
20.48
19.99
18.70
17.00
15.35
14.10
13.33
12.89
12.47
11.73
10.57
9.14
7.80
6.96
6.89
7.61
8.90
10.47
12.05
13.46
14.61
15.33
15.40
14.56
12.67
9.81
6.29
2.58
-0.83
-3.60
-5.56
-6.66
-6.97
-6.66
-6.00
-5.37
-5.19
-5.83
-7.46
-10.01
-13.18
-16.47
-19.31
-21.15
-21.52
-20.14
-17.02
-12.46
-7.02
-1.34
3.97
8.49
12.09
14.89
17.10
18.88
20.21
20.90
20.67
19.33
16.94
13.86
10.62
7.81
5.83
4.83
4.74
5.35
6.44
7.84
9.33
10.68
11.66
12.12
12.10
11.80
11.44
11.14
10.83
10.31
9.38
7.99
6.27
4.43
2.69
1.12
-0.34
-1.81
-3.41
-5.17
-7.01
-8.77
-10.33
-11.63
-12.75
-13.87
-15.18
-16.82
-18.79
-20.88
-22.72
-23.91
-24.08
-22.98
-20.53
-16.81
-12.07
-6.66
-1.09
4.11
8.47
11.65
13.55
14.29
14.16
13.44
12.36
11.02
9.48
7.82
6.19
4.79
3.81
3.35
3.45
4.02
4.98
6.21
7.56
8.90
10.08
10.97
11.48
11.58
11.29
10.64
9.72
8.59
7.36
6.08
4.81
3.54
2.27
0.94
-0.47
-2.00
-3.65
-5.40
-7.18
-8.83
-10.14
-10.95
-11.30
-11.44
-11.80
-12.82
-14.73
-17.29
-19.88
-21.69
-21.99
-20.38
-16.91
-11.96
-6.05
0.28
6.55
12.37
17.33
21.12
23.53
24.55
24.37
23.30
21.67
19.73
17.64
15.49
13.36
11.41
9.86
8.87
8.56
8.90
9.77
10.98
12.34
13.66
14.79
15.51
15.65
15.08
13.85
12.13
10.22
8.35
6.67
5.14
3.60
1.85
-0.22
-2.55
-4.97
-7.21
-9.02
-10.29
-11.09
-11.69
-12.47
-13.78
-15.77
-18.28
-20.81
-22.69
-23.26
-22.11
-19.18
-14.74
-9.30
-3.39
2.47
7.91
12.61
16.38
19.11
20.81
21.62
21.74
21.33
20.52
19.31
17.77
16.00
14.27
12.89
12.19
12.35
13.42
15.25
17.59
20.12
22.52
24.57
26.17
27.40
28.49
29.67
31.04
32.56
33.99
35.06
35.67
35.92
36.09
36.54
37.47
38.83
40.24
41.13
40.89
39.09
35.58
30.52
24.25
17.18
9.62
1.64
-6.93
-16.48
-27.48
-40.41
-55.54
-72.76
-91.38
-110.00
-126.67
-139.22
-145.79
-145.22
-137.25
-122.40
-101.68
-76.33
-47.69
-17.25
13.32
42.20
67.71
88.68
104.61
115.75
122.86
127.00
129.29
130.62
131.56
132.08
131.68
129.53
124.82
117.10
106.30
92.47
75.42
54.64
29.64
0.64
-31.06
-63.20
-93.25
-119.29
-140.38
-156.47
-167.95
-175.47
-180.28
-184.67
-192.02
-206.04
-229.21
-261.40
-299.25
-336.80
-367.09
-383.86
-382.89
-362.57
-324.07
-271.21
-210.01
-147.74
-91.45
-46.14
-13.31
9.21
25.92
41.35
57.68
73.81
86.13
90.82
86.24
74.23
59.61
48.14
44.20
49.30
62.04
79.29
97.91
116.09
133.56
151.02
169.07
187.47
205.05
220.24
231.92
239.95
244.99
247.77
248.21
244.93
235.69
218.49
192.83
160.33
124.43
89.22
58.14
33.12
14.29
0.42
-10.36
-19.82
-29.21
-39.11
-49.59
-60.41
-71.08
-80.76
-88.17
-91.70
-89.87
-82.01
-68.75
-52.07
-34.67
-19.14
-7.09
1.26
6.88
11.48
16.77
24.04
33.76
45.60
58.50
71.05
81.94
90.48
96.86
102.14
107.89
115.59
126.16
139.54
154.72
169.82
182.43
189.99
190.41
182.56
166.76
144.68
118.94
92.20
66.23
41.49
17.35
-7.07
-31.88
-55.95
-77.27
-94.07
-105.96
-114.39
-121.98
-131.21
-143.10
-156.64
-169.24
-177.98
-180.89
-177.72
-169.96
-160.22
-151.44
-146.03
-145.36
-149.53
-157.37
-166.88
-175.84
-182.39
-185.38
-184.29
-178.89
-168.96
-154.38
-135.41
-113.07
-89.04
-65.26
-43.23
-23.47
-5.54
11.41
27.98
44.13
59.20
72.42
83.57
93.30
102.92
113.80
126.44
139.97
152.21
160.58
163.37
160.78
155.09
149.75
147.85
150.65
156.92
163.51
166.66
163.63
153.66
138.29
120.78
105.19
95.19
93.02
98.37
107.89
115.77
115.38
101.71
73.65
34.63
-8.48
-47.97
-78.03
-96.22
-103.15
-100.99
-91.73
-76.64
-56.67
-33.52
-9.99
10.55
25.36
33.41
35.45
33.15
27.99
20.55
10.59
-2.30
-18.17
-36.66
-57.50
-81.05
-108.26
-140.03
-176.13
-214.48
-251.16
-281.42
-301.05
-307.69
-301.30
-283.85
-258.39
-228.05
-195.38
-162.08
-129.13
-97.14
-66.62
-38.32
-13.26
7.35
22.41
31.39
34.39
32.16
25.79
16.31
4.50
-9.22
-24.68
-41.99
-61.25
-82.11
-103.23
-121.78
-133.60
-134.24
-120.63
-92.69
-53.97
-10.81
29.62
61.61
82.35
92.06
93.01
88.15
80.13
70.89
61.84
54.04
48.32
45.23
45.01
47.58
52.66
59.87
68.76
78.96
90.16
102.13
114.70
127.60
140.28
151.89
161.37
167.79
170.73
170.57
168.48
166.12
165.22
167.00
171.68
178.28
184.72
188.44
187.16
179.70
166.21
147.94
126.49
103.14
78.65
53.48
28.34
4.47
-16.48
-33.09
-44.74
-51.86
-55.69
-57.64
-58.74
-59.40
-59.58
-59.08
-57.96
-56.60
-55.67
-55.91
-57.91
-61.91
-67.70
-74.69
-81.95
-88.46
-93.25
-95.63
-95.23
-92.07
-86.45
-78.97
-70.49
-62.09
-54.87
-49.75
-47.11
-46.65
-47.42
-48.19
-47.98
-46.56
-44.56
-43.28
-44.13
-48.04
-55.10
-64.58
-75.30
-86.28
-97.06
-107.69
-118.32
-128.65
-137.68
-143.82
-145.57
-142.28
-134.53
-124.06
-113.05
-103.33
-96.09
-91.95
-91.31
-94.31
-100.30
-107.09
-110.76
-106.63
-91.15
-63.75
-27.68
10.95
45.42
70.96
86.14
92.80
94.65
95.44
97.74
102.63
110.17
119.93
131.28
143.44
155.30
165.50
172.68
175.84
174.58
169.21
160.58
149.84
138.21
126.76
116.20
106.61
97.35
87.11
74.25
57.38
36.06
11.15
-15.22
-40.25
-61.26
-76.41
-85.05
-87.76
-85.92
-81.29
-75.57
-70.03
-65.32
-61.49
-58.16
-54.93
-51.54
-48.09
-44.89
-42.23
-40.15
-38.35
-36.31
-33.50
-29.57
-24.41
-18.04
-10.48
-1.72
8.18
18.94
29.93
40.25
48.98
55.44
59.50
61.66
62.79
63.71
64.70
65.45
65.24
63.43
60.02
55.63
51.30
47.91
45.82
44.83
44.49
44.40
44.20
43.37
41.00
36.05
27.93
17.16
5.41
-5.11
-12.70
-17.02
-19.11
-20.76
-23.47
-27.71
-32.87
-37.80
-41.53
-43.69
-44.53
-44.69
-45.00
-46.32
-49.61
-55.90
-65.98
-80.03
-97.29
-115.85
-133.07
-146.23
-153.48
-154.49
-150.54
-143.90
-136.91
-131.09
-126.72
-123.07
-118.88
-112.94
-104.37
-92.79
-78.28
-61.45
-43.50
-26.12
-11.07
0.34
7.72
11.76
13.97
16.05
19.31
24.30
30.80
38.10
45.38
52.08
57.97
63.13
67.79
72.10
76.08
79.56
82.26
83.92
84.36
83.55
81.62
78.81
75.32
71.22
66.39
60.54
53.39
45.01
35.93
27.29
20.45
16.57
16.03
18.18
21.46
24.01
24.46
22.56
19.31
16.68
16.73
20.91
29.46
41.36
54.71
67.37
77.65
84.85
89.39
92.76
96.97
103.93
114.88
129.74
146.57
161.45
169.00
163.90
143.08
107.51
62.62
16.76
-21.80
-47.95
-61.28
-65.44
-65.70
-66.34
-69.14
-73.54
-78.05
-81.54
-83.78
-85.04
-85.46
-84.75
-82.66
-79.56
-76.97
-77.16
-82.27
-92.89
-107.16
-120.90
-128.76
-126.23
-111.51
-86.16
-54.53
-21.80
7.97
33.00
53.75
71.64
87.83
102.47
114.90
124.50
131.36
136.33
140.38
144.00
146.88
148.48
148.84
149.24
152.08
160.05
175.05
197.43
226.04
258.68
292.64
324.93
352.27
371.23
378.89
373.74
356.49
330.00
298.28
264.94
232.05
199.78
167.17
133.18
97.66
61.39
25.67
-8.51
-40.91
-72.07
-103.01
-134.89
-168.84
-205.72
-245.84
-288.38
-331.01
-369.89
-400.44
-418.67
-422.61
-413.03
-393.21
-367.75
-341.03
-316.04
-293.96
-274.67
-257.48
-241.79
-227.28
-213.80
-201.02
-188.38
-175.18
-160.90
-145.42
-129.22
-113.22
-98.42
-85.59
-74.95
-66.19
-58.59
-51.41
-44.10
-36.53
-28.95
-21.83
-15.59
-10.49
-6.51
-3.41
-0.83
1.58
4.18
7.30
11.15
15.71
20.55
24.74
26.94
25.86
20.72
11.71
0.10
-12.09
-22.70
-30.18
-34.08
-35.16
-35.04
-35.43
-37.36
-40.72
-44.22
-45.91
-44.08
-37.93
-27.88
-15.24
-1.54
11.95
24.55
36.01
46.19
54.77
61.48
66.35
69.90
73.11
77.06
82.51
89.61
97.88
106.46
114.45
121.14
126.20
129.58
131.42
131.74
130.32
126.56
119.67
108.95
94.10
75.49
54.05
30.97
7.37
-15.99
-38.59
-59.84
-78.75
-93.92
-103.82
-107.33
-104.31
-95.72
-83.29
-68.91
-54.03
-39.40
-25.26
-11.80
0.44
10.52
17.34
20.12
18.70
13.73
6.40
-1.89
-9.90
-16.77
-22.05
-25.53
-27.10
-26.63
-24.01
-19.36
-13.08
-5.84
1.65
8.89
15.74
22.32
28.67
34.40
38.57
39.94
37.51
30.95
20.96
8.95
-3.33
-14.38
-23.30
-29.79
-33.92
-35.83
-35.63
-33.49
-29.83
-25.34
-20.98
-17.61
-15.72
-15.30
-15.87
-16.89
-17.98
-19.15
-20.69
-22.93
-25.92
-29.27
-32.21
-33.95
-33.91
-31.92
-28.20
-23.12
-17.07
-10.25
-2.70
5.64
14.88
25.14
36.47
48.74
61.54
74.05
85.20
93.87
99.32
101.39
100.42
97.05
91.78
84.82
76.18
65.95
54.51
42.58
31.09
20.78
12.08
5.02
-0.63
-5.13
-8.67
-11.29
-13.01
-13.89
-14.13
-14.01
-13.86
-13.94
-14.40
-15.27
-16.46
-17.81
-19.20
-20.58
-21.97
-23.42
-24.94
-26.53
-28.13
-29.76
-31.53
-33.59
-36.07
-38.90
-41.64
-43.51
-43.47
-40.66
-34.63
-25.63
-14.58
-2.78
8.46
18.18
25.88
31.50
35.16
37.07
37.40
36.33
34.13
31.17
27.89
24.69
21.86
19.58
17.88
16.78
16.23
16.24
16.72
17.52
18.38
19.01
19.13
18.59
17.38
15.58
13.32
10.69
7.74
4.49
1.02
-2.56
-6.05
-9.29
-12.19
-14.77
-17.18
-19.66
-22.50
-25.86
-29.63
-33.36
-36.23
-37.29
-35.72
-31.14
-23.76
-14.30
-3.76
6.76
16.36
24.43
30.58
34.69
36.83
37.21
36.20
34.26
31.91
29.58
27.61
26.14
25.15
24.44
23.81
23.13
22.45
21.94
21.86
22.37
23.43
24.80
26.08
26.94
27.14
26.66
25.63
24.20
22.46
20.41
18.03
15.31
12.36
9.31
6.25
3.21
0.13
-3.08
-6.36
-9.58
-12.51
-14.96
-16.88
-18.44
-19.97
-21.82
-24.29
-27.43
-30.94
-34.21
-36.36
-36.44
-33.80
-28.21
-20.05
-10.18
0.28
10.20
18.69
25.18
29.48
31.63
31.87
30.53
28.04
24.83
21.35
17.95
14.90
12.35
10.42
9.20
8.77
9.17
10.35
12.13
14.23
16.29
18.04
19.28
19.96
20.11
19.78
19.00
17.77
16.08
13.95
11.42
8.62
5.70
2.85
0.24
-2.07
-4.13
-6.10
-8.19
-10.52
-13.09
-15.73
-18.20
-20.27
-21.82
-22.88
-23.61
-24.27
-25.18
-26.57
-28.55
-31.03
-33.61
-35.63
-36.28
-34.81
-30.79
-24.24
-15.70
-6.07
3.60
12.32
19.38
24.37
27.23
28.14
27.44
25.56
22.92
19.87
16.68
13.56
10.69
8.25
6.41
5.31
4.98
5.39
6.41
7.88
9.60
11.36
12.88
13.89
14.18
13.64
12.39
10.71
8.96
7.40
6.09
4.90
3.56
1.84
-0.33
-2.85
-5.51
-8.07
-10.42
-12.48
-14.28
-15.91
-17.45
-19.03
-20.80
-22.89
-25.28
-27.78
-29.92
-31.07
-30.58
-27.94
-23.00
-16.02
-7.66
1.18
9.55
16.65
22.00
25.44
27.09
27.23
26.17
24.22
21.62
18.62
15.47
12.43
9.73
7.55
6.00
5.12
4.91
5.29
6.13
7.21
8.28
9.08
9.44
9.25
8.50
7.27
5.70
3.95
2.16
0.42
-1.26
-2.98
-4.84
-6.96
-9.34
-11.88
-14.42
-16.79
-18.95
-20.95
-22.97
-25.18
-27.65
-30.24
-32.52
-33.86
-33.53
-30.98
-25.98
-18.85
-10.35
-1.50
6.69
13.52
18.68
22.19
24.26
25.12
24.93
23.81
21.89
19.40
16.62
13.87
11.41
9.40
7.90
6.94
6.50
6.61
7.27
8.42
9.90
11.45
12.69
13.33
13.21
12.36
11.02
9.47
7.91
6.39
4.83
3.13
1.22
-0.88
-3.05
-5.23
-7.35
-9.45
-11.54
-13.58
-15.44
-16.96
-18.05
-18.79
-19.50
-20.63
-22.54
-25.34
-28.71
-31.93
-34.05
-34.22
-31.87
-26.90
-19.74
-11.15
-2.10
6.41
13.62
19.08
22.66
24.53
24.97
24.31
22.80
20.64
18.03
15.19
12.41
9.98
8.11
6.90
6.38
6.48
7.14
8.23
9.60
11.05
12.33
13.23
13.60
13.40
12.71
11.67
10.45
9.17
7.86
6.51
5.04
3.40
1.58
-0.38
-2.40
-4.37
-6.22
-7.90
-9.42
-10.80
-12.11
-13.38
-14.64
-15.87
-17.05
-18.19
-19.35
-20.68
-22.34
-24.46
-26.98
-29.68
-32.05
-33.50
-33.40
-31.26
-26.86
-20.36
-12.33
-3.62
4.81
12.11
17.73
21.48
23.47
23.97
23.28
21.69
19.46
16.85
14.15
11.63
9.45
7.69
6.34
5.41
4.97
5.14
6.05
7.67
9.75
11.86
13.52
14.36
14.28
13.38
11.96
10.30
8.62
7.01
5.50
4.07
2.69
1.33
-0.05
-1.48
-3.01
-4.67
-6.55
-8.71
-11.20
-13.93
-16.72
-19.28
-21.39
-22.96
-24.10
-24.99
-25.87
-26.92
-28.20
-29.68
-31.19
-32.41
-32.83
-31.84
-28.92
-23.84
-16.88
-8.73
-0.39
7.22
13.49
18.17
21.32
23.11
23.69
23.16
21.62
19.26
16.39
13.43
10.76
8.67
7.27
6.52
6.32
6.59
7.27
8.38
9.86
11.55
13.16
14.36
14.85
14.55
13.58
12.21
10.73
9.32
7.95
6.46
4.72
2.67
0.44
-1.78
-3.86
-5.74
-7.53
-9.34
-11.24
-13.16
-14.97
-16.51
-17.72
-18.69
-19.62
-20.73
-22.15
-23.92
-26.00
-28.21
-30.33
-31.96
-32.58
-31.66
-28.70
-23.55
-16.41
-7.95
0.93
9.26
16.33
21.75
25.47
27.64
28.45
28.03
26.47
23.92
20.64
17.05
13.60
10.71
8.59
7.29
6.69
6.66
7.11
7.98
9.21
10.68
12.13
13.30
13.91
13.79
12.96
11.58
9.91
8.18
6.51
4.92
3.33
1.67
-0.05
-1.79
-3.53
-5.29
-7.09
-8.94
-10.81
-12.58
-14.15
-15.54
-16.85
-18.31
-20.14
-22.48
-25.33
-28.46
-31.44
-33.68
-34.50
-33.38
-30.04
-24.60
-17.56
-9.69
-1.79
5.43
11.45
15.99
18.91
20.27
20.23
19.10
17.23
14.98
12.61
10.32
8.19
6.29
4.68
3.43
2.66
2.45
2.87
3.89
5.41
7.20
8.96
10.35
11.12
11.14
10.49
9.38
8.06
6.72
5.41
4.10
2.72
1.19
-0.49
-2.30
-4.23
-6.22
-8.20
-10.09
-11.78
-13.24
-14.57
-15.95
-17.59
-19.52
-21.53
-23.18
-23.85
-22.96
-20.11
-15.28
-8.80
-1.31
6.35
13.39
19.19
23.39
25.91
26.90
26.59
25.29
23.23
20.64
17.68
14.51
11.30
8.24
5.60
3.58
2.34
1.90
2.18
2.98
4.11
5.32
6.43
7.25
7.64
7.55
6.98
5.96
4.55
2.78
0.66
-1.80
-4.52
-7.35
-10.11
-12.65
-14.91
-16.94
-18.90
-21.00
-23.38
-26.03
-28.74
-31.06
-32.38
-32.10
-29.77
-25.26
-18.83
-11.09
-2.87
5.00
11.79
17.06
20.61
22.49
22.90
22.07
20.29
17.84
15.01
12.09
9.40
7.19
5.59
4.66
4.28
4.32
4.62
5.06
5.65
6.40
7.31
8.30
9.16
9.63
9.51
8.71
7.31
5.53
3.65
1.89
0.32
-1.10
-2.54
-4.14
-5.98
-7.99
-10.06
-11.98
-13.63
-14.93
-15.96
-16.92
-18.10
-19.78
-22.12
-25.11
-28.42
-31.47
-33.49
-33.73
-31.62
-27.03
-20.29
-12.18
-3.73
4.11
10.62
15.50
18.78
20.64
21.29
20.87
19.52
17.41
14.86
12.22
9.79
7.75
6.15
4.96
4.21
3.97
4.36
5.39
6.88
8.52
9.94
10.89
11.28
11.22
10.87
10.36
9.73
8.88
7.72
6.19
4.33
2.30
0.28
-1.56
-3.16
-4.51
-5.69
-6.79
-7.92
-9.15
-10.56
-12.13
-13.76
-15.27
-16.48
-17.31
-17.86
-18.44
-19.45
-21.16
-23.55
-26.25
-28.63
-29.91
-29.40
-26.67
-21.68
-14.77
-6.64
1.79
9.59
16.01
20.67
23.52
24.78
24.81
23.93
22.37
20.35
18.05
15.75
13.74
12.26
11.45
11.32
11.74
12.52
13.50
14.58
15.71
16.84
17.85
18.56
18.76
18.26
16.98
14.97
12.41
9.56
6.72
4.14
1.95
0.14
-1.43
-2.96
-4.63
-6.51
-8.57
-10.65
-12.59
-14.26
-15.57
-16.55
-17.27
-17.91
-18.74
-19.99
-21.84
-24.21
-26.75
-28.85
-29.80
-28.95
-25.98
-20.89
-14.10
-6.26
1.77
9.18
15.31
19.78
22.49
23.67
23.65
22.86
21.59
20.04
18.31
16.50
14.72
13.12
11.83
10.95
10.54
10.61
11.11
11.95
12.95
13.86
14.47
14.63
14.35
13.73
12.90
11.95
10.87
9.61
8.10
6.37
4.46
2.42
0.31
-1.86
-4.03
-6.11
-8.03
-9.73
-11.25
-12.68
-14.16
-15.72
-17.34
-18.93
-20.39
-21.76
-23.22
-24.99
-27.26
-29.93
-32.60
-34.53
-34.93
-33.15
-28.99
-22.75
-15.19
-7.24
0.21
6.54
11.42
14.78
16.67
17.21
16.57
15.02
12.84
10.39
8.00
5.87
4.13
2.79
1.84
1.24
1.04
1.26
1.95
3.12
4.68
6.46
8.21
9.62
10.44
10.50
9.84
8.68
7.33
6.03
4.93
3.93
2.83
1.41
-0.45
-2.68
-5.11
-7.44
-9.44
-10.92
-11.86
-12.31
-12.43
-12.44
-12.56
-13.02
-13.93
-15.26
-16.74
-17.80
-17.75
-15.90
-11.85
-5.66
2.03
10.22
17.78
23.76
27.66
29.42
29.29
27.71
25.12
21.90
18.34
14.66
11.01
7.51
4.21
1.24
-1.24
-3.00
-3.85
-3.74
-2.76
-1.22
0.48
1.98
3.03
3.55
3.60
3.33
2.86
2.20
1.31
0.05
-1.68
-3.91
-6.53
-9.27
-11.86
-14.05
-15.82
-17.35
-18.97
-21.03
-23.74
-26.94
-30.14
-32.57
-33.37
-31.89
-27.91
-21.72
-14.05
-5.83
2.05
8.98
14.66
19.06
22.23
24.24
25.12
24.96
23.93
22.29
20.36
18.43
16.71
15.24
14.06
13.11
12.36
11.81
11.46
11.35
11.49
11.82
12.20
12.40
12.17
11.33
9.83
7.76
5.32
2.70
0.05
-2.57
-5.11
-7.56
-9.92
-12.27
-14.76
-17.52
-20.55
-23.58
-26.04
-27.16
-26.28
-23.04
-17.57
-10.46
-2.57
5.25
12.33
18.27
22.87
26.08
27.88
28.34
27.64
26.06
23.97
21.76
19.71
17.98
16.49
15.02
13.27
10.95
7.88
4.04
-0.40
-5.21
-10.24
-15.47
-21.00
-26.99
-33.48
-40.32
-47.21
-53.69
-59.37
-63.94
-67.26
-69.42
-70.60
-71.07
-71.08
-70.82
-70.40
-69.90
-69.41
-69.06
-68.91
-68.93
-68.90
-68.43
-67.05
-64.35
-60.00
-53.78
-45.58
-35.43
-23.56
-10.40
3.41
17.23
30.71
43.92
57.33
71.55
86.98
103.45
120.07
135.39
147.75
155.72
158.53
156.18
149.46
139.60
127.98
115.77
103.73
92.19
81.15
70.50
60.15
50.09
40.40
31.13
22.33
14.05
6.37
-0.57
-6.57
-11.53
-15.53
-18.88
-22.02
-25.36
-29.10
-33.11
-36.99
-40.26
-42.55
-43.75
-44.10
-44.08
-44.21
-44.86
-46.10
-47.60
-48.74
-48.74
-46.95
-43.01
-37.01
-29.45
-21.10
-12.82
-5.33
0.85
5.45
8.44
9.93
10.17
9.44
8.02
6.16
4.10
2.09
0.30
-1.10
-2.02
-2.41
-2.27
-1.65
-0.61
0.81
2.51
4.37
6.19
7.74
8.71
8.84
7.97
6.11
3.43
0.27
-3.00
-6.08
-8.84
-11.31
-13.63
-15.89
-18.05
-20.00
-21.61
-22.86
-23.85
-24.78
-25.84
-27.17
-28.76
-30.53
-32.35
-34.11
-35.66
-36.74
-36.94
-35.80
-32.89
-28.10
-21.70
-14.38
-7.08
-0.75
3.89
6.40
6.62
4.64
0.89
-3.71
-7.70
-9.28
-6.91
0.07
11.10
24.60
38.60
51.52
62.65
72.03
80.02
86.74
91.92
95.11
96.13
95.32
93.47
91.38
89.46
87.49
84.76
80.38
73.69
64.50
53.13
40.26
26.69
13.13
0.09
-12.16
-23.53
-33.99
-43.59
-52.37
-60.34
-67.39
-73.20
-77.28
-79.09
-78.24
-74.69
-68.92
-61.80
-54.39
-47.63
-42.13
-38.11
-35.44
-33.87
-33.15
-33.04
-33.36
-33.88
-34.33
-34.48
-34.18
-33.38
-32.15
-30.54
-28.61
-26.35
-23.78
-20.99
-18.08
-15.22
-12.56
-10.21
-8.28
-6.85
-5.98
-5.63
-5.66
-5.85
-5.99
-5.94
-5.62
-4.92
-3.65
-1.51
1.76
6.18
11.39
16.66
21.07
23.83
24.54
23.33
20.73
17.45
14.11
11.03
8.14
5.09
1.43
-3.09
-8.33
-13.71
-18.44
-21.77
-23.23
-22.80
-20.81
-17.81
-14.35
-11.00
-8.28
-6.65
-6.44
-7.68
-10.03
-12.85
-15.39
-17.11
-17.87
-17.91
-17.67
-17.39
-16.98
-15.92
-13.53
-9.25
-2.86
5.44
15.17
25.80
36.86
47.99
58.91
69.34
79.04
87.87
95.89
103.27
110.19
116.59
122.08
125.85
126.94
124.45
117.81
107.01
92.69
76.08
58.82
42.68
29.14
19.14
12.87
9.93
9.53
10.76
12.86
15.22
17.40
19.08
20.07
20.39
20.31
20.33
21.09
23.11
26.67
31.63
37.42
43.15
47.83
50.53
50.63
47.92
42.58
35.11
26.26
16.79
7.44
-1.20
-8.84
-15.49
-21.47
-27.35
-33.71
-40.95
-49.09
-57.67
-65.82
-72.46
-76.61
-77.71
-75.76
-71.40
-65.65
-59.59
-54.10
-49.63
-46.32
-44.04
-42.59
-41.74
-41.23
-40.78
-40.08
-38.90
-37.13
-34.83
-32.13
-29.23
-26.31
-23.60
-21.36
-19.96
-19.78
-21.14
-24.20
-28.92
-35.02
-41.95
-48.98
-55.19
-59.60
-61.38
-60.03
-55.57
-48.53
-39.81
-30.45
-21.36
-13.18
-6.29
-0.94
2.74
4.68
4.95
3.89
2.04
0.03
-1.63
-2.69
-3.23
-3.46
-3.54
-3.38
-2.70
-1.15
1.41
4.84
8.65
12.24
15.03
16.70
17.17
16.55
15.02
12.74
9.75
5.98
1.33
-4.30
-10.88
-18.21
-25.81
-33.04
-39.24
-43.96
-47.18
-49.39
-51.37
-53.86
-57.14
-60.80
-63.80
-64.79
-62.45
-55.90
-44.86
-29.83
-12.08
6.56
24.08
38.88
50.23
58.48
64.86
70.88
77.82
86.36
96.65
108.45
121.39
134.98
148.56
161.21
171.66
178.27
179.18
172.73
158.13
136.32
110.44
85.48
66.76
58.08
59.99
69.49
81.07
88.79
88.42
78.70
61.40
40.17
19.10
1.27
-11.87
-20.51
-25.74
-28.68
-29.87
-29.08
-25.78
-19.66
-11.08
-0.96
9.66
20.12
30.17
39.60
47.54
52.00
50.05
38.76
16.53
-15.73
-54.27
-93.24
-126.47
-149.41
-160.43
-160.99
-154.67
-145.36
-135.78
-126.67
-116.96
-104.82
-88.74
-68.35
-44.64
-19.58
4.55
25.83
43.03
55.70
63.84
67.60
67.16
62.79
54.88
43.79
29.50
11.35
-11.66
-39.98
-72.47
-105.77
-134.83
-154.42
-160.95
-153.57
-134.10
-106.25
-74.52
-43.47
-17.13
1.54
11.42
13.87
12.61
12.42
16.98
27.03
39.91
50.78
55.06
50.64
38.66
22.67
6.79
-6.07
-14.95
-20.57
-24.43
-27.94
-32.00
-36.92
-42.68
-49.29
-56.68
-64.80
-73.47
-82.42
-91.28
-99.60
-106.92
-112.74
-116.61
-118.14
-117.11
-113.42
-107.09
-98.22
-87.02
-73.95
-59.84
-45.84
-33.19
-22.89
-15.42
-10.66
-8.08
-6.98
-6.77
-7.07
-7.71
-8.60
-9.60
-10.44
-10.73
-9.99
-7.84
-4.17
0.76
6.33
11.74
16.27
19.55
21.54
22.52
22.79
22.59
22.07
21.31
20.41
19.46
18.52
17.49
16.24
14.61
12.48
9.86
6.84
3.56
0.18
-3.03
-5.78
-7.78
-8.87
-9.12
-8.90
-8.71
-9.11
-10.44
-12.72
-15.53
-18.07
-19.25
-18.02
-13.60
-5.81
4.84
17.24
30.00
41.88
52.13
60.51
67.12
72.02
74.91
75.17
72.11
65.55
56.11
45.17
34.58
25.95
20.30
17.84
18.17
20.61
24.49
29.27
34.50
39.81
44.86
49.46
53.60
57.34
60.59
62.92
63.49
61.28
55.57
46.35
34.45
21.39
8.76
-2.31
-11.48
-19.16
-26.13
-33.02
-40.00
-46.78
-52.84
-57.76
-61.46
-64.19
-66.45
-68.77
-71.52
-74.75
-78.15
-80.97
-82.20
-80.80
-75.96
-67.43
-55.55
-41.23
-25.64
-10.02
4.60
17.44
27.87
35.39
39.61
40.45
38.20
33.66
27.90
22.04
16.86
12.66
9.34
6.62
4.32
2.50
1.44
1.51
2.98
5.81
9.71
14.08
18.24
21.53
23.40
23.60
22.07
18.92
14.15
7.43
-1.97
-15.14
-33.22
-56.80
-85.46
-117.45
-149.71
-178.47
-200.16
-212.32
-214.26
-207.08
-193.29
-175.87
-157.57
-140.32
-125.11
-112.21
-101.49
-92.64
-85.31
-79.06
-73.30
-67.40
-60.63
-52.20
-41.20
-26.59
-7.45
16.67
45.15
76.11
106.57
133.09
152.76
163.87
166.26
160.95
149.61
133.84
114.89
93.53
70.28
45.64
20.53
-3.46
-24.00
-38.44
-44.62
-41.88
-31.43
-16.13
0.52
15.65
27.79
36.84
43.39
47.80
49.91
49.41
46.57
42.76
40.18
41.04
46.47
55.96
67.74
79.66
90.19
98.92
106.40
113.44
120.45
127.10
132.60
136.18
137.57
137.17
135.77
134.14
132.63
131.06
128.95
125.87
121.76
117.06
112.54
108.99
106.91
106.46
107.51
109.79
113.04
117.00
121.31
125.47
128.91
131.15
131.94
131.26
129.31
126.33
122.35
117.22
110.59
102.05
91.36
78.62
64.33
49.34
34.54
20.61
7.82
-3.94
-15.02
-25.80
-36.52
-47.16
-57.53
-67.30
-76.09
-83.59
-89.66
-94.40
-98.10
-101.08
-103.58
-105.63
-107.17
-108.15
-108.62
-108.79
-108.78
-108.55
-107.91
-106.70
-104.95
-102.86
-100.69
-98.44
-95.74
-91.90
-86.29
-78.61
-69.07
-58.36
-47.30
-36.67
-27.10
-19.14
-13.35
-10.20
-9.88
-12.08
-15.93
-20.25
-24.02
-26.68
-28.31
-29.31
-30.07
-30.67
-30.89
-30.52
-29.61
-28.51
-27.59
-26.93
-26.09
-24.47
-21.72
-18.17
-14.78
-12.69
-12.56
-14.27
-16.90
-19.34
-20.87
-21.44
-21.63
-22.14
-23.35
-25.10
-26.79
-27.76
-27.62
-26.35
-24.24
-21.62
-18.60
-15.05
-10.64
-5.15
1.40
8.59
15.72
22.04
26.98
30.29
32.08
32.63
32.26
31.18
29.42
27.00
23.96
20.53
17.07
14.03
11.80
10.56
10.26
10.73
11.73
13.07
14.63
16.28
17.80
18.88
19.16
18.30
16.21
13.06
9.30
5.43
1.90
-1.13
-3.71
-6.07
-8.39
-10.81
-13.32
-15.87
-18.34
-20.55
-22.20
-22.82
-21.80
-18.68
-13.26
-5.88
2.61
11.09
18.48
24.02
27.50
29.12
29.41
28.99
28.42
28.19
28.66
30.06
32.46
35.73
39.50
43.25
46.40
48.44
49.04
48.07
45.49
41.25
35.21
27.17
17.00
4.83
-8.84
-23.19
-37.22
-49.99
-60.79
-69.22
-75.25
-79.09
-81.17
-82.06
-82.38
-82.59
-82.83
-82.84
-81.99
-79.49
-74.66
-67.19
-57.24
-45.37
-32.44
-19.46
-7.37
3.11
11.52
17.76
22.09
24.96
26.89
28.28
29.39
30.29
30.98
31.44
31.72
31.86
31.85
31.59
30.91
29.64
27.68
25.07
21.99
18.70
15.51
12.69
10.40
8.72
7.53
6.60
5.60
4.23
2.39
0.15
-2.17
-4.21
-5.70
-6.58
-6.97
-7.08
-7.06
-7.01
-6.90
-6.73
-6.46
-6.00
-5.14
-3.51
-0.61
3.95
10.26
17.86
25.82
33.03
38.49
41.70
42.66
41.71
39.25
35.54
30.66
24.72
18.01
11.08
4.69
-0.57
-4.37
-6.82
-8.27
-9.11
-9.64
-9.90
-9.78
-9.07
-7.61
-5.40
-2.66
0.19
2.62
4.14
4.46
3.61
1.94
-0.01
-1.76
-3.04
-3.90
-4.65
-5.67
-7.22
-9.31
-11.71
-14.08
-16.11
-17.66
-18.84
-19.87
-21.04
-22.50
-24.28
-26.28
-28.25
-29.83
-30.51
-29.67
-26.75
-21.44
-13.93
-4.98
4.28
12.66
19.25
23.71
26.19
27.11
26.94
25.93
24.10
21.42
17.95
13.96
9.94
6.50
4.13
3.08
3.30
4.51
6.31
8.26
9.99
11.20
11.61
11.03
9.38
6.70
3.14
-1.10
-5.86
-11.06
-16.63
-22.47
-28.35
-33.94
-38.93
-43.04
-46.16
-48.29
-49.50
-49.83
-49.30
-47.87
-45.52
-42.28
-38.27
-33.66
-28.70
-23.70
-19.06
-15.20
-12.47
-11.11
-11.21
-12.78
-15.70
-19.70
-24.31
-28.70
-31.87
-32.83
-30.97
-26.23
-19.13
-10.48
-1.05
8.66
18.37
27.90
36.91
44.92
51.39
55.94
58.50
59.28
58.72
57.32
55.60
53.99
52.80
52.18
52.04
52.05
51.70
50.47
48.07
44.53
40.17
35.49
30.91
26.67
22.77
19.15
15.75
12.64
9.89
7.57
5.61
3.84
2.05
0.10
-2.07
-4.38
-6.76
-9.12
-11.36
-13.34
-14.95
-16.08
-16.72
-16.99
-17.11
-17.35
-17.94
-18.95
-20.21
-21.37
-21.93
-21.37
-19.36
-15.82
-11.00
-5.35
0.54
6.13
10.95
14.68
17.15
18.35
18.42
17.60
16.22
14.53
12.70
10.82
8.95
7.24
5.84
4.91
4.50
4.50
4.75
5.14
5.66
6.39
7.44
8.75
10.08
11.09
11.49
11.18
10.26
9.00
7.69
6.51
5.49
4.55
3.61
2.56
1.34
-0.04
-1.53
-3.03
-4.48
-5.86
-7.17
-8.46
-9.75
-10.97
-12.01
-12.77
-13.28
-13.67
-14.16
-14.95
-16.07
-17.30
-18.26
-18.47
-17.53
-15.28
-11.79
-7.34
-2.39
2.62
7.25
11.13
13.97
15.56
15.79
14.74
12.69
10.02
7.16
4.41
1.94
-0.20
-1.98
-3.35
-4.19
-4.42
-4.06
-3.21
-2.09
-0.92
0.15
1.08
1.85
2.47
2.90
3.05
2.85
2.31
1.51
0.59
-0.32
-1.15
-1.90
-2.70
-3.66
-4.83
-6.12
-7.37
-8.34
-8.88
-8.94
-8.68
-8.39
-8.36
-8.83
-9.82
-11.10
-12.26
-12.76
-12.08
-9.90
-6.16
-1.11
4.70
10.52
15.62
19.47
21.82
22.71
22.41
21.21
19.34
16.99
14.29
11.45
8.75
6.45
4.72
3.62
3.05
2.89
3.01
3.35
3.89
4.59
5.36
6.13
6.77
7.23
7.48
7.49
7.25
6.71
5.86
4.68
3.21
1.52
-0.32
-2.22
-4.10
-5.92
-7.62
-9.14
-10.47
-11.60
-12.62
-13.65
-14.80
-16.17
-17.71
-19.21
-20.28
-20.43
-19.26
-16.57
-12.48
-7.40
-1.97
3.21
7.61
10.97
13.27
14.61
15.17
15.07
14.33
12.93
10.83
8.13
5.10
2.13
-0.36
-2.08
-2.96
-3.07
-2.61
-1.74
-0.54
0.91
2.51
4.07
5.39
6.27
6.60
6.43
5.84
4.95
3.82
2.52
1.11
-0.34
-1.71
-2.92
-3.93
-4.76
-5.51
-6.34
-7.37
-8.66
-10.19
-11.82
-13.36
-14.60
-15.41
-15.80
-15.93
-16.05
-16.43
-17.27
-18.50
-19.86
-20.83
-20.88
-19.55
-16.63
-12.20
-6.65
-0.53
5.51
10.84
15.03
17.85
19.32
19.66
19.17
18.09
16.53
14.52
12.08
9.39
6.79
4.65
3.25
2.65
2.72
3.22
4.01
5.02
6.24
7.55
8.75
9.57
9.83
9.56
8.96
8.30
7.68
7.03
6.14
4.80
2.96
0.73
-1.62
-3.85
-5.81
-7.45
-8.87
-10.15
-11.35
-12.50
-13.56
-14.52
-15.38
-16.07
-16.53
-16.67
-16.47
-16.08
-15.77
-15.87
-16.56
-17.73
-18.92
-19.50
-18.80
-16.38
-12.17
-6.45
0.20
7.03
13.25
18.19
21.44
22.88
22.73
21.32
18.93
15.71
11.68
6.87
1.45
-4.17
-9.51
-14.10
-17.72
-20.39
-22.36
-24.00
-25.62
-27.45
-29.56
-31.88
-34.32
-36.76
-39.06
-40.99
-42.16
-42.03
-40.07
-36.02
-30.07
-22.97
-15.78
-9.44
-4.44
-0.58
2.78
6.42
10.85
16.13
21.91
27.74
33.19
38.00
42.00
45.04
46.94
47.54
46.83
44.92
42.06
38.53
34.60
30.47
26.40
22.75
19.99
18.57
18.79
20.65
23.76
27.46
30.99
33.71
35.23
35.47
34.58
32.86
30.67
28.27
25.85
23.46
21.04
18.51
15.79
12.90
10.02
7.42
5.33
3.78
2.55
1.15
-0.99
-4.27
-8.73
-13.99
-19.37
-24.04
-27.34
-28.90
-28.69
-27.04
-24.46
-21.47
-18.59
-16.13
-14.16
-12.44
-10.48
-7.63
-3.35
2.48
9.43
16.61
22.94
27.57
30.15
30.85
30.03
27.95
24.51
19.40
12.37
3.58
-6.31
-16.27
-25.26
-32.52
-37.71
-40.76
-41.74
-40.77
-38.04
-33.81
-28.53
-22.70
-16.80
-11.05
-5.50
-0.02
5.49
10.97
16.21
20.90
24.84
28.09
31.08
34.42
38.69
44.15
50.63
57.60
64.35
70.30
74.95
77.88
78.61
76.62
71.56
63.60
53.60
42.96
33.21
25.34
19.53
15.12
11.12
6.75
1.79
-3.42
-8.36
-12.69
-16.52
-20.20
-24.14
-28.45
-32.95
-37.33
-41.42
-45.37
-49.50
-54.01
-58.81
-63.45
-67.39
-70.33
-72.44
-74.30
-76.67
-80.04
-84.46
-89.57
-94.83
-99.90
-104.84
-110.00
-115.72
-122.01
-128.39
-134.01
-138.07
-140.18
-140.61
-140.18
-139.94
-140.66
-142.51
-144.88
-146.50
-145.76
-141.03
-131.04
-115.11
-93.30
-66.44
-36.03
-4.03
27.34
55.85
79.57
97.12
107.81
111.77
109.76
102.89
92.37
79.44
65.62
52.98
44.07
41.51
47.13
61.29
82.58
108.25
135.06
160.20
181.82
199.05
211.74
220.05
224.27
224.76
221.93
216.19
207.91
197.39
184.89
170.61
154.61
136.65
116.29
93.21
67.78
41.42
16.56
-4.07
-18.28
-25.35
-26.17
-22.87
-17.99
-13.69
-11.33
-11.42
-13.87
-18.22
-23.82
-29.96
-36.03
-41.70
-46.99
-52.19
-57.46
-62.57
-66.82
-69.28
-69.30
-66.82
-62.45
-57.14
-51.73
-46.69
-42.12
-37.99
-34.34
-31.31
-29.04
-27.54
-26.58
-25.89
-25.28
-24.77
-24.51
-24.64
-25.17
-26.06
-27.28
-28.90
-31.03
-33.62
-36.32
-38.51
-39.52
-38.90
-36.63
-33.01
-28.52
-23.56
-18.41
-13.28
-8.40
-4.07
-0.56
1.91
3.29
3.59
2.83
1.10
-1.45
-4.47
-7.48
-9.95
-11.53
-12.11
-11.85
-10.99
-9.73
-8.19
-6.49
-4.78
-3.28
-2.20
-1.63
-1.49
-1.60
-1.81
-2.08
-2.53
-3.34
-4.62
-6.32
-8.24
-10.14
-11.77
-13.03
-13.90
-14.54
-15.12
-15.80
-16.71
-17.87
-19.15
-20.30
-20.98
-20.77
-19.29
-16.29
-11.75
-5.94
0.56
7.02
12.71
17.15
20.19
21.98
22.79
22.87
22.30
21.10
19.29
17.01
14.52
12.11
9.97
8.18
6.71
5.49
4.53
3.91
3.70
3.94
4.51
5.25
5.92
6.35
6.45
6.24
5.76
5.10
4.29
3.32
2.10
0.60
-1.15
-3.01
-4.79
-6.35
-7.67
-8.87
-10.12
-11.55
-13.17
-14.79
-16.22
-17.30
-18.07
-18.77
-19.70
-20.99
-22.52
-23.82
-24.29
-23.35
-20.71
-16.43
-10.89
-4.68
1.54
7.21
11.86
15.21
17.19
17.89
17.58
16.61
15.30
13.85
12.38
10.92
9.50
8.19
7.16
6.59
6.65
7.39
8.73
10.46
12.28
13.88
15.04
15.62
15.62
15.15
14.37
13.47
12.61
11.88
11.26
10.67
9.99
9.13
8.03
6.69
5.18
3.54
1.89
0.31
-1.07
-2.21
-3.12
-3.93
-4.79
-5.85
-7.13
-8.54
-9.89
-11.00
-11.80
-12.34
-12.81
-13.42
-14.33
-15.55
-16.87
-17.84
-17.88
-16.46
-13.28
-8.45
-2.49
3.84
9.76
14.68
18.36
20.78
22.10
22.44
21.87
20.48
18.40
15.89
13.31
11.05
9.37
8.40
8.06
8.18
8.52
8.87
9.10
9.18
9.20
9.27
9.51
9.95
10.52
11.07
11.45
11.54
11.32
10.87
10.30
9.72
9.17
8.59
7.91
7.05
5.99
4.80
3.58
2.41
1.33
0.28
-0.80
-2.01
-3.36
-4.88
-6.58
-8.47
-10.55
-12.77
-14.98
-17.00
-18.70
-20.05
-21.18
-22.30
-23.64
-25.30
-27.20
-29.01
-30.29
-30.51
-29.26
-26.33
-21.82
-16.15
-9.94
-3.87
1.51
5.90
9.20
11.44
12.69
12.95
12.24
10.62
8.28
5.53
2.77
0.34
-1.54
-2.82
-3.58
-3.89
-3.83
-3.38
-2.54
-1.36
-0.02
1.21
2.05
2.34
2.14
1.68
1.26
1.08
1.14
1.23
1.08
0.48
-0.60
-1.98
-3.38
-4.56
-5.40
-5.96
-6.38
-6.78
-7.16
-7.46
-7.57
-7.49
-7.34
-7.37
-7.82
-8.78
-10.12
-11.54
-12.70
-13.37
-13.54
-13.40
-13.21
-13.28
-13.80
-14.88
-16.50
-18.50
-20.51
-22.04
-22.56
-21.62
-19.09
-15.20
-10.50
-5.70
-1.46
1.81
3.97
5.15
5.59
5.49
4.95
3.97
2.56
0.77
-1.20
-3.13
-4.79
-6.05
-6.87
-7.29
-7.30
-6.89
-6.05
-4.77
-3.15
-1.37
0.40
2.00
3.42
4.77
6.23
7.93
9.89
11.92
13.75
15.07
15.75
15.90
15.78
15.66
15.72
15.94
16.14
16.10
15.67
14.78
13.51
11.96
10.26
8.61
7.17
6.07
5.35
4.86
4.33
3.46
2.09
0.37
-1.18
-1.82
-0.85
2.14
7.02
13.17
19.62
25.41
29.87
32.73
34.15
34.44
33.95
32.86
31.21
28.97
26.14
22.83
19.23
15.56
12.07
8.99
6.47
4.61
3.40
2.74
2.50
2.55
2.81
3.21
3.71
4.21
4.56
4.63
4.36
3.78
2.98
2.04
1.00
-0.15
-1.46
-2.93
-4.54
-6.21
-7.86
-9.39
-10.73
-11.83
-12.69
-13.36
-13.92
-14.50
-15.23
-16.18
-17.31
-18.50
-19.53
-20.21
-20.47
-20.42
-20.35
-20.64
-21.61
-23.37
-25.74
-28.21
-30.12
-30.79
-29.72
-26.74
-22.01
-15.99
-9.30
-2.62
3.47
8.50
12.20
14.49
15.44
15.27
14.26
12.75
10.99
9.16
7.39
5.72
4.21
2.98
2.17
1.89
2.18
2.95
4.03
5.23
6.38
7.39
8.22
8.80
9.07
8.95
8.46
7.68
6.76
5.82
4.89
3.92
2.84
1.61
0.30
-0.98
-2.09
-2.96
-3.54
-3.86
-3.98
-4.02
-4.08
-4.28
-4.71
-5.41
-6.42
-7.72
-9.29
-11.03
-12.79
-14.37
-15.64
-16.61
-17.41
-18.28
-19.34
-20.53
-21.51
-21.79
-20.88
-18.49
-14.61
-9.51
-3.64
2.47
8.31
13.45
17.58
20.53
22.24
22.78
22.31
21.06
19.25
17.12
14.86
12.60
10.49
8.64
7.24
6.42
6.27
6.74
7.65
8.73
9.73
10.51
11.06
11.44
11.66
11.70
11.45
10.87
9.96
8.81
7.55
6.19
4.70
3.01
1.13
-0.84
-2.69
-4.29
-5.58
-6.69
-7.81
-9.08
-10.58
-12.23
-13.91
-15.45
-16.72
-17.64
-18.18
-18.45
-18.68
-19.12
-20.02
-21.45
-23.22
-24.93
-25.99
-25.85
-24.10
-20.66
-15.79
-10.03
-4.13
1.23
5.55
8.58
10.35
11.00
10.76
9.81
8.35
6.57
4.65
2.83
1.27
0.12
-0.56
-0.78
-0.57
0.02
0.97
2.25
3.82
5.56
7.27
8.72
9.66
9.99
9.76
9.20
8.59
8.19
8.07
8.09
7.93
7.26
5.88
3.78
1.17
-1.62
-4.26
-6.51
-8.20
-9.29
-9.77
-9.69
-9.11
-8.10
-6.78
-5.22
-3.56
-2.03
-1.00
-1.00
-2.46
-5.58
-10.01
-14.87
-18.90
-20.82
-19.77
-15.53
-8.56
0.20
9.54
18.35
25.66
30.77
33.15
32.57
29.10
23.19
15.68
7.65
0.26
-5.52
-9.05
-10.06
-8.66
-5.19
-0.19
5.71
11.83
17.52
22.17
25.34
26.72
26.19
23.79
19.68
14.20
7.87
1.34
-4.67
-9.45
-12.51
-13.65
-13.00
-11.00
-8.30
-5.55
-3.28
-1.77
-1.03
-0.94
-1.33
-2.18
-3.63
-5.89
-9.10
-13.18
-17.84
-22.54
-26.68
-29.68
-31.07
-30.52
-27.92
-23.37
-17.26
-10.18
-2.85
4.00
9.75
14.00
16.59
17.59
17.28
15.99
14.05
11.72
9.07
6.16
3.12
0.19
-2.20
-3.68
-3.98
-3.13
-1.43
0.64
2.65
4.27
5.39
6.03
6.32
6.30
5.93
5.12
3.77
1.88
-0.35
-2.63
-4.61
-6.09
-7.09
-7.78
-8.47
-9.40
-10.61
-12.04
-13.48
-14.76
-15.77
-16.48
-16.98
-17.42
-17.97
-18.83
-20.12
-21.79
-23.52
-24.83
-25.14
-23.98
-21.15
-16.80
-11.34
-5.27
0.92
6.84
12.23
16.81
20.32
22.58
23.51
23.26
22.13
20.52
18.71
16.91
15.17
13.52
12.03
10.84
10.10
9.90
10.18
10.81
11.56
12.32
13.02
13.67
14.21
14.56
14.58
14.15
13.30
12.13
10.82
9.47
8.12
6.70
5.16
3.49
1.75
0.07
-1.51
-3.00
-4.47
-5.96
-7.44
-8.81
-9.97
-10.89
-11.66
-12.45
-13.48
-14.86
-16.51
-18.10
-19.08
-18.87
-17.01
-13.36
-8.12
-1.82
4.84
11.13
16.50
20.61
23.32
24.72
24.97
24.28
22.87
20.90
18.54
15.96
13.34
10.88
8.78
7.14
6.00
5.37
5.21
5.49
6.17
7.15
8.24
9.23
9.92
10.18
10.02
9.56
8.98
8.45
8.01
7.57
6.90
5.80
4.15
2.06
-0.17
-2.22
-3.83
-4.96
-5.78
-6.55
-7.48
-8.66
-10.04
-11.54
-13.08
-14.64
-16.19
-17.67
-18.99
-20.09
-21.03
-21.98
-23.17
-24.72
-26.59
-28.43
-29.67
-29.63
-27.80
-24.03
-18.57
-12.01
-5.07
1.61
7.54
12.47
16.20
18.60
19.64
19.40
18.20
16.50
14.79
13.43
12.54
12.05
11.82
11.76
11.92
12.45
13.54
15.34
17.84
20.88
24.15
27.28
29.90
31.78
32.87
33.28
33.25
32.99
32.66
32.24
31.64
30.72
29.40
27.70
25.72
23.58
21.43
19.35
17.31
15.24
13.04
10.62
8.01
5.28
2.55
-0.15
-2.85
-5.66
-8.71
-12.12
-16.03
-20.63
-26.13
-32.64
-40.01
-47.69
-54.75
-60.14
-63.04
-63.23
-61.12
-57.58
-53.55
-49.74
-46.47
-43.74
-41.47
-39.65
-38.36
-37.73
-37.77
-38.32
-39.07
-39.69
-39.91
-39.57
-38.63
-37.10
-34.93
-32.05
-28.40
-23.93
-18.76
-13.12
-7.44
-2.15
2.36
5.93
8.62
10.69
12.41
14.03
15.64
17.26
18.86
20.40
21.86
23.18
24.23
24.89
25.04
24.68
23.91
22.94
21.95
21.05
20.25
19.43
18.46
17.22
15.73
14.05
12.33
10.65
8.96
7.09
4.82
2.07
-1.05
-4.13
-6.56
-7.68
-7.06
-4.55
-0.39
4.94
10.78
16.51
21.61
25.72
28.65
30.34
30.83
30.22
28.67
26.35
23.50
20.41
17.40
14.80
12.87
11.76
11.42
11.72
12.48
13.51
14.68
15.91
17.09
18.19
19.19
20.15
21.10
22.05
22.89
23.41
23.34
22.55
21.10
19.30
17.62
16.49
16.15
16.64
17.76
19.28
20.93
22.54
23.98
25.19
26.10
26.70
26.95
26.84
26.36
25.46
24.07
22.13
19.58
16.36
12.48
8.04
3.22
-1.72
-6.57
-11.26
-15.92
-20.81
-26.23
-32.32
-38.99
-45.88
-52.46
-58.16
-62.51
-65.21
-66.17
-65.46
-63.19
-59.49
-54.45
-48.20
-41.05
-33.52
-26.28
-20.01
-15.17
-11.87
-9.86
-8.73
-8.13
-7.94
-8.26
-9.26
-11.04
-13.43
-16.00
-18.21
-19.59
-19.87
-19.05
-17.35
-15.01
-12.20
-9.01
-5.46
-1.65
2.18
5.68
8.50
10.35
11.14
10.87
9.58
7.27
3.84
-0.80
-6.58
-13.14
-19.80
-25.77
-30.29
-32.94
-33.77
-33.20
-31.87
-30.40
-29.28
-28.74
-28.89
-29.70
-31.10
-33.00
-35.35
-38.12
-41.36
-45.19
-49.67
-54.68
-59.74
-63.93
-66.00
-64.69
-58.96
-48.25
-32.48
-11.95
12.69
40.43
69.86
99.08
125.85
147.85
163.14
170.47
169.49
160.67
145.01
123.77
98.24
69.49
38.31
5.16
-29.70
-66.02
-103.35
-140.93
-177.73
-212.57
-244.22
-271.46
-292.99
-307.51
-313.88
-311.56
-300.88
-283.08
-260.02
-233.65
-205.61
-177.07
-148.98
-122.16
-97.24
-74.24
-52.21
-29.16
-2.67
29.30
67.53
111.36
158.87
207.45
253.99
295.00
326.73
345.69
349.54
338.11
313.98
282.24
249.22
220.68
200.29
188.75
184.13
183.02
182.06
179.13
173.74
166.62
158.84
150.94
142.61
133.08
121.83
109.14
96.04
83.79
73.16
64.17
56.23
48.78
41.80
36.14
33.26
34.70
41.46
53.72
70.74
91.17
113.23
135.01
154.53
170.00
180.12
184.47
183.67
179.15
172.49
164.63
155.49
144.30
130.36
113.87
96.11
78.88
63.53
50.24
38.06
25.66
12.16
-2.49
-17.88
-33.79
-50.74
-69.76
-91.70
-116.41
-142.51
-167.85
-190.32
-208.54
-222.08
-231.02
-235.42
-235.02
-229.54
-219.28
-205.63
-191.05
-178.21
-168.91
-163.28
-159.91
-156.75
-152.52
-147.42
-142.95
-140.81
-141.73
-144.82
-148.12
-149.70
-148.81
-146.31
-144.16
-144.36
-147.96
-154.73
-163.56
-173.31
-183.58
-195.07
-209.06
-226.39
-246.30
-265.92
-280.69
-285.78
-277.89
-256.46
-223.65
-183.27
-139.15
-94.08
-49.76
-7.51
31.05
64.01
90.02
109.26
123.62
135.95
148.15
159.57
166.66
164.20
147.70
115.83
71.71
22.48
-22.61
-54.63
-67.03
-56.69
-24.32
25.94
87.10
150.30
206.08
246.19
265.42
262.83
241.96
209.62
173.94
142.19
119.16
106.59
103.33
106.14
110.75
112.95
109.43
98.48
80.27
56.62
30.43
4.94
-16.94
-33.19
-42.79
-45.61
-42.15
-33.24
-19.81
-2.85
16.52
36.95
56.89
74.71
89.03
98.95
104.30
105.57
103.68
99.64
94.29
88.07
81.05
73.06
63.99
54.03
43.75
34.05
25.90
20.00
16.66
15.74
16.86
19.56
23.29
27.46
31.28
33.87
34.48
32.69
28.55
22.50
15.02
6.37
-3.59
-15.25
-29.18
-45.92
-65.95
-89.56
-116.52
-145.73
-175.05
-201.45
-221.91
-234.34
-238.35
-235.27
-227.36
-216.70
-204.10
-188.72
-168.53
-141.38
-106.11
-63.46
-16.17
31.72
75.89
112.92
140.97
159.86
170.45
173.84
170.78
161.63
146.81
127.45
105.60
83.95
64.99
50.17
39.51
31.82
25.50
19.38
13.21
7.65
3.70
2.08
2.77
5.09
8.03
10.78
13.08
15.24
17.87
21.55
26.44
32.14
37.87
42.73
46.12
48.11
49.44
51.27
54.82
60.83
69.31
79.50
90.13
99.73
106.98
110.78
110.39
105.23
95.02
79.71
59.71
35.95
9.94
-16.28
-40.52
-60.78
-75.70
-84.91
-89.07
-89.61
-88.23
-86.40
-84.98
-84.19
-83.82
-83.48
-82.91
-81.90
-80.29
-77.81
-74.22
-69.40
-63.52
-56.99
-50.38
-44.23
-38.93
-34.85
-32.44
-32.25
-34.77
-40.09
-47.67
-56.17
-63.85
-69.00
-70.57
-68.46
-63.47
-57.06
-50.80
-45.90
-42.96
-41.86
-41.85
-41.82
-40.60
-37.33
-31.75
-24.31
-16.15
-8.86
-4.03
-2.78
-5.30
-10.74
-17.39
-23.22
-26.48
-26.20
-22.43
-16.11
-8.64
-1.44
4.41
8.33
10.17
10.25
9.12
7.49
6.03
5.15
4.85
4.75
4.32
3.15
1.22
-1.08
-3.05
-4.08
-3.91
-2.71
-1.05
0.46
1.33
1.39
0.74
-0.38
-1.74
-3.28
-5.06
-7.20
-9.71
-12.49
-15.28
-17.76
-19.57
-20.39
-19.93
-17.97
-14.38
-9.26
-2.99
3.80
10.29
15.73
19.64
21.88
22.63
22.30
21.26
19.82
18.19
16.50
14.91
13.58
12.66
12.22
12.21
12.44
12.75
13.06
13.48
14.23
15.54
17.40
19.53
21.40
22.46
22.38
21.20
19.26
17.06
15.03
13.33
11.86
10.41
8.76
6.82
4.65
2.35
0.08
-2.07
-4.02
-5.76
-7.31
-8.81
-10.43
-12.34
-14.58
-16.95
-19.00
-20.08
-19.64
-17.30
-13.12
-7.48
-1.06
5.43
11.34
16.24
19.91
22.32
23.60
23.98
23.73
23.14
22.41
21.62
20.75
19.66
18.26
16.62
14.96
13.68
13.19
13.72
15.17
17.16
19.09
20.40
20.80
20.35
19.39
18.40
17.72
17.45
17.46
17.46
17.18
16.43
15.14
13.34
11.10
8.55
5.93
3.50
1.52
0.09
-0.85
-1.53
-2.27
-3.32
-4.78
-6.59
-8.54
-10.42
-12.10
-13.58
-15.03
-16.55
-18.09
-19.36
-19.86
-19.07
-16.60
-12.45
-6.92
-0.60
5.81
11.66
16.41
19.68
21.28
21.24
19.80
17.33
14.24
10.88
7.46
4.09
0.84
-2.25
-5.06
-7.47
-9.35
-10.58
-11.11
-11.02
-10.46
-9.72
-9.12
-8.91
-9.20
-9.96
-10.99
-12.05
-12.94
-13.61
-14.14
-14.77
-15.77
-17.34
-19.49
-22.03
-24.53
-26.53
-27.58
-27.35
-25.73
-22.79
-18.77
-14.02
-8.99
-4.19
-0.12
2.81
4.35
4.52
3.63
2.24
1.06
0.76
1.83
4.44
8.44
13.36
18.60
23.52
27.58
30.43
31.85
31.85
30.63
28.49
25.84
23.01
20.25
17.70
15.40
13.38
11.66
10.29
9.27
8.59
8.14
7.84
7.59
7.25
6.67
5.69
4.16
2.10
-0.35
-2.90
-5.24
-7.22
-8.82
-10.20
-11.53
-12.93
-14.34
-15.66
-16.74
-17.50
-17.91
-17.93
-17.56
-16.71
-15.34
-13.47
-11.21
-8.68
-6.00
-3.17
-0.14
3.08
6.34
9.38
11.97
14.11
16.06
18.24
20.96
24.23
27.76
31.16
34.20
37.00
39.82
42.81
45.68
47.65
47.81
45.53
40.80
34.33
27.16
20.28
14.22
8.98
4.24
-0.27
-4.52
-8.15
-10.68
-11.84
-11.69
-10.72
-9.51
-8.58
-8.13
-8.06
-8.12
-8.07
-7.88
-7.70
-7.86
-8.66
-10.25
-12.57
-15.37
-18.30
-21.04
-23.47
-25.55
-27.28
-28.65
-29.51
-29.74
-29.26
-28.12
-26.50
-24.57
-22.46
-20.21
-17.76
-15.08
-12.23
-9.39
-6.78
-4.63
-3.06
-1.98
-1.07
0.11
2.04
5.10
9.50
15.20
21.92
29.17
36.29
42.53
47.25
50.16
51.48
52.06
53.12
55.90
61.20
68.97
78.25
87.36
94.35
97.60
96.28
90.52
81.34
70.16
58.27
46.42
34.53
21.85
7.33
-9.84
-29.86
-52.07
-75.10
-96.99
-115.51
-128.34
-133.37
-129.09
-114.99
-91.95
-62.15
-28.52
6.18
40.17
73.00
105.03
136.56
166.80
193.67
214.22
225.81
227.10
218.55
202.10
180.30
155.54
129.60
103.68
78.69
55.41
34.32
15.35
-2.19
-19.37
-37.09
-55.58
-74.08
-91.07
-104.88
-114.32
-119.23
-120.73
-121.08
-122.95
-128.42
-137.80
-149.08
-158.43
-161.61
-155.81
-140.79
-118.75
-93.01
-66.45
-40.64
-16.17
6.40
25.83
40.36
48.75
51.35
50.28
48.45
47.89
48.46
47.59
41.50
26.87
2.65
-29.14
-63.79
-95.22
-117.87
-128.44
-126.75
-115.52
-99.12
-81.91
-66.95
-55.54
-47.53
-42.14
-38.58
-36.16
-34.08
-31.29
-26.61
-19.19
-9.03
2.90
14.95
25.45
33.31
38.23
40.59
41.14
40.56
39.32
37.65
35.68
33.54
31.34
29.12
26.72
23.63
19.07
12.12
2.04
-11.34
-27.43
-44.88
-61.87
-76.51
-87.27
-93.26
-94.36
-91.19
-84.89
-76.83
-68.30
-60.30
-53.46
-48.13
-44.44
-42.25
-41.20
-40.69
-40.02
-38.66
-36.43
-33.54
-30.42
-27.40
-24.51
-21.45
-17.76
-13.08
-7.30
-0.59
6.72
14.22
21.49
28.09
33.61
37.75
40.48
41.98
42.56
42.51
41.99
41.06
39.73
38.11
36.42
34.93
33.89
33.34
33.17
33.13
33.00
32.79
32.76
33.22
34.36
35.98
37.41
37.74
36.21
32.46
26.75
19.74
12.12
4.31
-3.63
-11.86
-20.37
-28.86
-36.77
-43.62
-49.30
-54.29
-59.48
-65.84
-73.98
-83.84
-94.72
-105.41
-114.57
-121.00
-123.84
-122.63
-117.33
-108.25
-96.03
-81.70
-66.47
-51.61
-38.12
-26.48
-16.56
-7.81
0.40
8.48
16.46
24.05
30.86
36.58
41.10
44.46
46.84
48.46
49.70
51.06
53.15
56.55
61.65
68.56
77.05
86.61
96.59
106.31
115.13
122.54
128.20
131.96
133.84
133.98
132.68
130.28
127.10
123.24
118.55
112.66
105.20
96.05
85.49
74.11
62.43
50.58
38.06
23.94
7.24
-12.54
-35.04
-59.12
-83.10
-105.29
-124.39
-139.65
-150.87
-158.25
-162.23
-163.43
-162.56
-160.25
-156.76
-151.69
-144.06
-132.74
-117.18
-98.11
-77.71
-59.05
-44.96
-36.92
-34.41
-35.24
-36.60
-36.26
-33.42
-28.68
-23.41
-18.82
-15.37
-12.70
-9.99
-6.60
-2.32
2.59
7.81
13.31
19.54
27.17
36.72
48.17
60.78
73.24
83.96
91.59
95.37
95.34
92.28
87.51
82.42
78.10
75.18
73.76
73.72
74.92
77.31
80.81
85.20
89.89
94.03
96.79
97.55
96.09
92.48
86.95
79.74
71.17
61.75
52.19
43.31
35.71
29.61
24.78
20.76
17.20
13.99
11.16
8.66
6.09
2.66
-2.49
-10.00
-19.90
-31.55
-43.70
-54.81
-63.38
-68.12
-68.31
-63.80
-55.11
-43.26
-29.54
-15.21
-1.26
11.71
23.41
33.63
42.09
48.37
52.02
52.81
50.90
46.95
41.86
36.43
31.01
25.30
18.49
9.64
-1.85
-15.89
-31.60
-47.43
-61.58
-72.33
-78.51
-79.69
-76.24
-69.15
-59.67
-48.98
-38.00
-27.44
-17.95
-10.19
-4.87
-2.43
-2.81
-5.26
-8.57
-11.37
-12.65
-12.08
-9.94
-6.88
-3.44
0.22
4.30
9.20
15.14
21.98
29.19
36.11
42.17
47.10
50.97
53.98
56.28
57.83
58.45
58.00
56.53
54.41
52.21
50.42
49.18
48.13
46.55
43.63
38.86
32.24
24.13
14.95
4.84
-6.39
-19.05
-33.18
-48.31
-63.50
-77.72
-90.22
-100.57
-108.52
-113.66
-115.32
-112.83
-105.99
-95.48
-82.76
-69.56
-57.14
-45.80
-34.92
-23.57
-11.31
1.30
12.77
21.38
25.96
26.55
24.40
21.40
19.34
19.19
20.96
23.91
27.15
29.99
32.19
33.77
34.73
34.96
34.28
32.70
30.73
29.44
30.16
33.97
41.18
51.10
62.21
72.73
81.24
87.08
90.37
91.61
91.31
89.66
86.61
82.09
76.21
69.41
62.27
55.33
48.87
42.87
37.04
30.98
24.32
16.81
8.40
-0.73
-10.28
-19.90
-29.30
-38.27
-46.71
-54.50
-61.40
-67.08
-71.11
-73.19
-73.22
-71.47
-68.49
-64.96
-61.53
-58.58
-56.12
-53.99
-51.90
-49.72
-47.53
-45.52
-43.86
-42.52
-41.25
-39.68
-37.54
-34.80
-31.72
-28.72
-26.18
-24.29
-22.98
-22.05
-21.29
-20.56
-19.87
-19.26
-18.72
-18.18
-17.56
-16.82
-16.03
-15.35
-14.98
-15.10
-15.69
-16.62
-17.62
-18.36
-18.59
-18.20
-17.21
-15.88
-14.57
-13.70
-13.59
-14.31
-15.65
-17.13
-18.09
-17.94
-16.29
-13.09
-8.64
-3.53
1.59
6.16
9.80
12.35
13.77
14.11
13.44
11.90
9.67
7.02
4.22
1.48
-1.03
-3.26
-5.18
-6.76
-7.91
-8.53
-8.54
-8.02
-7.18
-6.38
-5.97
-6.23
-7.24
-8.95
-11.20
-13.80
-16.53
-19.16
-21.39
-22.95
-23.64
-23.43
-22.44
-20.85
-18.84
-16.51
-13.96
-11.40
-9.16
-7.65
-7.19
-7.85
-9.39
-11.33
-13.13
-14.29
-14.46
-13.41
-11.09
-7.68
-3.54
0.85
5.03
8.69
11.68
14.01
15.71
16.82
17.32
17.22
16.63
15.70
14.67
13.71
12.97
12.52
12.41
12.66
13.24
14.13
15.25
16.51
17.78
18.91
19.75
20.18
20.11
19.53
18.49
17.05
15.29
13.29
11.12
8.87
6.63
4.47
2.43
0.50
-1.38
-3.25
-5.14
-7.02
-8.89
-10.79
-12.82
-15.08
-17.54
-19.93
-21.76
-22.41
-21.40
-18.53
-14.06
-8.53
-2.60
3.22
8.63
13.52
17.83
21.41
24.02
25.39
25.37
24.07
21.80
19.03
16.22
13.70
11.64
10.08
9.02
8.42
8.28
8.57
9.21
10.08
11.00
11.79
12.34
12.59
12.57
12.29
11.73
10.81
9.47
7.70
5.57
3.29
1.05
-0.99
-2.78
-4.38
-5.91
-7.51
-9.24
-11.09
-13.00
-14.86
-16.54
-17.98
-19.17
-20.22
-21.33
-22.71
-24.41
-26.27
-27.89
-28.69
-28.11
-25.83
-21.79
-16.26
-9.72
-2.75
4.14
10.50
15.98
20.31
23.30
24.84
24.94
23.78
21.65
18.90
15.89
12.94
10.26
8.03
6.35
5.26
4.79
4.91
5.59
6.71
8.12
9.62
10.95
11.84
12.10
11.67
10.68
9.33
7.87
6.43
5.01
3.53
1.90
0.09
-1.86
-3.84
-5.77
-7.61
-9.31
-10.86
-12.26
-13.55
-14.84
-16.28
-17.97
-19.86
-21.74
-23.19
-23.70
-22.82
-20.26
-16.02
-10.41
-3.95
2.69
8.88
14.17
18.27
21.09
22.68
23.19
22.83
21.83
20.42
18.73
16.86
14.84
12.75
10.72
8.97
7.71
7.07
7.04
7.53
8.34
9.26
10.11
10.77
11.16
11.27
11.13
10.82
10.32
9.59
8.50
7.03
5.21
3.24
1.35
-0.28
-1.62
-2.72
-3.69
-4.60
-5.46
-6.28
-7.08
-7.91
-8.80
-9.71
-10.55
-11.24
-11.79
-12.31
-13.01
-14.10
-15.68
-17.76
-20.22
-22.83
-25.25
-27.03
-27.63
-26.54
-23.48
-18.51
-12.11
-5.10
1.64
7.39
11.77
14.76
16.59
17.59
17.98
17.90
17.39
16.50
15.27
13.76
11.95
9.87
7.66
5.73
4.73
5.34
7.92
12.15
17.03
21.10
22.97
21.85
17.80
11.62
4.59
-1.93
-6.81
-9.31
-9.23
-6.91
-3.25
0.53
3.19
3.86
2.37
-0.81
-4.77
-8.58
-11.63
-13.76
-15.18
-16.20
-17.02
-17.59
-17.61
-16.68
-14.44
-10.71
-5.63
0.38
6.68
12.53
17.29
20.55
22.21
22.41
21.45
19.64
17.23
14.44
11.48
8.61
6.16
4.37
3.37
3.03
3.06
3.09
2.86
2.36
1.76
1.38
1.42
1.87
2.48
2.91
2.87
2.32
1.43
0.51
-0.21
-0.64
-0.89
-1.25
-1.99
-3.28
-5.10
-7.29
-9.61
-11.83
-13.75
-15.21
-16.01
-15.88
-14.55
-11.87
-7.94
-3.12
1.96
6.69
10.61
13.55
15.58
16.89
17.62
17.81
17.35
16.18
14.34
12.04
9.61
7.42
5.70
4.54
3.87
3.58
3.57
3.80
4.30
5.03
5.88
6.63
7.04
6.95
6.34
5.34
4.16
3.01
1.99
1.13
0.35
-0.46
-1.40
-2.56
-4.00
-5.72
-7.63
-9.56
-11.30
-12.65
-13.50
-13.91
-14.06
-14.24
-14.70
-15.55
-16.68
-17.79
-18.38
-17.99
-16.26
-13.09
-8.66
-3.42
2.05
7.10
11.25
14.19
15.91
16.59
16.49
15.86
14.87
13.57
12.02
10.29
8.51
6.85
5.43
4.32
3.53
3.07
2.93
3.15
3.74
4.66
5.80
7.00
8.11
9.01
9.67
10.07
10.24
10.17
9.82
9.10
7.98
6.49
4.73
2.88
1.10
-0.47
-1.82
-2.98
-4.07
-5.20
-6.44
-7.81
-9.25
-10.65
-11.88
-12.86
-13.60
-14.25
-15.01
-16.03
-17.32
-18.66
-19.67
-19.93
-19.15
-17.28
-14.47
-10.96
-6.96
-2.63
1.93
6.52
10.87
14.58
17.31
18.82
19.13
18.39
16.88
14.88
12.63
10.30
8.05
6.01
4.34
3.17
2.62
2.72
3.41
4.52
5.82
7.10
8.22
9.13
9.84
10.34
10.62
10.61
10.26
9.57
8.59
7.47
6.35
5.34
4.44
3.59
2.69
1.71
0.72
-0.14
-0.69
-0.87
-0.75
-0.65
-0.99
-2.15
-4.28
-7.18
-10.29
-12.90
-14.31
-14.11
-12.23
-8.95
-4.78
-0.33
3.72
6.80
8.45
8.40
6.65
3.47
-0.72
-5.41
-10.13
-14.52
-18.32
-21.34
-23.49
-24.74
-25.12
-24.66
-23.34
-21.10
-17.87
-13.64
-8.58
-3.01
2.53
7.46
11.18
13.30
13.79
13.01
11.66
10.55
10.24
10.85
11.99
13.06
13.54
13.30
12.67
12.20
12.34
13.18
14.38
15.38
15.67
14.91
12.93
9.59
4.71
-1.80
-9.66
-18.11
-25.85
-31.47
-33.91
-32.91
-29.09
-23.67
-17.95
-12.93
-9.14
-6.68
-5.43
-5.21
-5.80
-6.97
-8.47
-10.09
-11.78
-13.56
-15.53
-17.69
-19.95
-22.07
-23.80
-24.95
-25.45
-25.33
-24.69
-23.70
-22.62
-21.76
-21.40
-21.65
-22.38
-23.19
-23.52
-22.83
-20.77
-17.34
-12.81
-7.62
-2.24
2.96
7.70
11.76
14.95
17.10
18.09
17.97
16.87
15.05
12.74
10.19
7.69
5.65
4.58
5.00
7.19
10.97
15.70
20.40
24.12
26.21
26.52
25.33
23.25
20.96
19.04
17.89
17.72
18.44
19.79
21.31
22.51
23.06
22.84
22.07
21.16
20.55
20.49
20.99
21.78
22.48
22.70
22.16
20.70
18.31
15.12
11.42
7.59
4.08
1.18
-1.11
-3.08
-5.26
-8.20
-12.21
-17.25
-22.93
-28.69
-34.02
-38.53
-42.13
-44.88
-46.93
-48.36
-49.08
-48.84
-47.23
-43.84
-38.42
-30.93
-21.63
-11.05
0.12
11.04
20.91
28.98
34.66
37.61
37.80
35.49
31.21
25.61
19.41
13.26
7.73
3.21
-0.08
-2.15
-3.27
-3.76
-3.98
-4.07
-3.96
-3.39
-2.06
0.23
3.48
7.46
11.73
15.76
19.01
21.13
21.97
21.65
20.47
18.82
17.05
15.37
13.85
12.45
11.03
9.48
7.65
5.49
3.03
0.43
-2.13
-4.51
-6.71
-8.82
-10.98
-13.29
-15.76
-18.29
-20.66
-22.51
-23.38
-22.88
-20.78
-17.19
-12.58
-7.64
-3.01
0.93
4.14
6.80
9.12
11.17
12.83
13.95
14.46
14.49
14.30
14.17
14.23
14.45
14.69
14.83
14.87
14.97
15.39
16.35
17.90
19.88
21.91
23.58
24.53
24.58
23.68
21.90
19.33
16.03
11.99
7.20
1.67
-4.52
-11.23
-18.30
-25.55
-32.77
-39.71
-45.98
-51.13
-54.66
-56.19
-55.52
-52.68
-47.96
-41.86
-34.95
-27.83
-21.01
-14.87
-9.59
-5.23
-1.74
0.93
2.80
3.94
4.44
4.46
4.23
3.94
3.71
3.62
3.66
3.84
4.17
4.65
5.27
5.97
6.68
7.31
7.77
8.00
7.97
7.71
7.30
6.81
6.28
5.66
4.80
3.56
1.87
-0.22
-2.52
-4.86
-7.06
-8.99
-10.45
-11.14
-10.72
-8.93
-5.77
-1.56
3.12
7.63
11.47
14.44
16.56
17.96
18.75
18.95
18.53
17.48
15.91
14.04
12.09
10.23
8.57
7.14
6.00
5.23
4.96
5.21
5.90
6.81
7.69
8.34
8.69
8.75
8.61
8.27
7.74
6.98
5.97
4.73
3.31
1.72
0.02
-1.73
-3.37
-4.77
-5.84
-6.65
-7.38
-8.22
-9.34
-10.67
-12.09
-13.35
-14.30
-14.92
-15.31
-15.62
-16.06
-16.74
-17.66
-18.65
-19.44
-19.63
-18.87
-16.93
-13.78
-9.62
-4.81
0.25
5.20
9.76
13.69
16.78
18.86
19.83
19.70
18.68
17.11
15.38
13.78
12.44
11.33
10.38
9.50
8.77
8.34
8.39
9.06
10.32
11.97
13.70
15.18
16.15
16.50
16.30
15.67
14.80
13.79
12.66
11.41
10.03
8.53
6.97
5.39
3.82
2.26
0.72
-0.79
-2.26
-3.66
-5.03
-6.39
-7.77
-9.16
-10.50
-11.74
-12.87
-13.96
-15.16
-16.64
-18.48
-20.58
-22.66
-24.29
-25.04
-24.66
-23.06
-20.37
-16.82
-12.69
-8.26
-3.82
0.32
3.85
6.51
8.18
8.93
8.92
8.40
7.51
6.33
4.92
3.35
1.76
0.37
-0.62
-1.13
-1.15
-0.74
0.01
1.06
2.31
3.65
4.91
5.90
6.52
6.79
6.81
6.65
6.35
5.85
5.12
4.15
3.06
1.97
0.99
0.17
-0.52
-1.12
-1.65
-2.10
-2.52
-2.97
-3.56
-4.33
-5.26
-6.27
-7.30
-8.36
-9.51
-10.85
-12.40
-14.01
-15.40
-16.22
-16.10
-14.85
-12.44
-9.04
-4.94
-0.47
4.05
8.36
12.22
15.39
17.69
18.96
19.16
18.35
16.74
14.64
12.35
10.14
8.21
6.68
5.58
4.90
4.57
4.49
4.55
4.71
4.96
5.36
5.94
6.68
7.45
8.07
8.35
8.17
7.51
6.47
5.19
3.81
2.42
1.03
-0.39
-1.85
-3.34
-4.77
-6.03
-7.04
-7.81
-8.44
-9.09
-9.88
-10.86
-11.96
-13.08
-14.10
-14.96
-15.62
-16.15
-16.66
-17.32
-18.24
-19.44
-20.73
-21.72
-21.89
-20.80
-18.25
-14.41
-9.71
-4.76
-0.10
3.90
7.06
9.33
10.69
11.16
10.79
9.68
8.02
6.01
3.86
1.72
-0.27
-2.01
-3.44
-4.50
-5.17
-5.43
-5.28
-4.69
-3.70
-2.39
-0.91
0.53
1.73
2.58
3.07
3.27
3.31
3.28
3.20
3.07
2.86
2.58
2.23
1.87
1.51
1.15
0.73
0.21
-0.42
-1.12
-1.79
-2.38
-2.87
-3.30
-3.73
-4.21
-4.69
-5.12
-5.45
-5.72
-6.00
-6.36
-6.80
-7.22
-7.38
-7.06
-6.10
-4.49
-2.35
0.10
2.66
5.14
7.41
9.35
10.82
11.68
11.82
11.20
9.95
8.32
6.62
5.10
3.88
2.97
2.26
1.67
1.16
0.75
0.44
0.24
0.09
-0.05
-0.22
-0.45
-0.78
-1.25
-1.91
-2.77
-3.74
-4.69
-5.47
-5.98
-6.24
-6.37
-6.54
-6.88
-7.48
-8.33
-9.33
-10.37
-11.32
-12.10
-12.73
-13.28
-13.89
-14.69
-15.69
-16.77
-17.66
-17.97
-17.40
-15.72
-12.87
-8.99
-4.34
0.71
5.73
10.30
14.09
16.88
18.60
19.34
19.28
18.60
17.51
16.14
14.62
13.07
11.60
10.31
9.31
8.67
8.42
8.53
8.88
9.34
9.71
9.86
9.75
9.40
8.89
8.35
7.86
7.48
7.16
6.81
6.27
5.39
4.10
2.41
0.46
-1.54
-3.37
-4.86
-5.95
-6.73
-7.40
-8.18
-9.30
-10.86
-12.79
-14.89
-16.85
-18.32
-18.93
-18.44
-16.71
-13.85
-10.11
-5.91
-1.70
2.19
5.53
8.25
10.34
11.85
12.79
13.22
13.17
12.75
12.05
11.15
10.14
9.12
8.17
7.40
6.88
6.66
6.76
7.19
7.90
8.84
9.91
10.93
11.73
12.11
11.99
11.35
10.33
9.14
8.00
7.06
6.32
5.65
4.86
3.83
2.55
1.16
-0.15
-1.24
-2.09
-2.84
-3.66
-4.68
-5.91
-7.27
-8.60
-9.77
-10.74
-11.55
-12.30
-13.10
-14.04
-15.12
-16.30
-17.46
-18.42
-18.97
-18.87
-17.90
-15.92
-12.89
-8.95
-4.36
0.49
5.26
9.64
13.40
16.41
18.53
19.63
19.67
18.73
17.05
14.97
12.85
10.99
9.52
8.46
7.77
7.42
7.43
7.74
8.30
9.02
9.86
10.82
11.95
13.25
14.63
15.84
16.62
16.77
16.25
15.21
13.87
12.52
11.32
10.39
9.75
9.33
9.00
8.56
7.78
6.55
4.88
2.93
0.94
-0.87
-2.39
-3.70
-4.93
-6.28
-7.85
-9.63
-11.51
-13.31
-14.89
-16.23
-17.50
-18.98
-21.01
-23.80
-27.27
-31.04
-34.48
-36.94
-37.92
-37.26
-35.16
-32.04
-28.43
-24.82
-21.61
-19.07
-17.36
-16.54
-16.52
-17.08
-17.94
-18.76
-19.37
-19.74
-20.04
-20.51
-21.37
-22.70
-24.36
-26.01
-27.22
-27.54
-26.60
-24.13
-19.93
-13.85
-5.79
4.25
16.09
29.30
43.17
56.72
68.86
78.57
85.09
88.08
87.64
84.19
78.32
70.69
62.01
53.12
44.89
38.02
32.78
28.77
25.00
20.31
13.87
5.56
-3.99
-13.75
-22.82
-30.77
-37.70
-43.99
-49.95
-55.50
-60.19
-63.41
-64.67
-63.86
-61.28
-57.48
-53.00
-48.18
-43.16
-37.97
-32.72
-27.65
-23.09
-19.27
-16.19
-13.57
-11.01
-8.19
-4.95
-1.41
2.22
5.67
8.81
11.58
14.02
16.18
18.10
19.73
21.03
21.94
22.39
22.34
21.74
20.58
18.87
16.73
14.35
11.98
9.82
7.94
6.32
4.90
3.68
2.77
2.40
2.73
3.79
5.48
7.57
9.82
12.01
13.91
15.30
15.93
15.67
14.51
12.71
10.66
8.78
7.35
6.48
6.11
6.15
6.48
7.02
7.71
8.50
9.36
10.28
11.24
12.13
12.77
12.95
12.51
11.45
9.98
8.38
6.94
5.78
4.86
4.05
3.25
2.53
2.02
1.90
2.17
2.65
3.04
3.03
2.48
1.51
0.39
-0.58
-1.23
-1.61
-1.95
-2.46
-3.28
-4.36
-5.59
-6.81
-7.89
-8.80
-9.57
-10.27
-10.99
-11.84
-12.89
-14.23
-15.90
-17.85
-20.01
-22.22
-24.34
-26.25
-27.91
-29.37
-30.70
-31.94
-32.98
-33.61
-33.53
-32.42
-30.11
-26.56
-21.93
-16.57
-10.91
-5.43
-0.51
3.59
6.78
9.12
10.76
11.90
12.72
13.35
13.82
14.10
14.15
13.94
13.56
13.20
13.02
13.11
13.35
13.48
13.22
12.45
11.24
9.72
7.96
5.76
2.77
-1.35
-6.59
-12.57
-18.62
-24.03
-28.44
-31.86
-34.67
-37.29
-39.98
-42.65
-44.98
-46.60
-47.32
-47.24
-46.71
-46.13
-45.87
-46.12
-46.99
-48.54
-50.68
-53.07
-54.85
-54.74
-51.41
-44.08
-33.12
-20.11
-7.35
2.99
9.78
13.23
14.63
15.59
17.32
20.23
24.01
28.11
32.09
35.84
39.44
42.88
45.88
47.97
48.66
47.79
45.67
42.98
40.57
39.07
38.70
39.32
40.56
42.20
44.24
46.90
50.38
54.61
59.18
63.44
66.82
69.11
70.63
72.02
74.00
76.88
80.44
83.98
86.66
87.95
87.85
86.94
86.13
86.29
87.98
91.34
96.10
101.80
107.89
113.86
119.27
123.84
127.49
130.40
132.85
135.01
136.51
136.30
132.69
123.88
108.74
87.37
61.24
32.83
4.78
-20.88
-43.07
-61.70
-77.26
-90.44
-101.85
-112.06
-121.50
-130.46
-138.89
-146.47
-152.61
-156.80
-158.88
-159.12
-158.03
-156.06
-153.37
-149.79
-144.99
-138.71
-130.87
-121.48
-110.57
-98.10
-84.07
-68.68
-52.55
-36.65
-22.23
-10.40
-1.93
3.05
5.02
4.93
3.95
3.13
3.11
4.01
5.53
7.17
8.50
9.33
9.68
9.66
9.30
8.52
7.30
5.76
4.19
2.95
2.25
2.03
1.97
1.64
0.71
-0.93
-3.20
-5.81
-8.49
-10.92
-12.89
-14.24
-14.91
-14.94
-14.45
-13.57
-12.45
-11.18
-9.85
-8.54
-7.32
-6.25
-5.37
-4.68
-4.15
-3.76
-3.44
-3.16
-2.90
-2.72
-2.68
-2.88
-3.35
-4.07
-4.94
-5.87
-6.73
-7.45
-8.03
-8.53
-9.07
-9.70
-10.42
-11.05
-11.33
-10.92
-9.60
-7.30
-4.21
-0.64
3.02
6.42
9.29
11.46
12.83
13.37
13.13
12.22
10.85
9.23
7.57
6.04
4.72
3.59
2.63
1.78
1.04
0.47
0.16
0.19
0.56
1.14
1.74
2.16
2.30
2.17
1.82
1.33
0.70
-0.09
-1.05
-2.12
-3.20
-4.17
-4.99
-5.74
-6.54
-7.48
-8.55
-9.63
-10.55
-11.22
-11.68
-12.14
-12.83
-13.87
-15.16
-16.35
-16.96
-16.57
-15.00
-12.30
-8.69
-4.44
0.29
5.34
10.53
15.55
20.05
23.78
26.62
28.57
29.54
29.27
27.31
23.16
16.54
7.57
-3.23
-14.97
-26.57
-36.87
-44.84
-49.71
-51.15
-49.32
-44.84
-38.43
-30.76
-22.21
-12.97
-3.25
6.50
15.57
23.18
28.73
32.01
33.28
33.09
32.05
30.56
28.84
26.92
24.85
22.76
20.87
19.32
18.09
16.88
15.24
12.77
9.33
5.17
0.76
-3.42
-7.18
-10.65
-14.14
-17.98
-22.16
-26.37
-30.02
-32.45
-33.15
-31.91
-28.86
-24.48
-19.51
-14.78
-11.06
-8.76
-7.79
-7.57
-7.24
-5.99
-3.34
0.69
5.66
10.90
15.84
20.17
23.91
27.27
30.40
33.30
35.80
37.72
39.07
40.09
41.28
43.12
45.89
49.49
53.54
57.51
60.90
63.41
64.95
65.54
65.27
64.24
62.52
60.20
57.31
53.88
49.88
45.22
39.74
33.29
25.73
17.11
7.69
-2.09
-11.65
-20.51
-28.36
-35.11
-40.85
-45.65
-49.59
-52.70
-54.99
-56.50
-57.22
-56.98
-55.48
-52.38
-47.48
-40.93
-33.37
-25.71
-18.88
-13.48
-9.56
-6.70
-4.30
-1.89
0.62
2.96
4.73
5.66
5.71
5.09
4.06
2.79
1.29
-0.47
-2.45
-4.44
-6.16
-7.40
-8.12
-8.49
-8.75
-9.07
-9.42
-9.60
-9.42
-8.84
-8.04
-7.39
-7.23
-7.71
-8.72
-9.91
-10.88
-11.39
-11.45
-11.30
-11.32
-11.89
-13.20
-15.25
-17.80
-20.49
-22.83
-24.40
-25.03
-25.06
-25.44
-27.63
-33.09
-42.67
-56.07
-71.81
-87.63
-101.24
-110.91
-115.87
-116.15
-112.33
-105.30
-96.09
-85.85
-75.80
-67.00
-60.11
-55.27
-52.17
-50.27
-48.96
-47.65
-45.82
-43.02
-38.97
-33.62
-27.29
-20.55
-14.01
-8.13
-3.05
1.44
5.89
11.02
17.46
25.63
35.60
47.05
59.39
71.86
83.65
94.01
102.29
108.04
111.07
111.58
110.12
107.39
104.15
101.02
98.39
96.53
95.59
95.55
96.27
97.40
98.48
99.07
98.84
97.53
94.97
90.92
85.14
77.47
67.98
57.12
45.73
34.91
25.77
19.16
15.45
14.41
15.26
16.90
18.23
18.44
17.21
14.66
11.29
7.67
4.35
1.67
-0.20
-1.31
-1.80
-1.93
-1.93
-1.99
-2.20
-2.49
-2.70
-2.58
-1.94
-0.70
1.04
3.02
4.99
6.69
7.94
8.50
8.04
6.19
2.78
-1.84
-6.68
-10.26
-11.24
-9.03
-4.11
2.13
7.97
12.03
13.67
12.90
10.02
5.21
-1.53
-10.25
-20.67
-32.03
-43.35
-53.82
-63.21
-72.00
-81.00
-90.87
-101.56
-112.20
-121.33
-127.48
-129.72
-128.02
-123.12
-116.13
-108.07
-99.54
-90.72
-81.49
-71.75
-61.53
-50.98
-40.26
-29.45
-18.54
-7.56
3.32
13.77
23.42
32.03
39.60
46.38
52.68
58.65
64.09
68.46
71.10
71.40
69.12
64.41
57.85
50.14
41.93
33.59
25.16
16.54
7.72
-0.98
-8.77
-14.52
-17.04
-15.45
-9.55
0.09
12.21
25.23
37.59
48.16
56.34
62.06
65.58
67.26
67.45
66.36
64.08
60.69
56.35
51.36
46.27
41.71
38.31
36.42
35.97
36.53
37.38
37.78
37.16
35.30
32.24
28.27
23.79
19.19
14.83
10.91
7.56
4.76
2.46
0.54
-1.09
-2.51
-3.72
-4.68
-5.31
-5.60
-5.66
-5.74
-6.24
-7.57
-10.03
-13.63
-18.11
-23.04
-27.93
-32.50
-36.68
-40.60
-44.36
-47.91
-51.00
-53.23
-54.29
-54.07
-52.76
-50.71
-48.26
-45.65
-43.02
-40.46
-38.14
-36.19
-34.71
-33.63
-32.75
-31.86
-30.86
-29.77
-28.67
-27.52
-26.11
-24.18
-21.61
-18.54
-15.43
-12.82
-11.12
-10.43
-10.55
-11.19
-12.12
-13.28
-14.65
-16.21
-17.80
-19.16
-20.02
-20.21
-19.73
-18.72
-17.36
-15.89
-14.48
-13.19
-11.98
-10.74
-9.39
-7.96
-6.63
-5.58
-4.95
-4.66
-4.51
-4.31
-4.09
-4.09
-4.68
-6.05
-8.13
-10.47
-12.50
-13.76
-14.06
-13.57
-12.60
-11.49
-10.43
-9.51
-8.74
-8.16
-7.73
-7.30
-6.52
-4.85
-1.76
3.06
9.47
16.90
24.44
31.16
36.42
39.98
41.98
42.75
42.63
41.87
40.57
38.84
36.81
34.67
32.66
30.99
29.80
29.17
29.11
29.58
30.42
31.36
32.03
32.00
30.99
29.00
26.32
23.47
20.91
18.91
17.43
16.25
15.19
14.19
13.44
13.17
13.47
14.21
15.00
15.37
15.00
13.79
11.94
9.81
7.74
5.93
4.44
3.23
2.28
1.63
1.17
0.55
-0.94
-4.12
-9.57
-17.28
-26.51
-36.12
-44.95
-52.25
-57.78
-61.63
-63.93
-64.68
-63.75
-61.17
-57.28
-52.70
-48.21
