1699455160.00
64.000000
-0.00
-0.00
-0.00
-0.00
-0.00
-0.00
-0.00
-0.00
-0.00
-0.00
0.00
0.01
0.01
-0.00
-0.03
-0.05
-0.05
0.00
0.13
0.36
0.66
1.01
1.37
1.72
2.06
2.40
2.79
3.24
3.80
4.42
5.06
5.66
6.20
6.68
7.15
7.68
8.31
9.14
10.09
11.04
11.88
12.56
13.14
13.76
14.65
15.96
17.91
20.32
22.90
25.38
27.58
29.57
31.68
34.32
37.81
42.54
48.15
54.10
59.83
64.97
69.58
74.14
79.34
85.71
93.76
103.00
112.62
121.73
129.77
136.75
143.30
150.75
157.77
166.64
177.95
191.79
206.97
220.57
228.25
225.36
208.53
176.87
132.76
80.05
23.07
-34.94
-92.44
-149.16
-205.23
-260.37
-313.74
-363.87
-409.83
-450.91
-486.50
-515.74
-537.23
-549.22
-549.96
-538.37
-514.21
-478.67
-433.88
-382.45
-327.02
-269.84
-212.63
-156.66
-102.95
-52.37
-5.90
35.58
71.43
101.35
125.50
144.38
158.69
169.15
176.37
180.75
182.57
182.07
179.51
175.23
169.65
163.18
156.15
148.81
141.30
133.69
126.02
118.33
110.69
103.16
95.80
88.68
81.83
75.25
68.95
62.95
57.25
51.86
46.78
42.03
37.59
33.45
29.62
26.07
22.81
19.82
17.11
14.66
12.48
10.54
8.85
7.38
6.10
4.97
3.99
3.13
2.40
1.79
1.31
0.95
0.68
0.47
0.28
0.10
-0.10
-0.28
-0.44
-0.54
-0.59
-0.59
-0.59
-0.62
-0.72
-0.89
-1.08
-1.24
-1.31
-1.28
-1.19
-1.14
-1.24
-1.55
-2.05
-2.63
-3.11
-3.38
-3.37
-3.18
-3.04
-3.17
-3.73
-4.70
-5.87
-6.91
-7.55
-7.66
-7.40
-7.10
-7.17
-7.91
-9.30
-11.06
-12.72
-13.86
-14.23
-13.93
-13.29
-12.76
-12.87
-14.05
-16.52
-20.04
-23.68
-25.83
-24.65
-18.82
-8.27
5.46
19.69
31.60
39.27
42.35
41.92
39.79
37.69
36.78
37.48
39.67
42.88
46.31
49.01
49.98
48.46
44.25
37.78
29.96
21.85
14.52
8.47
4.00
1.12
-0.39
-0.93
-1.00
-1.09
-1.61
-2.83
-4.94
-7.94
-11.74
-16.10
-20.57
-24.66
-27.94
-30.15
-31.20
-31.15
-30.08
-28.10
-25.42
-22.41
-19.60
-17.40
-15.98
-15.07
-14.17
-12.81
-10.80
-8.34
-5.84
-3.70
-2.12
-1.10
-0.52
-0.28
-0.26
-0.33
-0.35
-0.14
0.34
1.05
1.83
2.53
3.10
3.60
4.11
4.69
5.35
6.00
6.56
6.91
6.96
6.63
5.93
4.92
3.73
2.55
1.42
0.27
-1.12
-3.02
-5.63
-8.95
-12.80
-16.77
-20.31
-22.76
-23.50
-22.07
-18.32
-12.53
-5.41
2.02
8.70
13.78
16.82
17.82
17.09
15.13
12.34
8.94
5.03
0.59
-4.37
-9.62
-14.77
-19.26
-22.56
-24.33
-24.54
-23.47
-21.62
-19.45
-17.28
-15.18
-13.05
-10.77
-8.29
-5.80
-3.62
-2.11
-1.53
-1.88
-2.96
-4.37
-5.65
-6.38
-6.25
-5.03
-2.68
0.62
4.46
8.22
11.20
12.89
13.08
11.92
9.80
7.18
4.41
1.66
-0.90
-3.14
-4.82
-5.72
-5.77
-5.13
-4.11
-3.12
-2.43
-2.12
-2.07
-2.06
-1.90
-1.45
-0.65
0.51
2.04
3.93
6.19
8.80
11.67
14.65
17.51
20.04
22.16
24.00
25.89
28.23
31.27
34.97
38.89
42.35
44.64
45.33
44.29
41.74
38.08
33.74
29.12
24.62
20.64
17.57
15.78
15.40
16.27
17.87
19.56
20.77
21.26
21.14
20.78
20.50
20.35
20.05
19.19
17.46
14.83
11.58
8.13
4.85
1.97
-0.43
-2.22
-3.11
-2.73
-0.76
2.83
7.60
12.75
17.30
20.51
22.00
21.84
20.46
18.37
16.07
13.98
12.40
11.60
11.73
12.73
14.26
15.73
16.40
15.64
13.10
8.91
3.59
-2.05
-7.19
-11.17
-13.70
-14.82
-14.85
-14.15
-13.03
-11.65
-10.10
-8.43
-6.80
-5.43
-4.59
-4.49
-5.24
-6.83
-9.15
-12.06
-15.37
-18.88
-22.29
-25.32
-27.66
-29.05
-29.24
-27.87
-24.53
-18.79
-10.47
0.18
12.25
24.26
34.42
40.99
42.81
39.56
31.82
20.89
8.49
-3.66
-14.12
-22.00
-27.02
-29.42
-29.86
-29.18
-28.10
-27.11
-26.38
-25.74
-24.89
-23.49
-21.34
-18.54
-15.51
-12.93
-11.58
-12.06
-14.59
-18.86
-24.12
-29.43
-33.84
-36.72
-37.74
-36.91
-34.46
-30.80
-26.45
-21.99
-17.83
-14.04
-10.31
-6.00
-0.62
5.84
12.66
18.41
21.52
20.83
16.20
8.56
-0.25
-8.11
-13.24
-14.61
-12.14
-6.60
0.75
8.46
15.22
20.02
22.29
21.92
19.18
14.63
8.93
2.76
-3.33
-8.88
-13.52
-17.00
-19.24
-20.36
-20.69
-20.74
-20.99
-21.71
-22.92
-24.41
-25.89
-27.19
-28.30
-29.39
-30.70
-32.44
-34.67
-37.34
-40.22
-42.90
-44.83
-45.39
-44.05
-40.59
-35.27
-28.78
-22.12
-16.26
-11.85
-9.15
-8.01
-8.05
-8.81
-9.89
-10.93
-11.64
-11.79
-11.19
-9.72
-7.34
-4.12
-0.22
4.07
8.44
12.57
16.25
19.39
22.04
24.25
25.99
27.06
27.21
26.30
24.53
22.43
20.75
20.14
20.88
22.83
25.49
28.29
30.77
32.60
33.49
33.07
30.90
26.71
20.61
13.17
5.29
-2.17
-8.66
-14.00
-18.25
-21.45
-23.47
-24.12
-23.35
-21.38
-18.78
-16.17
-14.02
-12.44
-11.26
-10.15
-8.88
-7.44
-6.01
-4.94
-4.54
-5.10
-6.71
-9.30
-12.64
-16.23
-19.43
-21.46
-21.58
-19.28
-14.44
-7.43
0.91
9.39
16.76
21.97
24.39
23.94
21.05
16.48
11.22
6.22
2.25
-0.20
-0.95
-0.20
1.58
3.78
5.79
7.21
7.95
8.20
8.33
8.63
9.23
10.03
10.84
11.51
11.97
12.27
12.42
12.32
11.72
10.31
7.83
4.18
-0.49
-5.83
-11.29
-16.13
-19.53
-20.73
-19.21
-14.98
-8.59
-1.04
6.55
13.24
18.50
22.22
24.62
26.03
26.80
27.25
27.64
28.23
29.27
30.90
33.07
35.54
37.84
39.51
40.25
40.04
39.18
38.11
37.14
36.33
35.42
33.98
31.72
28.56
24.70
20.41
15.88
11.12
6.00
0.41
-5.63
-11.89
-18.01
-23.61
-28.28
-31.68
-33.46
-33.31
-31.01
-26.53
-20.16
-12.61
-4.89
1.81
6.54
8.79
8.67
6.78
3.97
0.99
-1.68
-3.88
-5.57
-6.70
-7.11
-6.63
-5.20
-3.03
-0.56
1.73
3.46
4.48
4.82
4.57
3.80
2.57
1.02
-0.62
-2.05
-3.07
-3.86
-4.90
-6.91
-10.55
-16.05
-23.09
-30.81
-38.07
-43.83
-47.36
-48.44
-47.33
-44.64
-41.15
-37.73
-35.26
-34.50
-36.02
-39.99
-46.08
-53.49
-61.24
-68.56
-75.31
-81.91
-88.83
-95.90
-102.09
-105.96
-106.46
-103.69
-98.83
-93.57
-89.26
-86.58
-85.78
-87.15
-91.22
-98.29
-107.85
-118.36
-127.66
-133.94
-136.50
-135.99
-133.94
-131.93
-130.84
-130.35
-128.94
-124.26
-114.01
-97.12
-74.77
-50.48
-28.95
-14.20
-7.71
-8.08
-12.11
-16.78
-20.68
-23.99
-27.18
-29.54
-28.91
-22.65
-9.29
10.47
34.19
59.31
84.77
111.67
142.44
179.16
222.02
268.75
315.30
357.12
390.45
412.85
423.11
420.98
406.99
382.78
351.32
316.73
283.31
254.43
231.27
212.36
194.05
171.87
142.10
102.87
54.39
-1.57
-62.28
-124.64
-185.18
-240.25
-286.36
-321.13
-344.10
-357.16
-363.89
-368.24
-372.84
-378.24
-383.19
-385.67
-383.72
-375.82
-360.68
-337.15
-304.58
-263.37
-215.28
-162.94
-108.62
-53.10
4.90
67.83
137.49
213.19
290.86
363.88
425.01
468.58
492.00
495.99
483.78
459.95
429.40
396.73
365.82
339.54
319.34
304.75
293.51
282.26
267.56
247.11
220.31
188.19
152.73
116.13
80.32
46.78
16.60
-9.50
-31.23
-48.68
-62.30
-72.64
-80.25
-85.57
-88.96
-90.66
-90.90
-89.98
-88.43
-87.11
-87.15
-89.64
-95.15
-103.28
-112.58
-120.98
-126.67
-128.99
-128.70
-127.63
-127.57
-129.32
-132.06
-133.75
-132.16
-125.97
-115.27
-101.39
-86.06
-70.59
-55.35
-40.02
-24.15
-7.80
8.22
22.61
34.08
41.93
46.18
47.52
46.90
45.19
42.95
40.48
37.89
35.33
33.06
31.52
31.32
33.00
36.87
42.67
49.56
56.31
61.76
65.37
67.36
68.64
70.29
73.09
77.33
82.92
89.81
98.28
109.00
122.66
139.59
159.43
181.26
203.73
225.19
243.81
257.51
264.15
262.18
251.33
233.01
210.03
185.43
160.86
135.66
106.90
70.68
23.77
-35.08
-104.56
-181.03
-259.20
-333.18
-397.42
-447.80
-482.51
-502.42
-510.74
-511.72
-508.91
-504.07
-497.24
-487.82
-475.79
-462.27
-449.13
-437.88
-428.40
-418.26
-403.43
-380.08
-346.38
-303.20
-253.73
-201.99
-151.48
-103.95
-58.43
-12.03
38.24
94.04
155.70
222.60
293.04
363.62
428.74
481.77
516.49
528.05
513.89
474.72
414.22
337.88
251.56
161.10
74.03
-0.17
-52.24
-75.60
-67.60
-29.76
32.67
111.57
189.19
243.52
260.94
243.31
203.57
157.49
117.69
90.95
77.71
74.69
76.96
82.23
89.25
96.39
101.74
103.59
100.92
93.76
83.18
72.51
67.00
70.86
85.11
106.92
129.80
144.93
143.47
119.59
73.39
11.50
-55.72
-118.00
-168.39
-204.67
-228.65
-244.15
-254.51
-261.05
-263.30
-260.82
-254.62
-247.19
-241.34
-238.79
-239.18
-240.18
-238.51
-231.48
-218.49
-201.35
-183.58
-168.74
-158.90
-153.85
-151.38
-148.50
-142.80
-133.41
-120.97
-106.94
-92.53
-78.20
-63.65
-48.43
-32.53
-16.63
-1.88
10.62
20.32
27.39
32.65
37.21
42.12
48.05
55.11
62.91
70.74
77.90
83.97
88.90
92.82
95.95
98.42
100.26
101.43
101.93
101.80
100.98
99.24
96.12
91.11
83.77
74.12
62.68
50.42
38.41
27.43
17.68
8.83
0.34
-8.17
-16.56
-24.20
-30.30
-34.33
-36.21
-36.36
-35.39
-33.89
-32.32
-31.09
-30.66
-31.57
-34.22
-38.55
-43.96
-49.35
-53.44
-55.24
-54.28
-50.76
-45.26
-38.50
-30.96
-22.80
-13.96
-4.38
5.80
16.10
25.87
34.49
41.62
47.25
51.58
54.92
57.47
59.28
60.28
60.34
59.38
57.31
54.12
49.96
45.21
40.55
36.89
35.10
35.68
38.61
43.28
48.70
53.81
57.74
59.93
60.08
58.02
53.57
46.55
36.89
24.78
10.74
-4.53
-20.32
-36.19
-52.01
-67.74
-83.22
-97.91
-111.15
-122.65
-133.06
-143.85
-156.55
-171.57
-187.39
-200.79
-208.02
-206.02
-192.98
-168.27
-131.95
-84.72
-28.41
33.42
95.77
153.47
203.02
243.41
275.75
301.65
321.87
336.16
344.18
346.54
344.62
339.21
329.18
311.59
283.35
243.78
195.96
145.85
99.76
61.71
32.48
10.50
-6.06
-17.97
-25.06
-27.50
-26.91
-26.45
-29.63
-38.72
-53.85
-73.51
-95.57
-118.46
-141.02
-161.81
-178.14
-185.92
-180.30
-157.16
-114.74
-54.89
16.42
89.75
154.13
199.61
219.95
214.06
185.98
143.29
94.76
48.26
9.65
-17.62
-32.28
-35.11
-28.90
-17.94
-7.02
-0.02
1.10
-3.31
-11.30
-20.44
-28.75
-35.31
-40.12
-43.69
-46.69
-49.71
-53.20
-57.47
-62.60
-68.11
-72.74
-74.55
-71.49
-62.73
-49.96
-37.40
-30.42
-32.92
-45.23
-63.57
-81.64
-93.06
-94.36
-86.29
-73.02
-59.89
-51.28
-49.72
-56.12
-70.24
-90.06
-112.44
-133.80
-150.82
-161.02
-163.17
-157.73
-146.55
-132.24
-116.04
-98.62
-80.80
-63.94
-49.01
-35.73
-22.78
-8.44
8.51
29.92
56.57
87.69
121.23
155.53
190.67
228.09
270.41
308.39
333.50
342.77
340.05
329.28
309.43
276.40
227.67
166.40
101.01
43.29
2.26
-19.86
-27.94
-30.43
-34.74
-44.91
-61.26
-81.92
-103.42
-123.14
-140.59
-157.57
-176.53
-191.95
-202.62
-208.61
-210.92
-210.29
-206.39
-197.42
-180.39
-152.04
-115.74
-72.13
-23.66
24.73
67.51
101.30
125.56
141.40
150.28
152.29
146.88
137.01
127.30
120.65
120.65
129.14
144.81
163.16
176.22
175.09
156.33
119.72
66.00
-1.35
-77.93
-159.97
-235.92
-292.87
-344.73
-400.80
-453.42
-497.49
-528.83
-545.58
-548.79
-541.95
-530.75
-520.73
-510.83
-496.72
-474.17
-438.59
-387.62
-322.66
-248.79
-173.90
-105.54
-45.39
7.95
55.92
100.23
141.50
179.08
211.64
237.47
255.43
267.63
277.13
286.20
296.82
309.99
325.57
342.52
359.30
374.46
388.07
400.33
410.55
417.55
419.92
416.59
407.29
392.48
373.21
351.25
328.56
306.83
287.32
270.38
255.27
240.65
225.44
209.72
195.00
183.42
176.48
174.10
174.43
174.77
172.64
166.46
155.33
138.49
114.62
82.02
39.54
-12.23
-70.00
-128.08
-179.55
-218.13
-239.77
-243.44
-230.86
-205.58
-171.90
-133.98
-95.58
-59.87
-29.50
-6.43
8.28
14.92
15.30
12.42
9.60
9.17
11.54
14.98
16.51
13.44
4.94
-7.31
-19.86
-29.09
-33.03
-32.25
-29.45
-28.14
-31.04
-38.92
-50.47
-63.08
-74.14
-82.24
-87.78
-92.54
-98.53
-106.72
-116.43
-125.75
-132.78
-136.68
-137.96
-137.91
-137.62
-137.28
-136.15
-133.29
-128.29
-121.63
-114.43
-108.01
-103.37
-100.96
-100.78
-102.41
-105.24
-108.53
-111.52
-113.55
-114.22
-113.35
-110.90
-106.86
-101.15
-93.68
-84.48
-73.74
-61.84
-49.30
-36.71
-24.62
-13.56
-3.95
3.80
9.38
12.61
13.54
12.48
9.98
6.70
3.34
0.47
-1.52
-2.39
-2.15
-0.94
0.92
2.96
4.67
5.73
6.07
5.91
5.67
5.71
6.11
6.68
7.04
6.84
6.00
4.70
3.30
2.11
1.22
0.48
-0.48
-2.01
-4.32
-7.25
-10.31
-12.76
-13.78
-12.69
-9.22
-3.52
3.82
12.00
20.19
27.75
34.27
39.49
43.21
45.28
45.51
43.87
40.44
35.60
29.91
24.04
18.70
14.43
11.50
9.91
9.38
9.44
9.60
9.52
9.04
8.19
7.05
5.63
3.90
1.79
-0.62
-3.12
-5.40
-7.33
-9.01
-10.82
-13.20
-16.31
-19.81
-22.79
-24.19
-23.07
-19.12
-12.69
-4.70
3.68
11.42
17.81
22.56
25.64
27.19
27.38
26.35
24.32
21.57
18.54
15.72
13.54
12.23
11.71
11.53
10.98
9.20
5.46
-0.53
-8.53
-17.71
-27.03
-35.54
-42.79
-48.87
-54.18
-59.10
-63.67
-67.53
-70.00
-70.44
-68.28
-63.14
-54.76
-43.03
-28.26
-11.29
6.46
23.31
37.77
48.98
56.87
61.89
64.71
65.74
65.12
62.74
58.59
53.05
46.82
40.82
35.71
31.76
28.70
25.97
23.08
19.83
16.45
13.38
11.01
9.50
8.71
8.30
8.01
7.76
7.68
8.07
9.19
11.09
13.51
15.95
17.74
18.31
17.38
15.12
12.10
9.05
6.74
5.68
6.11
8.00
11.11
15.09
19.52
23.92
27.80
30.70
32.30
32.45
31.28
29.10
26.38
23.58
21.07
19.04
17.46
16.18
14.99
13.76
12.42
11.03
9.66
8.34
7.02
5.57
3.82
1.63
-0.97
-3.84
-6.75
-9.47
-11.94
-14.18
-16.33
-18.57
-20.96
-23.40
-25.60
-27.08
-27.29
-25.82
-22.49
-17.47
-11.29
-4.63
1.75
7.25
11.48
14.22
15.45
15.29
13.99
11.91
9.49
7.25
5.59
4.77
4.85
5.65
6.85
8.14
9.24
10.03
10.45
10.49
10.14
9.35
8.08
6.31
4.11
1.63
-0.91
-3.26
-5.24
-6.78
-7.99
-9.13
-10.51
-12.35
-14.62
-17.04
-19.07
-20.13
-19.72
-17.59
-13.83
-8.73
-2.75
3.58
9.77
15.32
19.85
23.14
25.20
26.21
26.48
26.26
25.72
24.82
23.49
21.67
19.39
16.82
14.21
11.74
9.51
7.45
5.41
3.11
0.35
-3.00
-6.82
-10.75
-14.29
-16.99
-18.66
-19.43
-19.72
-20.01
-20.60
-21.46
-22.26
-22.49
-21.69
-19.58
-16.18
-11.73
-6.59
-1.19
3.99
8.50
11.92
13.91
14.37
13.43
11.44
8.89
6.28
4.01
2.37
1.58
1.75
2.91
4.93
7.47
10.06
12.19
13.52
13.94
13.57
12.65
11.39
9.87
8.07
5.89
3.29
0.31
-2.94
-6.34
-9.71
-12.81
-15.37
-17.08
-17.78
-17.56
-16.80
-16.03
-15.70
-15.99
-16.62
-17.05
-16.63
-14.94
-11.91
-7.83
-3.24
1.25
5.16
8.17
10.15
11.19
11.53
11.54
11.52
11.68
12.02
12.43
12.82
13.15
13.49
13.84
14.01
13.62
12.26
9.72
6.13
1.97
-2.12
-5.64
-8.36
-10.26
-11.41
-11.81
-11.43
-10.28
-8.49
-6.33
-4.12
-2.17
-0.66
0.28
0.53
-0.03
-1.51
-3.87
-6.88
-10.14
-13.21
-15.78
-17.70
-19.01
-19.87
-20.47
-20.95
-21.52
-22.38
-23.84
-26.14
-29.31
-33.05
-36.67
-39.26
-39.91
-37.98
-33.21
-25.72
-15.88
-4.29
8.36
21.24
33.48
44.32
53.28
60.20
65.27
68.78
71.01
72.04
71.85
70.40
67.75
64.14
59.88
55.20
50.15
44.58
38.24
30.99
22.93
14.39
5.79
-2.51
-10.16
-16.93
-22.51
-26.58
-28.89
-29.40
-28.40
-26.39
-23.90
-21.28
-18.64
-16.00
-13.50
-11.46
-10.33
-10.40
-11.56
-13.35
-15.14
-16.38
-16.79
-16.41
-15.43
-14.06
-12.47
-10.78
-9.16
-7.74
-6.56
-5.37
-3.68
-0.95
3.08
8.14
13.39
17.74
20.31
20.78
19.36
16.60
12.95
8.61
3.55
-2.17
-8.10
-13.41
-17.11
-18.47
-17.42
-14.52
-10.70
-6.92
-3.76
-1.40
0.32
1.63
2.65
3.30
3.40
2.85
1.79
0.60
-0.20
-0.19
0.73
2.31
3.95
5.01
4.98
3.78
1.71
-0.65
-2.68
-3.94
-4.27
-3.76
-2.72
-1.47
-0.34
0.42
0.66
0.32
-0.45
-1.36
-1.88
-1.38
0.71
4.68
10.44
17.41
24.69
31.20
35.98
38.41
38.28
35.78
31.29
25.30
18.19
10.27
1.84
-6.74
-14.99
-22.38
-28.44
-32.93
-35.84
-37.33
-37.67
-37.10
-35.80
-34.00
-31.94
-29.90
-28.16
-26.81
-25.81
-24.94
-24.00
-22.90
-21.77
-20.88
-20.53
-20.88
-21.90
-23.34
-24.78
-25.75
-25.87
-24.96
-23.11
-20.68
-18.17
-16.00
-14.39
-13.29
-12.47
-11.73
-11.13
-10.99
-11.78
-13.82
-17.06
-20.98
-24.69
-27.30
-28.17
-27.10
-24.27
-20.06
-14.90
-9.20
-3.45
1.75
5.75
8.00
8.30
6.83
3.99
0.15
-4.67
-10.76
-18.47
-27.87
-38.40
-48.94
-57.97
-64.07
-66.32
-64.61
-59.72
-53.03
-46.02
-39.66
-34.10
-28.78
-22.93
-16.18
-8.86
-1.85
3.94
8.19
11.24
13.85
16.55
19.28
21.39
22.11
21.10
18.72
15.80
13.21
11.43
10.47
10.05
10.06
10.69
12.47
15.91
21.16
27.83
35.00
41.54
46.43
49.11
49.60
48.43
46.48
44.62
43.58
43.79
45.36
48.03
51.24
54.15
55.79
55.35
52.48
47.54
41.46
35.48
30.60
27.19
24.89
22.88
20.34
16.88
12.59
7.91
3.31
-0.90
-4.66
-8.02
-11.04
-13.77
-16.29
-18.76
-21.46
-24.67
-28.47
-32.68
-36.82
-40.32
-42.64
-43.42
-42.52
-39.91
-35.73
-30.26
-23.98
-17.50
-11.48
-6.43
-2.53
0.30
2.40
4.08
5.58
7.01
8.45
10.13
12.35
15.43
19.44
24.13
28.94
33.24
36.63
39.05
40.70
41.84
42.62
42.94
42.60
41.45
39.53
37.07
34.31
31.40
28.27
24.76
20.77
16.52
12.52
9.55
8.34
9.35
12.62
17.67
23.72
29.91
35.43
39.70
42.28
42.89
41.35
37.65
32.05
25.11
17.64
10.54
4.57
0.14
-2.66
-4.00
-4.18
-3.47
-2.10
-0.25
1.85
4.02
6.07
7.91
9.47
10.65
11.29
11.15
9.98
7.63
4.14
-0.32
-5.51
-11.22
-17.22
-23.24
-28.93
-33.79
-37.33
-39.17
-39.17
-37.49
-34.44
-30.41
-25.76
-20.89
-16.20
-12.16
-9.21
-7.61
-7.36
-8.07
-9.16
-10.00
-10.17
-9.53
-8.25
-6.68
-5.18
-4.06
-3.45
-3.37
-3.74
-4.44
-5.35
-6.36
-7.41
-8.43
-9.42
-10.36
-11.32
-12.44
-13.95
-15.95
-18.32
-20.56
-21.90
-21.61
-19.27
-15.06
-9.69
-4.18
0.48
3.68
5.29
5.52
4.78
3.48
1.86
0.04
-1.93
-4.04
-6.19
-8.20
-9.82
-10.78
-10.91
-10.22
-8.92
-7.31
-5.68
-4.27
-3.20
-2.54
-2.34
-2.66
-3.56
-5.06
-7.07
-9.45
-12.08
-14.91
-17.97
-21.32
-24.86
-28.24
-30.82
-31.82
-30.59
-26.89
-20.99
-13.65
-5.91
1.14
6.56
9.65
9.98
7.41
2.11
-5.47
-14.78
-25.36
-36.90
-49.31
-62.50
-76.20
-89.73
-102.11
-112.16
-118.84
-121.51
-120.05
-114.90
-106.89
-97.02
-86.35
-75.69
-65.53
-55.84
-46.04
-35.18
-22.27
-6.66
11.73
32.32
54.07
75.85
96.64
115.75
132.85
148.03
161.82
175.11
188.82
203.43
218.34
231.81
241.39
244.85
241.12
230.62
214.88
195.71
174.38
151.41
126.89
101.05
74.61
48.68
24.40
2.54
-16.42
-32.08
-43.67
-49.96
-49.51
-41.30
-25.35
-2.81
24.29
53.78
84.14
114.94
146.80
180.79
217.60
256.79
296.62
334.26
366.47
390.17
402.79
402.46
387.98
358.94
315.91
260.69
196.38
127.06
57.10
-9.60
-70.28
-123.43
-168.67
-206.33
-236.95
-261.13
-279.37
-292.11
-299.76
-302.62
-300.81
-294.38
-283.47
-268.62
-250.95
-232.05
-213.62
-197.06
-183.09
-171.41
-160.85
-149.72
-136.51
-120.51
-102.39
-84.25
-69.06
-59.54
-57.14
-61.45
-70.45
-81.38
-91.52
-98.78
-101.80
-99.93
-93.42
-83.84
-73.92
-66.92
-65.49
-70.48
-80.62
-93.29
-105.87
-117.04
-127.10
-137.41
-149.05
-161.82
-174.20
-184.03
-189.83
-191.76
-191.79
-193.02
-198.19
-208.27
-221.62
-234.25
-240.96
-236.99
-219.35
-187.42
-142.98
-90.37
-36.54
9.49
38.44
43.87
25.43
-9.81
-49.05
-78.29
-87.78
-75.37
-46.26
-9.74
25.43
54.25
75.97
92.33
104.84
113.19
115.51
109.92
96.18
76.64
55.76
38.54
28.67
27.14
32.20
40.41
48.34
54.08
57.77
61.05
65.70
72.57
81.11
89.97
98.06
105.23
112.44
121.17
132.38
145.89
160.29
173.48
183.39
188.49
188.13
182.56
172.85
160.56
147.26
134.01
120.93
107.37
92.58
76.63
60.92
47.82
39.53
36.91
39.04
43.79
49.01
53.57
57.44
61.17
65.02
68.47
70.48
70.13
67.13
62.00
55.68
49.11
42.85
37.07
31.70
26.61
21.75
17.20
13.14
9.72
7.02
4.87
2.93
0.72
-2.06
-5.46
-9.23
-13.00
-16.62
-20.30
-24.67
-30.51
-38.41
-48.37
-59.73
-71.23
-81.36
-88.80
-92.71
-92.87
-89.55
-83.19
-74.26
-63.09
-49.99
-35.48
-20.35
-5.69
7.27
17.45
23.99
26.35
24.19
17.37
6.01
-9.42
-27.90
-47.92
-67.61
-85.03
-98.51
-106.88
-109.63
-106.94
-99.52
-88.44
-74.91
-60.04
-44.73
-29.67
-15.35
-2.17
9.56
19.66
28.09
34.99
40.52
44.75
47.55
48.63
47.66
44.43
39.05
31.99
24.02
16.01
8.83
3.09
-0.89
-3.13
-3.93
-3.71
-2.92
-1.89
-0.78
0.39
1.77
3.51
5.72
8.42
11.58
15.10
18.86
22.67
26.31
29.51
32.12
34.10
35.57
36.73
37.66
38.13
37.72
35.87
32.15
26.52
19.27
10.93
2.11
-6.60
-14.75
-21.95
-27.99
-32.87
-36.81
-40.18
-43.22
-45.83
-47.55
-47.61
-45.39
-40.69
-33.91
-25.89
-17.59
-9.70
-2.53
3.88
9.52
14.23
17.82
20.22
21.62
22.43
23.03
23.55
23.78
23.35
21.94
19.41
15.87
11.62
7.03
2.68
-0.72
-2.50
-2.13
0.48
5.04
11.03
17.84
24.93
31.66
37.36
41.32
43.17
43.01
41.37
38.84
35.78
32.14
27.90
23.37
19.30
16.46
14.90
13.44
9.90
2.11
-10.98
-28.50
-47.87
-65.72
-79.12
-86.54
-88.23
-85.88
-81.91
-78.63
-77.56
-78.97
-81.69
-83.20
-80.22
-69.66
-49.63
-20.20
16.06
54.07
86.97
108.07
113.61
104.57
86.63
67.75
54.47
48.99
48.24
46.08
36.91
19.70
-1.55
-20.07
-30.33
-31.00
-25.08
-17.55
-12.18
-9.73
-7.11
-0.25
13.00
30.69
47.41
57.33
56.98
47.05
30.95
14.07
0.83
-6.11
-6.01
1.98
20.54
53.69
105.43
167.24
224.39
260.34
265.75
241.68
196.50
141.14
85.65
38.57
5.05
-12.59
-15.07
-6.09
7.90
20.33
28.74
29.00
19.10
-1.78
-32.48
-69.45
-108.36
-145.74
-178.11
-202.11
-216.55
-221.37
-219.79
-217.58
-220.00
-225.80
-233.77
-239.21
-234.60
-214.02
-173.41
-113.68
-39.86
43.11
129.56
212.56
285.39
342.70
380.69
402.42
415.95
418.78
412.60
398.23
372.68
331.61
282.70
226.92
169.24
114.59
63.75
17.12
-25.65
-65.59
-103.55
-138.92
-171.84
-201.25
-227.53
-252.86
-278.72
-306.92
-339.25
-377.33
-419.13
-458.55
-484.66
-486.79
-459.14
-401.78
-321.93
-232.04
-148.79
-86.81
-54.69
-52.42
-73.93
-110.37
-152.09
-191.33
-206.81
-185.95
-132.73
-65.84
-4.17
43.18
76.39
101.13
124.62
152.96
186.21
219.53
248.56
269.14
278.25
275.03
261.65
242.80
223.76
206.37
190.68
177.01
166.01
158.94
155.57
153.92
151.07
144.47
131.96
113.88
93.75
76.52
66.34
64.81
70.98
82.45
96.43
109.62
119.17
123.29
121.36
114.06
102.92
89.94
76.79
64.07
50.86
35.49
16.65
-5.92
-31.16
-57.34
-82.72
-106.13
-127.24
-146.28
-163.53
-178.86
-191.57
-200.48
-204.49
-203.18
-197.15
-188.03
-177.87
-168.28
-159.83
-151.93
-143.26
-132.68
-119.87
-105.54
-91.16
-78.36
-68.40
-62.04
-59.54
-60.90
-65.89
-74.00
-84.41
-96.07
-107.78
-118.53
-127.62
-134.96
-141.25
-147.98
-157.02
-169.74
-185.98
-203.43
-218.02
-225.41
-222.89
-210.72
-192.14
-171.79
-153.52
-138.58
-125.29
-110.25
-90.29
-64.14
-32.94
0.43
32.62
61.04
84.24
101.77
113.80
120.92
124.25
125.60
127.21
131.04
137.90
146.89
155.76
161.96
163.85
161.56
156.82
152.14
149.66
150.30
153.67
158.56
163.73
168.55
173.11
178.06
184.10
191.56
200.09
208.74
216.07
220.57
221.16
217.51
210.19
200.42
189.61
178.75
168.04
156.87
144.16
128.96
110.80
89.59
65.33
37.56
5.44
-31.75
-73.81
-118.93
-163.80
-204.27
-236.54
-258.06
-267.94
-266.80
-256.29
-238.60
-216.23
-191.86
-168.05
-146.60
-127.96
-110.93
-93.27
-72.78
-48.37
-20.55
9.10
38.75
67.00
92.91
115.49
133.61
146.50
154.82
161.24
169.76
183.77
203.80
226.67
246.66
258.39
259.50
251.76
239.75
228.17
219.37
212.48
204.45
191.97
173.16
147.82
116.85
81.49
43.33
5.01
-29.18
-53.77
-64.01
-58.30
-39.88
-16.19
3.82
13.42
10.96
0.14
-11.95
-18.34
-15.02
-2.06
17.21
38.22
57.08
71.54
80.99
85.73
86.29
83.18
76.96
68.38
58.24
46.85
33.46
16.24
-6.84
-36.48
-70.61
-104.22
-130.86
-145.32
-146.12
-136.29
-122.17
-110.44
-105.50
-108.23
-116.65
-127.82
-139.48
-150.65
-161.14
-170.61
-178.20
-183.06
-185.28
-186.45
-189.39
-196.91
-210.46
-229.28
-250.60
-270.73
-286.42
-296.00
-299.60
-298.89
-296.18
-293.40
-291.40
-289.53
-285.90
-277.98
-263.42
-240.82
-210.11
-172.78
-131.60
-90.18
-52.29
-21.09
1.74
16.26
24.17
27.89
29.63
30.54
30.68
29.37
25.93
20.15
12.40
3.62
-4.84
-11.28
-14.01
-11.99
-5.41
4.07
13.67
20.54
22.79
20.20
14.07
6.58
-0.01
-3.87
-3.83
0.76
10.06
23.68
40.73
59.96
80.21
100.78
121.61
143.16
165.97
190.12
214.82
238.24
257.92
271.46
277.43
275.91
268.49
257.43
244.73
231.24
216.59
199.67
179.59
156.36
130.95
104.94
79.91
57.12
37.61
22.49
13.09
10.71
15.86
27.71
43.92
61.23
76.57
88.22
96.35
102.60
109.01
116.76
125.55
133.72
139.15
140.17
136.17
127.47
114.67
98.14
77.92
54.12
27.71
0.60
-24.88
-47.20
-66.68
-85.25
-104.96
-126.17
-146.68
-162.99
-172.74
-176.74
-178.94
-184.10
-194.84
-210.09
-226.05
-238.90
-247.12
-251.77
-254.57
-255.47
-251.76
-239.55
-216.59
-184.30
-147.52
-112.10
-81.98
-57.59
-36.36
-14.68
9.97
37.86
67.21
95.44
120.37
141.18
158.28
172.31
183.22
189.74
189.74
181.37
164.06
138.77
107.35
71.44
31.92
-10.78
-55.43
-99.06
-136.97
-164.10
-176.90
-174.82
-160.31
-137.70
-111.50
-85.05
-60.22
-37.79
-18.12
-1.49
11.95
22.44
30.73
37.71
44.06
49.96
55.12
59.12
61.71
62.98
63.40
63.48
63.52
63.34
62.17
58.78
51.88
40.62
24.78
4.97
-17.52
-40.67
-62.05
-79.38
-90.99
-95.98
-93.98
-84.59
-67.06
-40.95
-7.08
31.69
70.75
105.25
132.21
151.90
167.34
182.15
197.90
213.10
224.18
227.97
223.75
213.37
199.68
184.39
167.31
147.24
123.82
98.84
75.90
58.59
48.41
43.80
41.00
36.04
26.79
13.70
-0.98
-14.81
-26.48
-36.18
-45.02
-53.93
-62.87
-70.85
-76.66
-79.70
-80.60
-80.94
-82.57
-86.71
-93.38
-101.50
-109.41
-115.51
-118.77
-118.87
-116.03
-110.72
-103.39
-94.43
-84.18
-73.09
-61.75
-50.77
-40.53
-30.99
-21.70
-12.07
-1.74
9.10
19.72
29.10
36.40
41.28
43.99
44.93
44.43
42.49
38.96
33.86
27.67
21.29
15.73
11.71
9.32
8.06
7.04
5.35
2.41
-1.90
-7.20
-12.83
-17.96
-21.84
-23.93
-24.00
-22.05
-18.37
-13.32
-7.45
-1.40
4.15
8.51
11.22
12.13
11.41
9.49
6.89
4.04
1.28
-1.20
-3.24
-4.68
-5.40
-5.32
-4.48
-3.04
-1.29
0.43
1.83
2.70
2.99
2.78
2.19
1.35
0.34
-0.91
-2.53
-4.65
-7.42
-10.89
-15.08
-19.96
-25.40
-31.02
-36.20
-40.11
-41.88
-40.85
-36.86
-30.37
-22.29
-13.83
-6.14
-0.05
4.07
6.28
6.87
6.29
4.92
3.05
0.92
-1.20
-3.07
-4.45
-5.20
-5.32
-4.93
-4.21
-3.37
-2.60
-2.11
-2.07
-2.59
-3.70
-5.31
-7.27
-9.40
-11.55
-13.65
-15.69
-17.73
-19.89
-22.32
-25.06
-27.92
-30.42
-31.82
-31.41
-28.77
-24.03
-17.76
-10.83
-4.08
1.86
6.60
9.88
11.57
11.69
10.47
8.33
5.84
3.44
1.39
-0.25
-1.49
-2.29
-2.49
-2.01
-0.87
0.63
2.02
2.86
2.84
1.91
0.20
-2.05
-4.62
-7.32
-10.01
-12.58
-15.00
-17.35
-19.81
-22.61
-25.83
-29.25
-32.17
-33.57
-32.50
-28.46
-21.67
-13.19
-4.43
3.22
8.90
12.45
14.22
14.80
14.68
14.04
12.90
11.26
9.24
7.23
5.64
4.85
4.97
5.81
6.99
8.04
8.59
8.51
7.78
6.49
4.68
2.34
-0.53
-3.86
-7.48
-11.13
-14.62
-17.92
-21.14
-24.40
-27.59
-30.25
-31.60
-30.77
-27.11
-20.36
-10.77
1.07
14.32
28.01
41.08
52.42
61.03
66.25
68.05
66.89
63.66
59.25
54.33
49.22
43.97
38.56
33.00
27.38
21.95
16.96
12.71
9.37
6.89
5.02
3.35
1.41
-1.06
-4.10
-7.51
-11.12
-14.85
-18.77
-22.97
-27.54
-32.51
-37.84
-43.39
-48.80
-53.38
-56.12
-55.95
-52.22
-44.99
-35.22
-24.49
-14.45
-6.30
-0.55
2.94
4.67
5.20
4.90
4.05
2.82
1.44
0.19
-0.63
-0.77
-0.12
1.27
3.15
5.21
7.12
8.66
9.74
10.40
10.68
10.55
9.92
8.71
6.96
4.95
3.07
1.59
0.54
-0.41
-1.83
-4.22
-7.80
-12.27
-16.91
-20.75
-22.77
-22.17
-18.62
-12.27
-3.75
5.94
15.72
24.58
31.82
37.04
40.15
41.25
40.48
38.11
34.40
29.76
24.63
19.55
14.98
11.34
8.80
7.38
6.84
6.77
6.71
6.26
5.20
3.53
1.33
-1.24
-4.07
-7.06
-10.04
-12.80
-15.08
-16.72
-17.78
-18.55
-19.53
-21.22
-23.88
-27.37
-31.12
-34.22
-35.66
-34.60
-30.66
-24.08
-15.68
-6.63
1.90
9.06
14.48
18.21
20.43
21.30
20.88
19.27
16.77
13.99
11.64
10.42
10.64
12.25
14.82
17.76
20.52
22.66
23.92
24.12
23.20
21.28
18.58
15.47
12.32
9.40
6.70
4.04
1.10
-2.35
-6.28
-10.45
-14.47
-18.06
-21.10
-23.56
-25.45
-26.56
-26.43
-24.55
-20.53
-14.42
-6.82
1.28
8.69
14.48
18.15
19.75
19.69
18.54
16.74
14.60
12.27
9.96
8.01
6.80
6.64
7.55
9.21
11.07
12.53
13.21
12.96
11.90
10.26
8.27
6.05
3.72
1.36
-0.93
-3.08
-5.15
-7.28
-9.74
-12.70
-16.17
-19.80
-22.96
-24.88
-24.82
-22.35
-17.48
-10.64
-2.66
5.50
12.91
18.81
22.77
24.66
24.64
23.03
20.31
16.96
13.47
10.23
7.53
5.50
4.20
3.60
3.66
4.24
5.15
6.08
6.73
6.80
6.18
4.92
3.16
1.09
-1.18
-3.61
-6.19
-8.95
-11.91
-15.11
-18.61
-22.46
-26.54
-30.56
-33.95
-36.02
-36.12
-33.79
-28.99
-22.11
-13.98
-5.64
1.86
7.74
11.68
13.80
14.52
14.33
13.59
12.48
11.07
9.42
7.75
6.37
5.56
5.46
5.98
6.80
7.56
7.94
7.77
7.07
5.93
4.48
2.81
1.04
-0.79
-2.65
-4.53
-6.48
-8.51
-10.59
-12.65
-14.60
-16.37
-17.92
-19.14
-19.71
-19.09
-16.73
-12.32
-6.05
1.31
8.66
14.93
19.46
22.10
23.15
23.09
22.30
21.03
19.46
17.79
16.29
15.21
14.70
14.75
15.20
15.81
16.32
16.50
16.21
15.39
14.05
12.31
10.31
8.20
6.14
4.22
2.49
0.95
-0.49
-1.99
-3.72
-5.84
-8.36
-11.11
-13.65
-15.36
-15.63
-14.02
-10.45
-5.23
1.08
7.81
14.35
20.19
24.90
28.13
29.61
29.30
27.43
24.53
21.24
18.15
15.60
13.69
12.36
11.48
10.99
10.82
10.91
11.12
11.21
10.92
10.05
8.47
6.26
3.65
0.94
-1.51
-3.53
-5.14
-6.57
-8.18
-10.28
-13.02
-16.26
-19.60
-22.44
-24.14
-24.15
-22.19
-18.32
-12.97
-6.86
-0.80
4.41
8.24
10.46
11.16
10.66
9.38
7.67
5.79
3.88
2.07
0.56
-0.39
-0.55
0.14
1.45
2.92
3.99
4.20
3.38
1.67
-0.56
-2.91
-5.07
-6.85
-8.25
-9.41
-10.58
-12.07
-14.08
-16.60
-19.29
-21.46
-22.32
-21.21
-17.87
-12.54
-5.86
1.36
8.32
14.41
19.18
22.36
23.81
23.55
21.86
19.21
16.22
13.47
11.32
9.89
9.06
8.56
8.16
7.75
7.29
6.85
6.45
6.06
5.57
4.87
3.87
2.50
0.83
-1.00
-2.87
-4.66
-6.45
-8.41
-10.70
-13.30
-15.81
-17.53
-17.70
-15.78
-11.73
-6.05
0.44
6.89
12.70
17.60
21.62
24.94
27.74
30.10
32.01
33.41
34.25
34.47
34.01
32.79
30.69
27.64
23.60
18.63
12.92
6.72
0.28
-6.17
-12.40
-18.19
-23.19
-27.01
-29.34
-30.18
-29.98
-29.57
-29.97
-31.93
-35.67
-40.74
-46.08
-50.44
-52.81
-52.75
-50.58
-47.15
-43.55
-40.65
-38.86
-37.98
-37.49
-36.78
-35.44
-33.35
-30.66
-27.61
-24.42
-21.19
-17.98
-14.85
-11.87
-9.15
-6.76
-4.76
-3.14
-1.88
-0.92
-0.15
0.53
1.17
1.65
1.71
1.00
-0.71
-3.45
-6.93
-10.70
-14.32
-17.48
-20.00
-21.74
-22.40
-21.55
-18.64
-13.45
-6.18
2.36
10.96
18.35
23.62
26.39
26.85
25.53
23.03
19.87
16.37
12.79
9.42
6.61
4.73
4.00
4.36
5.41
6.53
7.16
7.02
6.16
4.99
3.94
3.27
2.94
2.65
2.01
0.80
-1.00
-3.25
-5.73
-8.33
-10.91
-13.30
-15.15
-15.92
-15.07
-12.27
-7.64
-1.72
4.58
10.36
15.00
18.24
20.16
20.97
20.86
19.89
18.11
15.68
12.92
10.29
8.23
7.04
6.68
6.89
7.29
7.54
7.49
7.14
6.62
6.02
5.37
4.55
3.41
1.82
-0.23
-2.63
-5.27
-8.04
-10.91
-13.80
-16.45
-18.39
-18.95
-17.54
-13.90
-8.29
-1.47
5.51
11.65
16.28
19.12
20.30
20.12
18.92
16.99
14.58
11.92
9.29
7.03
5.47
4.87
5.28
6.50
8.09
9.47
10.14
9.84
8.63
6.83
4.87
3.04
1.40
-0.24
-2.12
-4.45
-7.28
-10.47
-13.78
-16.96
-19.73
-21.79
-22.80
-22.32
-19.94
-15.44
-8.94
-1.05
7.28
14.91
20.88
24.64
26.19
25.94
24.52
22.51
20.28
18.06
16.00
14.31
13.23
12.99
13.61
14.80
16.10
16.95
17.02
16.23
14.75
12.92
10.99
9.09
7.22
5.35
3.51
1.77
0.21
-1.18
-2.53
-4.11
-6.19
-8.88
-11.96
-14.90
-16.85
-16.86
-14.25
-8.75
-0.73
8.96
19.22
29.06
37.83
45.20
51.10
55.47
58.14
58.81
57.22
53.30
47.26
39.63
31.12
22.42
14.10
6.55
0.06
-5.17
-9.00
-11.37
-12.47
-12.74
-12.82
-13.39
-14.88
-17.38
-20.57
-23.96
-27.16
-30.06
-32.81
-35.73
-39.07
-42.87
-46.93
-50.90
-54.33
-56.70
-57.49
-56.23
-52.58
-46.49
-38.36
-28.97
-19.41
-10.82
-4.05
0.46
2.75
3.19
2.36
0.83
-0.96
-2.65
-3.93
-4.54
-4.22
-2.85
-0.50
2.51
5.72
8.66
10.97
12.50
13.26
13.37
12.92
11.97
10.57
8.78
6.71
4.53
2.39
0.41
-1.42
-3.24
-5.28
-7.73
-10.65
-13.76
-16.52
-18.16
-18.01
-15.67
-11.19
-5.11
1.75
8.49
14.35
18.88
21.84
23.25
23.28
22.25
20.63
18.94
17.68
17.19
17.55
18.65
20.18
21.88
23.55
25.15
26.67
28.11
29.41
30.48
31.30
31.91
32.53
33.40
34.68
36.38
38.32
40.06
40.98
40.31
37.26
31.24
22.12
10.51
-2.27
-14.44
-24.26
-30.59
-33.17
-32.55
-29.72
-25.67
-21.16
-16.70
-12.78
-9.97
-8.92
-10.04
-13.24
-17.78
-22.46
-26.01
-27.57
-26.99
-24.86
-22.20
-20.01
-18.92
-19.01
-19.83
-20.46
-19.66
-15.99
-8.22
4.19
20.44
38.24
54.23
64.97
68.15
63.38
52.19
37.34
21.84
8.10
-2.28
-8.41
-9.93
-6.96
-0.21
8.97
18.78
27.40
33.41
36.03
35.14
31.07
24.43
15.96
6.53
-3.00
-11.81
-19.21
-24.75
-28.14
-29.23
-27.99
-24.55
-19.28
-12.77
-5.80
0.76
6.22
10.11
12.27
12.69
11.37
8.18
2.88
-4.68
-14.37
-25.60
-37.36
-48.39
-57.47
-63.66
-66.39
-65.52
-61.22
-54.00
-44.61
-34.03
-23.32
-13.44
-5.03
1.67
6.82
10.82
14.20
17.42
20.74
24.14
27.26
29.47
30.09
28.67
25.23
20.28
14.67
9.27
4.62
0.87
-2.15
-4.71
-6.91
-8.66
-9.79
-10.16
-9.85
-9.15
-8.46
-8.22
-8.77
-10.28
-12.73
-15.94
-19.54
-23.07
-25.96
-27.69
-27.82
-26.10
-22.62
-17.84
-12.54
-7.67
-4.13
-2.53
-3.06
-5.49
-9.28
-13.78
-18.34
-22.41
-25.56
-27.49
-28.07
-27.39
-25.77
-23.76
-22.03
-21.20
-21.60
-23.22
-25.67
-28.36
-30.86
-32.98
-34.99
-37.34
-40.46
-44.54
-49.43
-54.75
-59.99
-64.73
-68.73
-72.01
-74.78
-77.54
-80.79
-84.82
-89.37
-93.28
-94.54
-90.83
-80.26
-62.19
-37.65
-9.15
20.00
46.53
67.80
82.17
89.04
88.73
82.37
71.70
58.82
45.73
33.94
24.25
16.88
11.72
8.79
8.26
10.30
14.76
20.89
27.48
33.27
37.33
39.41
39.93
39.61
39.08
38.62
38.11
37.22
35.69
33.52
31.00
28.50
26.35
24.68
23.40
22.26
21.02
19.47
17.50
15.09
12.36
9.54
7.07
5.60
5.89
8.58
13.97
21.79
31.19
40.94
49.76
56.70
61.30
63.59
63.88
62.39
59.09
53.77
46.20
36.54
25.44
14.04
3.62
-4.73
-10.49
-13.76
-15.18
-15.61
-15.82
-16.33
-17.36
-18.89
-20.87
-23.24
-26.00
-29.09
-32.39
-35.64
-38.53
-40.87
-42.72
-44.38
-46.27
-48.72
-51.86
-55.48
-59.19
-62.43
-64.62
-65.13
-63.39
-58.98
-51.84
-42.36
-31.41
-20.14
-9.67
-0.87
5.86
10.44
13.06
14.04
13.76
12.67
11.31
10.22
9.85
10.44
11.91
14.03
16.49
19.02
21.43
23.55
25.13
25.89
25.58
24.20
22.00
19.44
16.94
14.75
12.86
11.02
8.97
6.50
3.57
0.24
-3.28
-6.71
-9.59
-11.28
-11.17
-8.82
-4.21
2.15
9.33
16.26
22.00
26.00
28.11
28.50
27.51
25.50
22.78
19.67
16.50
13.64
11.40
9.98
9.42
9.57
10.13
10.75
11.15
11.14
10.66
9.77
8.55
7.07
5.38
3.50
1.45
-0.68
-2.79
-4.77
-6.60
-8.36
-10.30
-12.68
-15.72
-19.41
-23.49
-27.36
-30.22
-31.20
-29.64
-25.35
-18.67
-10.48
-1.91
5.94
12.28
16.71
19.20
19.89
19.00
16.80
13.69
10.22
7.07
4.83
3.78
3.83
4.61
5.66
6.69
7.63
8.60
9.66
10.72
11.51
11.65
10.82
8.96
6.26
3.10
-0.08
-2.90
-5.14
-6.83
-8.19
-9.57
-11.32
-13.64
-16.43
-19.21
-21.18
-21.43
-19.16
-14.02
-6.23
3.34
13.34
22.33
29.15
33.25
34.78
34.41
32.96
31.17
29.53
28.36
27.92
28.52
30.40
33.60
37.87
42.72
47.68
52.38
56.46
59.43
60.44
58.54
52.98
43.70
31.60
18.24
5.35
-5.77
-14.59
-21.31
-26.43
-30.44
-33.64
-36.23
-38.44
-40.63
-43.03
-45.60
-47.88
-49.04
-48.18
-44.76
-38.86
-31.30
-23.38
-16.39
-11.24
-8.21
-6.96
-6.80
-6.92
-6.63
-5.45
-3.06
0.61
5.44
11.16
17.32
23.45
29.04
33.50
36.18
36.36
33.46
27.31
18.34
7.58
-3.53
-13.58
-21.58
-27.23
-30.79
-32.85
-34.10
-35.06
-36.13
-37.55
-39.42
-41.67
-43.91
-45.44
-45.40
-43.04
-38.08
-30.92
-22.68
-14.90
-9.04
-6.06
-6.16
-8.79
-12.88
-17.12
-20.26
-21.36
-19.94
-16.05
-10.32
-3.78
2.48
7.60
11.28
13.74
15.53
17.18
19.00
20.99
23.06
25.13
27.27
29.55
31.92
34.15
35.85
36.62
36.15
34.21
30.69
25.54
18.88
11.07
2.90
-4.54
-10.10
-12.84
-12.32
-8.77
-3.02
3.75
10.26
15.52
18.99
20.57
20.58
19.50
17.88
16.14
14.61
13.47
12.79
12.49
12.42
12.30
11.83
10.79
9.08
6.81
4.13
1.27
-1.68
-4.71
-7.82
-11.07
-14.39
-17.62
-20.56
-23.04
-25.04
-26.69
-28.18
-29.72
-31.42
-33.22
-34.87
-35.92
-35.73
-33.69
-29.41
-22.95
-14.86
-6.11
2.24
9.29
14.54
17.91
19.57
19.75
18.69
16.62
13.90
11.07
8.79
7.68
8.06
9.84
12.53
15.39
17.72
19.07
19.34
18.80
17.84
16.75
15.61
14.31
12.66
10.58
8.18
5.75
3.55
1.70
0.07
-1.61
-3.67
-6.27
-9.39
-12.80
-16.10
-18.80
-20.41
-20.46
-18.63
-14.85
-9.34
-2.64
4.48
11.14
16.54
20.13
21.70
21.40
19.66
17.03
14.09
11.32
9.14
7.86
7.61
8.35
9.80
11.45
12.77
13.31
12.94
11.82
10.32
8.82
7.48
6.25
4.90
3.25
1.26
-0.93
-3.05
-4.93
-6.55
-8.07
-9.70
-11.59
-13.76
-16.07
-18.35
-20.36
-21.86
-22.48
-21.80
-19.41
-15.09
-9.04
-1.94
5.23
11.41
15.84
18.18
18.62
17.62
15.79
13.66
11.67
10.11
9.17
8.93
9.38
10.42
11.78
13.12
14.17
14.75
14.91
14.89
14.87
14.73
13.96
11.82
7.69
1.47
-6.20
-14.28
-21.82
-28.31
-33.77
-38.29
-41.60
-42.91
-41.23
-36.01
-27.56
-17.02
-5.94
4.42
13.40
20.89
26.99
31.71
34.86
36.26
35.84
33.87
30.77
27.01
22.97
18.93
15.11
11.73
8.96
6.90
5.54
4.74
4.30
4.00
3.64
3.05
2.14
0.85
-0.82
-2.80
-4.96
-7.11
-9.02
-10.52
-11.56
-12.29
-13.02
-14.12
-15.89
-18.42
-21.48
-24.56
-26.98
-28.00
-27.10
-24.12
-19.27
-13.13
-6.49
-0.15
5.24
9.27
11.78
12.83
12.59
11.30
9.31
7.04
4.99
3.61
3.22
3.85
5.30
7.11
8.80
10.00
10.58
10.57
10.10
9.24
8.00
6.27
3.92
0.95
-2.47
-5.96
-9.06
-11.43
-12.99
-13.99
-14.97
-16.47
-18.82
-22.02
-25.65
-29.08
-31.52
-32.29
-30.94
-27.34
-21.74
-14.76
-7.23
-0.05
6.01
10.40
12.92
13.67
12.98
11.34
9.25
7.16
5.45
4.34
3.90
4.08
4.73
5.63
6.58
7.39
7.98
8.31
8.37
8.06
7.25
5.73
3.39
0.25
-3.45
-7.33
-10.95
-13.98
-16.32
-18.08
-19.55
-21.06
-22.89
-25.23
-28.06
-31.14
-34.00
-36.01
-36.46
-34.85
-30.95
-24.94
-17.43
-9.29
-1.42
5.46
10.86
14.58
16.63
17.13
16.36
14.68
12.60
10.70
9.49
9.29
10.13
11.71
13.54
15.17
16.30
16.93
17.22
17.41
17.63
17.86
17.96
17.78
17.22
16.25
14.85
13.03
10.76
8.14
5.35
2.66
0.34
-1.49
-2.99
-4.44
-6.14
-8.10
-9.94
-10.95
-10.35
-7.63
-2.71
3.88
11.23
18.26
23.97
27.62
28.79
27.43
23.84
18.65
12.74
7.05
2.39
-0.85
-2.64
-3.30
-3.31
-3.04
-2.77
-2.63
-2.74
-3.25
-4.30
-5.89
-7.94
-10.22
-12.56
-14.89
-17.30
-19.87
-22.57
-25.21
-27.46
-29.10
-30.10
-30.69
-31.23
-32.04
-33.21
-34.53
-35.48
-35.42
-33.75
-30.10
-24.45
-17.23
-9.22
-1.43
5.11
9.61
11.65
11.22
8.75
4.89
0.30
-4.39
-8.76
-12.55
-15.65
-17.96
-19.38
-19.71
-18.67
-16.07
-11.97
-6.76
-1.21
3.76
7.36
9.17
9.23
7.85
5.45
2.28
-1.59
-6.16
-11.36
-16.92
-22.42
-27.44
-31.58
-34.54
-36.03
-35.77
-33.48
-28.94
-22.11
-13.14
-2.49
9.09
20.57
30.87
39.09
44.73
47.86
48.98
48.80
48.01
47.09
46.26
45.52
44.76
43.73
42.15
39.70
36.11
31.22
25.03
17.82
10.04
2.29
-4.85
-10.93
-15.76
-19.41
-22.20
-24.55
-26.92
-29.69
-33.11
-37.17
-41.54
-45.55
-48.27
-48.76
-46.41
-41.20
-33.72
-24.95
-16.07
-8.09
-1.79
2.35
4.18
3.86
1.84
-1.16
-4.36
-7.02
-8.63
-8.87
-7.62
-4.90
-0.90
4.03
9.31
14.29
18.35
21.09
22.46
22.68
22.12
21.05
19.56
17.59
15.01
11.77
7.95
3.71
-0.78
-5.36
-9.83
-13.80
-16.69
-17.73
-16.25
-12.00
-5.34
2.80
11.15
18.52
24.15
27.80
29.63
29.95
29.06
27.17
24.52
21.46
18.43
15.88
14.13
13.34
13.45
14.29
15.55
16.87
17.83
18.04
17.19
15.16
12.08
8.26
4.14
0.17
-3.28
-6.00
-8.01
-9.54
-11.03
-12.87
-15.31
-18.30
-21.40
-23.97
-25.29
-24.80
-22.26
-17.91
-12.45
-6.90
-2.34
0.46
1.23
0.30
-1.61
-3.72
-5.48
-6.67
-7.30
-7.46
-7.11
-6.11
-4.37
-1.90
1.02
4.02
6.74
8.97
10.69
11.98
12.90
13.44
13.50
12.94
11.74
10.00
7.99
6.05
4.44
3.24
2.29
1.24
-0.25
-2.34
-4.85
-7.26
-8.83
-8.82
-6.78
-2.71
2.90
9.16
15.06
19.79
22.88
24.27
24.22
23.10
21.21
18.77
15.97
13.01
10.24
8.05
6.78
6.57
7.28
8.55
9.88
10.87
11.29
11.09
10.41
9.37
8.02
6.35
4.31
1.92
-0.69
-3.35
-5.91
-8.40
-10.94
-13.68
-16.58
-19.31
-21.24
-21.68
-20.13
-16.46
-10.99
-4.44
2.34
8.51
13.49
16.98
18.92
19.40
18.54
16.43
13.23
9.27
5.13
1.53
-0.90
-1.79
-1.25
0.24
2.02
3.52
4.41
4.61
4.18
3.23
1.86
0.17
-1.71
-3.64
-5.55
-7.46
-9.55
-12.01
-15.04
-18.62
-22.45
-25.90
-28.10
-28.20
-25.68
-20.56
-13.50
-5.59
1.93
8.10
12.39
14.75
15.43
14.80
13.21
10.99
8.47
5.93
3.68
1.90
0.66
-0.06
-0.33
-0.22
0.18
0.74
1.23
1.36
0.85
-0.42
-2.45
-5.03
-7.82
-10.52
-12.90
-14.97
-16.92
-19.05
-21.61
-24.71
-28.15
-31.45
-33.95
-34.96
-33.95
-30.73
-25.57
-19.22
-12.76
-7.34
-3.75
-2.11
-1.67
-1.19
0.57
4.24
9.55
15.51
20.93
25.05
27.74
29.48
30.93
32.57
34.51
36.53
38.27
39.41
39.74
39.10
37.45
34.76
31.12
26.68
21.59
16.06
10.31
4.63
-0.76
-5.69
-10.15
-14.20
-17.78
-20.53
-21.85
-21.03
-17.69
-12.04
-4.97
2.25
8.41
12.77
15.20
16.05
15.80
14.82
13.30
11.32
9.06
6.83
5.10
4.28
4.58
5.92
8.00
10.35
12.49
14.04
14.76
14.59
13.59
11.96
9.94
7.79
5.76
3.99
2.54
1.33
0.12
-1.42
-3.64
-6.78
-10.69
-14.80
-18.11
-19.44
-17.87
-13.14
-5.83
2.64
10.42
15.73
17.46
15.41
10.22
3.03
-4.98
-12.85
-19.98
-25.95
-30.40
-33.02
-33.68
-32.57
-30.23
-27.31
-24.27
-21.19
-17.87
-14.11
-10.04
-6.24
-3.51
-2.56
-3.66
-6.56
-10.58
-14.86
-18.61
-21.28
-22.65
-22.82
-22.18
-21.36
-21.07
-21.84
-23.85
-26.78
-29.85
-32.01
-32.25
-29.95
-25.06
-18.19
-10.35
-2.72
3.73
8.43
11.18
12.04
11.22
9.04
5.95
2.58
-0.38
-2.32
-2.88
-2.11
-0.31
2.04
4.53
6.88
8.97
10.74
12.14
13.03
13.30
12.84
11.66
9.84
7.57
5.00
2.29
-0.46
-3.21
-5.99
-8.85
-11.88
-15.16
-18.69
-22.37
-25.92
-28.84
-30.47
-30.18
-27.55
-22.61
-15.85
-8.09
-0.32
6.57
11.97
15.51
17.07
16.73
14.74
11.52
7.66
3.84
0.71
-1.29
-2.01
-1.62
-0.55
0.67
1.64
2.13
2.17
1.95
1.65
1.35
1.01
0.50
-0.26
-1.20
-2.18
-3.05
-3.75
-4.40
-5.17
-6.27
-7.79
-9.75
-12.02
-14.33
-16.23
-17.11
-16.31
-13.30
-7.94
-0.58
7.99
16.69
24.49
30.56
34.47
36.12
35.69
33.58
30.33
26.54
22.85
19.80
17.69
16.61
16.38
16.72
17.30
17.90
18.39
18.70
18.81
18.62
17.97
16.74
14.84
12.37
9.55
6.66
3.88
1.25
-1.38
-4.22
-7.45
-11.11
-15.00
-18.70
-21.61
-23.10
-22.57
-19.69
-14.49
-7.45
0.57
8.52
15.39
20.46
23.36
24.08
22.90
20.26
16.70
12.86
9.37
6.82
5.55
5.62
6.76
8.48
10.22
11.59
12.39
12.66
12.50
11.96
11.04
9.61
7.56
4.90
1.78
-1.50
-4.67
-7.52
-10.02
-12.30
-14.55
-17.02
-19.86
-23.00
-26.09
-28.47
-29.30
-27.79
-23.47
-16.51
-7.69
1.76
10.53
17.63
22.63
25.64
27.08
27.37
26.85
25.77
24.43
23.24
22.70
23.19
24.87
27.55
30.87
34.42
38.02
41.64
45.29
48.89
52.20
54.90
56.77
57.78
58.06
57.71
56.54
54.04
49.53
42.42
32.56
20.30
6.46
-7.99
-22.14
-35.23
-46.51
-55.22
-60.50
-61.69
-58.59
-51.66
-42.10
-31.55
-21.68
-13.82
-8.70
-6.50
-7.02
-9.84
-14.45
-20.21
-26.36
-32.07
-36.56
-39.27
-40.00
-38.93
-36.50
-33.30
-29.88
-26.71
-24.02
-21.88
-20.25
-19.01
-18.06
-17.31
-16.72
-16.24
-15.77
-15.21
-14.47
-13.59
-12.77
-12.29
-12.40
-13.14
-14.23
-15.05
-14.80
-12.78
-8.60
-2.37
5.36
13.66
21.54
28.10
32.69
35.00
35.07
33.17
29.75
25.34
20.48
15.64
11.30
7.88
5.75
5.10
5.82
7.51
9.59
11.46
12.79
13.53
13.86
14.03
14.11
13.98
13.46
12.41
10.99
9.54
8.43
7.81
7.60
7.59
7.64
7.81
8.32
9.37
10.86
12.42
13.54
13.82
13.17
11.78
9.91
7.79
5.51
3.17
0.86
-1.29
-3.24
-5.06
-6.92
-8.98
-11.18
-13.24
-14.81
-15.63
-15.63
-14.98
-14.02
-13.11
-12.63
-12.88
-14.12
-16.48
-19.90
-24.08
-28.57
-32.90
-36.70
-39.78
-42.12
-43.86
-45.19
-46.32
-47.48
-48.88
-50.63
-52.67
-54.67
-56.00
-55.86
-53.39
-48.06
-39.83
-29.36
-17.75
-6.35
3.61
11.37
16.63
19.57
20.60
20.19
18.71
16.56
14.19
12.14
11.02
11.29
13.07
16.02
19.49
22.68
25.02
26.22
26.35
25.61
24.21
22.19
19.53
16.25
12.54
8.76
5.29
2.41
0.10
-1.92
-4.08
-6.79
-10.25
-14.35
-18.57
-22.09
-23.98
-23.43
-20.07
-14.08
-6.19
2.55
11.00
18.19
23.48
26.54
27.36
26.16
23.39
19.69
15.74
12.22
9.60
8.09
7.67
8.18
9.36
10.97
12.75
14.44
15.77
16.51
16.53
15.76
14.26
12.16
9.66
7.02
4.46
2.17
0.22
-1.47
-3.10
-4.93
-7.16
-9.75
-12.36
-14.36
-14.96
-13.50
-9.65
-3.59
3.99
12.14
19.85
26.33
31.10
33.92
34.78
33.78
31.12
27.26
22.84
18.65
15.44
13.67
13.43
14.38
16.01
17.77
19.25
20.20
20.51
20.15
19.09
17.43
15.34
13.11
11.08
9.49
8.40
7.66
7.00
6.19
5.16
4.03
3.14
2.92
3.79
6.09
9.92
15.10
21.10
27.14
32.36
36.06
37.83
37.64
35.70
32.35
27.91
22.73
17.25
11.97
7.40
3.90
1.53
0.04
-1.11
-2.51
-4.73
-8.29
-13.72
-21.52
-32.04
-45.25
-60.51
-76.54
-91.68
-104.28
-113.17
-117.94
-118.91
-116.91
-112.90
-107.78
-102.14
-96.29
-90.32
-84.07
-77.20
-69.23
-59.78
-48.73
-36.43
-23.65
-11.51
-1.11
6.76
11.85
14.47
15.30
15.13
14.62
14.11
13.69
13.36
13.12
13.08
13.33
13.80
14.22
14.10
12.94
10.45
6.66
2.01
-2.87
-7.33
-10.95
-13.62
-15.57
-17.22
-19.06
-21.44
-24.46
-27.95
-31.40
-34.08
-35.18
-33.95
-29.89
-22.86
-13.27
-2.00
9.67
20.43
29.20
35.40
39.03
40.44
40.14
38.55
35.98
32.71
29.14
25.78
23.18
21.73
21.47
22.08
23.06
23.86
24.06
23.45
21.98
19.65
16.55
12.79
8.55
4.09
-0.28
-4.31
-7.84
-10.92
-13.73
-16.61
-19.82
-23.44
-27.23
-30.59
-32.61
-32.33
-29.02
-22.56
-13.50
-2.99
7.53
16.74
23.78
28.33
30.54
30.78
29.46
27.02
23.96
20.92
18.64
17.73
18.43
20.50
23.22
25.72
27.30
27.60
26.71
24.97
22.79
20.41
17.87
15.03
11.75
7.99
3.94
-0.07
-3.73
-6.90
-9.71
-12.56
-15.89
-19.95
-24.56
-29.10
-32.63
-34.15
-32.94
-28.75
-21.86
-12.98
-3.06
6.96
16.30
24.43
31.14
36.50
40.76
44.25
47.19
49.68
51.67
53.07
53.80
53.93
53.55
52.78
51.65
50.11
48.03
45.27
41.69
37.21
31.81
25.60
18.78
11.72
4.78
-1.65
-7.29
-12.01
-15.83
-18.87
-21.39
-23.66
-25.84
-27.89
-29.41
-29.74
-28.14
-24.09
-17.53
-9.01
0.44
9.61
17.38
22.99
26.15
26.95
25.75
23.03
19.35
15.26
11.32
8.01
5.64
4.26
3.66
3.47
3.30
2.95
2.34
1.46
0.26
-1.43
-3.81
-7.04
-11.12
-15.93
-21.25
-26.92
-32.87
-39.10
-45.60
-52.16
-58.38
-63.52
-66.66
-66.81
-63.28
-55.92
-45.22
-32.30
-18.59
-5.51
5.87
14.84
21.14
24.78
25.99
25.13
22.69
19.28
15.53
12.03
9.24
7.41
6.54
6.40
6.58
6.57
5.95
4.47
2.20
-0.60
-3.55
-6.36
-8.93
-11.34
-13.79
-16.45
-19.48
-22.90
-26.61
-30.36
-33.65
-35.80
-36.05
-33.79
-28.87
-21.69
-13.19
-4.57
3.18
9.47
14.23
17.67
19.99
21.28
21.50
20.76
19.40
18.01
17.22
17.33
18.18
19.12
19.26
17.74
13.96
7.73
-0.76
-10.79
-21.08
-29.91
-35.52
-36.74
-33.42
-26.65
-18.31
-10.46
-4.51
-0.89
0.94
2.10
3.85
7.22
12.89
21.17
31.95
44.69
58.44
71.95
83.99
93.62
100.39
104.39
106.14
106.29
105.43
103.95
102.04
99.79
97.20
94.27
90.97
87.22
82.94
78.02
72.40
66.06
59.04
51.44
43.35
34.93
26.34
17.75
9.33
1.15
-6.75
-14.32
-21.48
-27.99
-33.43
-37.30
-39.11
-38.51
-35.49
-30.46
-24.27
-18.03
-12.82
-9.45
-8.26
-9.11
-11.53
-14.88
-18.55
-22.06
-25.06
-27.28
-28.57
-28.87
-28.28
-27.09
-25.71
-24.61
-24.10
-24.34
-25.24
-26.61
-28.24
-30.12
-32.36
-35.14
-38.58
-42.54
-46.60
-50.13
-52.51
-53.28
-52.31
-49.73
-45.83
-40.90
-35.21
-29.04
-22.75
-16.88
-12.03
-8.67
-7.00
-6.89
-7.93
-9.69
-11.79
-13.94
-15.86
-17.28
-17.84
-17.32
-15.76
-13.54
-11.28
-9.62
-8.94
-9.21
-10.07
-10.99
-11.56
-11.70
-11.71
-12.11
-13.39
-15.74
-18.93
-22.36
-25.14
-26.38
-25.35
-21.68
-15.39
-7.03
2.42
11.66
19.40
24.64
26.92
26.36
23.50
19.05
13.67
7.93
2.33
-2.68
-6.64
-9.15
-10.03
-9.33
-7.37
-4.59
-1.43
1.75
4.71
7.32
9.52
11.21
12.31
12.72
12.36
11.14
8.99
5.85
1.77
-3.04
-8.23
-13.25
-17.51
-20.55
-22.09
-22.20
-21.27
-19.94
-18.97
-19.02
-20.49
-23.43
-27.54
-32.25
-36.91
-40.92
-43.81
-45.30
-45.28
-43.84
-41.31
-38.14
-34.73
-31.28
-27.72
-23.82
-19.47
-14.88
-10.59
-7.26
-5.37
-5.02
-5.97
-7.83
-10.28
-13.12
-16.17
-19.12
-21.43
-22.48
-21.75
-19.09
-14.72
-9.20
-3.26
2.44
7.34
11.07
13.38
14.13
13.30
11.01
7.59
3.51
-0.71
-4.72
-8.49
-12.33
-16.72
-21.96
-27.83
-33.51
-37.75
-39.35
-37.71
-33.06
-26.45
-19.40
-13.41
-9.61
-8.64
-10.57
-15.02
-21.18
-27.85
-33.65
-37.22
-37.60
-34.48
-28.30
-20.10
-11.17
-2.74
4.33
9.59
12.90
14.40
14.33
13.06
11.02
8.77
6.97
6.21
6.87
8.90
11.88
15.00
17.41
18.50
18.03
16.18
13.37
10.07
6.68
3.45
0.55
-1.91
-3.89
-5.48
-6.87
-8.19
-9.28
-9.57
-8.07
-3.68
4.32
15.87
29.99
45.04
59.25
71.31
80.60
87.14
91.16
92.74
91.63
87.52
80.44
71.08
60.71
50.82
42.60
36.58
32.65
30.27
28.76
27.47
25.71
22.71
17.74
10.35
0.71
-10.25
-21.02
-30.07
-36.38
-39.78
-40.92
-40.92
-40.92
-41.70
-43.44
-45.77
-47.87
-48.75
-47.51
-43.53
-36.74
-27.64
-17.20
-6.67
2.75
10.22
15.33
18.20
19.25
19.09
18.35
17.49
16.76
16.18
15.58
14.73
13.44
11.60
9.21
6.40
3.37
0.31
-2.66
-5.53
-8.45
-11.57
-15.02
-18.69
-22.33
-25.57
-28.25
-30.52
-32.84
-35.81
-39.90
-45.16
-51.25
-57.47
-62.77
-65.88
-65.32
-59.76
-48.53
-32.04
-12.00
9.00
28.22
43.61
54.31
60.50
62.95
62.47
59.68
55.10
49.51
43.99
39.75
37.62
37.71
39.29
41.15
42.10
41.45
39.20
35.84
31.93
27.79
23.27
18.03
11.78
4.56
-3.16
-10.75
-17.70
-23.77
-29.04
-33.82
-38.48
-43.44
-49.03
-55.44
-62.51
-69.58
-75.50
-78.73
-77.84
-71.92
-60.91
-45.72
-27.99
-9.77
7.01
20.93
31.34
38.47
43.14
46.45
49.34
52.29
55.27
57.93
59.78
60.31
59.13
55.91
50.47
42.95
33.92
24.37
15.29
7.30
0.19
-6.90
-15.01
-24.67
-35.41
-45.92
-54.69
-60.81
-64.46
-66.80
-69.36
-73.31
-78.94
-85.62
-92.11
-96.89
-98.62
-96.25
-89.22
-77.68
-62.59
-45.62
-28.85
-14.24
-3.11
4.12
7.80
8.62
7.35
4.60
0.93
-2.91
-5.90
-6.87
-4.90
0.33
8.39
18.45
29.46
40.50
50.97
60.76
69.98
78.68
86.73
93.93
100.29
105.76
110.01
112.26
111.42
106.39
96.49
81.83
63.47
43.63
24.45
7.29
-7.45
-19.99
-30.72
-39.92
-47.81
-54.69
-59.82
-63.49
-67.10
-72.52
-80.77
-91.42
-102.85
-113.00
-119.99
-119.93
-111.06
-94.58
-73.64
-51.18
-28.49
-5.10
20.46
50.35
90.38
143.13
206.17
273.29
337.86
395.13
442.57
478.83
503.70
522.55
538.09
548.76
550.26
539.38
516.20
483.71
445.81
371.70
252.49
104.49
-40.98
-160.31
-246.90
-304.68
-338.22
-354.91
-357.44
-341.35
-305.18
-252.81
-191.87
-131.16
-80.78
-50.22
-45.60
-64.88
-94.39
-119.54
-131.66
-130.40
-121.34
-111.69
-105.25
-102.73
-102.28
-99.54
-93.11
-85.64
-80.75
-81.25
-86.92
-94.75
-100.72
-101.24
-93.57
-78.06
-57.85
-37.29
-20.12
-8.00
-0.29
4.91
9.84
16.34
24.60
33.24
40.26
44.00
44.14
42.11
40.57
42.91
52.29
70.83
98.95
134.97
175.11
214.35
247.72
271.61
284.65
287.57
282.40
271.38
256.25
238.14
218.01
196.99
176.38
157.16
139.55
122.90
106.08
88.16
68.91
48.90
29.09
10.36
-6.78
-22.29
-36.41
-49.53
-62.05
-74.38
-86.90
-99.86
-113.22
-126.69
-139.69
-151.60
-161.99
-170.68
-177.79
-183.60
-188.41
-192.42
-195.70
-198.23
-199.92
-200.66
-200.22
-198.38
-194.96
-189.96
-183.75
-177.00
-170.49
-164.73
-159.63
-154.47
-148.23
-140.26
-130.73
-120.68
-111.42
-103.78
-97.53
-91.57
-84.65
-76.09
-66.08
-55.43
-45.01
-35.49
-27.68
-22.90
-22.97
-29.27
-41.63
-57.66
-73.53
-86.01
-94.45
-101.55
-112.03
-129.95
-156.31
-188.27
-220.57
-247.88
-266.94
-277.11
-279.49
-275.36
-265.25
-249.16
-227.48
-201.93
-175.52
-151.70
-133.15
-120.88
-114.05
-110.69
-108.58
-105.94
-101.90
-96.44
-90.09
-83.54
-77.03
-69.93
-60.69
-47.28
-28.24
-3.65
24.49
52.75
77.51
96.29
108.41
114.92
117.75
118.91
119.97
122.04
125.91
132.06
140.55
150.83
161.68
171.63
179.45
184.52
187.03
187.77
187.73
187.62
187.51
186.66
183.81
177.54
167.02
152.49
135.68
119.57
107.60
102.48
105.18
114.39
126.82
138.35
145.47
146.68
143.15
138.80
139.32
150.42
175.62
214.19
260.32
304.26
334.94
343.37
325.33
282.38
221.15
151.44
83.91
27.83
-10.58
-29.22
-30.31
-19.55
-4.28
8.60
14.38
11.22
-0.59
-19.84
-45.21
-75.15
-107.28
-138.07
-163.67
-181.39
-190.94
-194.07
-193.50
-191.34
-188.13
-183.21
-175.90
-167.07
-159.66
-157.51
-162.97
-175.31
-190.76
-204.47
-213.07
-216.00
-215.43
-214.73
-216.43
-220.44
-224.69
-226.80
-226.09
-223.92
-221.89
-220.85
-220.13
-218.46
-213.20
-202.80
-187.77
-170.85
-155.09
-140.46
-124.78
-105.65
-84.24
-62.33
-43.45
-31.30
-28.59
-34.86
-43.96
-48.02
-41.55
-26.11
-3.78
22.19
49.24
75.12
99.09
125.00
156.98
196.13
236.38
273.94
306.50
334.41
358.58
361.99
333.43
276.89
230.43
203.20
196.93
202.99
218.42
239.33
260.23
277.87
289.72
293.51
284.47
263.94
236.02
206.12
177.56
152.19
133.26
123.15
121.73
123.42
124.66
122.91
117.49
108.04
94.97
80.65
67.20
55.10
41.45
24.85
4.89
-17.51
-41.35
-65.54
-88.32
-108.41
-125.46
-140.80
-155.00
-168.12
-179.68
-189.48
-197.59
-204.12
-209.27
-213.24
-216.47
-218.90
-220.48
-221.28
-221.53
-221.22
-219.67
-215.56
-207.60
-195.34
-179.85
-163.60
-149.58
-140.12
-135.98
-136.33
-139.44
-143.60
-147.74
-151.21
-153.28
-152.74
-148.07
-138.21
-123.27
-104.68
-84.52
-64.47
-45.10
-25.85
-5.75
15.71
38.23
60.91
82.87
103.91
124.63
146.01
169.03
194.22
221.62
250.71
280.53
309.50
335.47
355.89
368.20
370.47
362.03
343.72
317.92
288.20
258.56
232.77
213.62
202.50
199.30
202.56
209.89
218.43
225.44
228.74
227.05
220.01
207.96
191.53
171.25
147.30
119.57
87.90
52.35
13.45
-27.72
-69.57
-110.16
-147.42
-179.38
-204.54
-222.13
-232.25
-235.90
-234.74
-230.71
-225.74
-221.32
-218.34
-216.95
-216.65
-216.41
-215.08
-211.62
-205.26
-195.73
-183.16
-168.05
-151.18
-133.42
-115.56
-98.28
-81.91
-66.46
-51.87
-38.12
-25.42
-14.14
-4.79
2.24
6.61
8.50
8.60
7.95
7.69
8.93
12.61
19.21
28.72
40.11
52.03
62.97
71.36
75.96
76.20
72.45
65.69
57.28
47.61
37.03
25.71
13.68
0.81
-13.15
-28.57
-45.94
-65.02
-85.11
-103.28
-115.18
-117.03
-107.62
-89.07
-65.88
-42.99
-17.23
11.96
43.79
76.69
108.49
135.84
154.61
163.47
161.81
150.63
131.47
107.23
81.24
56.29
34.95
19.79
12.23
11.75
16.24
21.37
22.77
17.02
2.23
-21.39
-51.34
-83.23
-111.81
-132.06
-141.11
-138.27
-124.75
-102.68
-74.22
-41.34
-6.30
27.69
56.74
77.09
86.89
87.05
80.89
72.54
65.17
60.04
56.77
54.46
52.63
51.52
51.52
52.58
54.12
54.97
54.14
51.23
46.40
40.32
33.76
27.38
21.56
16.40
11.72
7.29
2.94
-1.34
-5.36
-8.86
-11.60
-13.49
-14.56
-15.01
-15.12
-15.15
-15.31
-15.67
-16.21
-16.90
-17.77
-18.86
-20.23
-21.85
-23.56
-25.03
-25.83
-25.61
-24.15
-21.43
-17.69
-13.35
-8.92
-4.86
-1.54
0.84
2.23
2.71
2.44
1.68
0.71
-0.15
-0.58
-0.31
0.94
3.34
6.96
11.71
17.36
23.52
29.71
35.48
40.54
44.74
48.19
51.14
53.93
56.81
59.85
62.88
65.59
67.52
68.21
67.30
64.64
60.38
54.91
48.72
42.05
34.63
25.52
13.38
-3.20
-25.42
-54.19
-90.38
-134.34
-184.88
-237.96
-286.67
-323.09
-341.20
-339.37
-320.50
-289.88
-252.51
-211.63
-169.29
-128.19
-92.82
-68.50
-58.69
-62.52
-74.79
-88.85
-100.37
-109.33
-118.58
-130.18
-142.11
-148.27
-141.36
-117.25
-77.42
-28.32
21.81
66.66
103.65
133.36
157.12
175.02
185.43
186.38
177.66
161.69
142.96
126.21
114.50
107.86
103.40
96.62
83.27
61.34
32.27
0.61
-27.86
-48.95
-61.99
-70.04
-77.84
-88.75
-102.61
-115.54
-121.80
-116.40
-96.86
-63.60
-19.29
31.90
84.51
131.85
166.91
184.40
183.15
167.22
144.52
123.20
107.90
97.77
87.75
72.02
47.70
16.86
-14.61
-40.11
-55.57
-60.89
-59.23
-54.56
-49.10
-42.47
-32.46
-17.16
3.09
24.97
43.10
52.06
48.49
32.33
6.57
-24.26
-55.71
-84.46
-108.38
-125.78
-134.64
-132.67
-118.08
-90.69
-52.61
-8.05
37.70
79.68
114.26
139.65
155.50
162.46
161.59
154.06
141.05
123.89
104.18
83.66
63.83
45.39
27.98
10.39
-8.69
-29.88
-52.78
-76.36
-99.78
-123.00
-146.71
-171.57
-197.32
-222.39
-244.29
-260.68
-270.17
-272.60
-268.64
-259.08
-244.51
-225.43
-202.53
-176.95
-150.14
-123.52
-98.16
-74.64
-53.18
-33.80
-16.45
-1.07
12.47
24.39
35.01
44.72
53.94
62.97
71.93
80.74
89.09
96.54
102.63
106.99
109.52
110.36
109.94
108.77
107.28
105.64
103.72
101.15
97.55
92.81
87.28
81.85
77.75
76.20
77.98
83.18
90.98
99.90
108.15
114.07
116.56
115.25
110.50
103.15
94.29
85.02
76.20
68.33
61.45
55.28
49.39
43.60
38.26
34.35
33.37
37.06
46.89
63.47
86.12
112.70
139.83
163.50
179.92
186.33
181.40
165.36
139.73
107.00
70.28
33.02
-1.43
-30.43
-52.57
-67.99
-78.14
-85.05
-90.56
-95.73
-100.81
-105.63
-110.00
-114.01
-118.04
-122.42
-127.20
-132.00
-136.16
-138.90
-139.63
-138.07
-134.39
-129.19
-123.33
-117.69
-112.85
-108.83
-105.19
-101.27
-96.64
-91.39
-86.17
-81.88
-79.21
-78.20
-78.03
-77.15
-73.78
-66.52
-54.81
-39.14
-20.86
-1.71
16.80
33.71
48.73
61.95
73.48
83.17
90.58
95.29
97.15
96.56
94.34
91.41
88.48
85.68
82.68
78.85
73.66
66.98
59.06
50.36
41.34
32.23
23.16
14.32
6.14
-0.74
-5.75
-8.61
-9.51
-8.91
-7.14
-4.07
0.98
9.09
21.24
37.74
57.84
79.63
100.47
117.63
129.26
134.95
135.80
133.63
129.98
125.21
118.46
108.47
94.70
78.15
61.31
47.13
37.98
35.20
39.32
50.50
68.41
91.26
114.73
132.07
135.96
121.80
90.35
48.15
5.04
-29.98
-52.43
-63.42
-67.77
-70.64
-74.71
-79.42
-82.45
-81.83
-77.30
-70.07
-61.46
-51.61
-39.25
-22.67
-1.24
23.57
48.28
68.50
80.59
82.95
76.48
64.07
49.33
35.45
24.30
16.25
10.56
6.01
1.55
-3.38
-8.91
-14.93
-21.47
-28.79
-37.26
-47.15
-58.25
-69.85
-80.91
-90.32
-97.27
-101.33
-102.33
-100.12
-94.57
-85.59
-73.41
-58.80
-43.03
-27.65
-14.04
-3.17
4.54
9.09
10.76
10.00
7.47
4.10
1.01
-0.74
-0.41
2.06
6.06
10.47
14.03
15.81
15.46
13.28
10.00
6.39
2.95
-0.26
-3.49
-6.96
-10.48
-13.37
-14.61
-13.24
-8.77
-1.46
7.80
17.75
27.25
35.46
42.02
46.89
50.20
52.12
52.72
51.97
49.77
46.05
41.01
35.25
29.78
25.88
24.64
26.52
31.16
37.48
44.25
50.64
56.60
62.85
70.35
79.79
91.15
103.65
116.00
126.68
134.27
137.72
136.53
131.09
122.70
113.39
105.36
100.24
98.52
99.41
101.25
102.18
100.76
96.20
88.19
76.53
60.96
41.32
17.76
-9.07
-37.97
-67.16
-94.70
-118.98
-139.03
-154.66
-166.22
-174.30
-179.51
-182.34
-183.10
-182.24
-180.51
-178.95
-178.44
-179.16
-180.76
-182.63
-184.31
-185.40
-185.87
-186.31
-187.53
-189.96
-192.71
-194.23
-193.02
-188.09
-178.60
-164.48
-147.23
-129.69
-114.98
-104.11
-96.72
-91.55
-86.97
-80.33
-69.37
-54.10
-36.85
-20.92
-6.86
6.11
19.43
34.49
54.03
80.84
115.55
156.55
200.86
247.17
292.69
332.33
351.05
336.02
288.71
225.11
168.08
121.57
84.59
53.45
24.63
-5.00
-35.35
-63.66
-88.42
-109.20
-125.87
-135.74
-136.83
-128.97
-113.53
-91.87
-66.42
-44.35
-34.62
-43.79
-71.24
-111.28
-155.35
-194.11
-218.92
-211.44
-165.84
-95.52
-24.99
27.94
58.43
71.45
75.92
80.40
89.53
102.08
114.48
124.37
132.49
140.73
150.28
160.90
171.28
177.71
176.36
165.73
148.24
129.60
115.27
107.59
104.77
102.04
93.97
76.50
49.61
18.30
-9.29
-25.68
-27.45
-16.50
1.01
17.34
26.09
24.63
14.70
0.78
-12.79
-23.75
-32.19
-39.34
-46.12
-52.32
-56.75
-57.99
-55.22
-48.75
-39.66
-28.91
-17.00
-4.01
10.11
25.06
40.16
54.47
66.68
74.97
77.03
70.80
55.77
34.17
10.93
-7.94
-18.20
-19.81
-17.61
-19.26
-31.65
-57.27
-92.74
-130.21
-160.93
-179.02
-183.79
-179.51
-173.27
-171.96
-180.09
-198.55
-224.96
-254.56
-281.36
-299.03
-301.75
-285.58
-250.14
-200.49
-147.20
-104.17
-84.03
-92.84
-126.87
-173.30
-215.16
-237.98
-235.17
-209.19
-168.42
-121.91
-74.93
-28.07
20.57
71.76
123.04
169.19
205.00
228.03
239.66
243.94
244.99
244.99
243.76
239.95
232.78
223.10
213.19
205.48
201.19
199.66
198.77
195.94
189.25
178.01
162.88
145.31
126.87
108.65
90.86
72.83
53.37
31.24
5.76
-22.93
-53.97
-86.02
-117.59
-147.47
-174.84
-199.20
-220.26
-237.66
-250.67
-258.31
-259.42
-253.15
-239.41
-219.14
-194.15
-166.62
-138.61
-111.52
-86.19
-63.07
-42.65
-25.61
-12.62
-3.92
1.05
3.79
6.29
10.45
17.46
27.66
40.51
55.02
69.92
83.88
95.52
103.64
107.66
108.32
107.72
108.57
112.87
120.63
129.27
134.46
131.82
118.95
96.71
68.69
39.44
12.62
-9.66
-26.57
-37.28
-40.43
-34.35
-17.75
8.98
43.27
81.14
118.82
153.71
185.13
213.31
238.54
261.43
281.42
295.96
300.68
290.89
263.09
217.65
158.46
92.31
29.14
-22.60
-59.70
-84.71
-103.14
-120.65
-138.72
-156.79
-173.80
-185.90
-190.36
-187.74
-181.11
-173.01
-164.77
-153.05
-134.45
-107.13
-66.34
-8.64
64.60
147.08
230.87
307.58
374.46
430.20
445.32
401.33
305.34
187.93
81.57
17.04
-11.80
-12.83
6.87
41.02
81.33
121.61
154.15
171.10
168.39
145.61
109.62
67.81
25.81
-9.32
-31.70
-40.00
-37.88
-31.68
-29.35
-34.61
-48.92
-71.29
-96.43
-117.70
-130.91
-135.79
-134.69
-131.76
-128.95
-127.41
-127.63
-128.40
-127.75
-124.39
-118.03
-108.86
-97.83
-85.00
-70.73
-55.85
-41.21
-27.58
-15.65
-6.20
0.39
3.21
2.31
-1.60
-7.64
-15.01
-23.09
-30.78
-37.37
-41.97
-45.69
-49.34
-53.10
-57.10
-61.60
-67.01
-72.44
-77.24
-80.05
-82.28
-84.85
-87.98
-92.25
-98.71
-108.75
-121.77
-137.70
-155.25
-176.03
-199.61
-222.73
-241.73
-254.07
-260.52
-263.48
-269.87
-261.70
-232.42
-187.22
-137.99
-94.24
-58.57
-41.81
-37.82
-42.28
-51.66
-66.34
-85.79
-99.97
-103.32
-94.06
-74.66
-48.20
-19.93
6.74
28.06
43.48
55.21
65.15
74.50
82.85
90.43
96.07
99.64
100.29
98.65
96.97
97.43
102.36
113.43
132.45
159.12
191.75
226.37
258.17
282.64
295.99
296.48
284.60
263.18
235.78
206.28
177.64
151.83
129.84
111.77
97.64
87.77
83.23
84.99
92.86
104.52
115.26
119.34
112.39
93.27
65.33
36.09
15.46
12.41
31.14
68.93
116.44
161.02
190.22
195.19
173.01
126.87
64.20
-6.19
-75.70
-135.92
-177.94
-194.70
-183.75
-149.33
-102.09
-56.21
-24.94
-15.35
-25.15
-39.16
-37.17
-6.04
48.93
107.89
151.30
170.04
168.86
156.87
143.00
131.37
119.81
105.87
87.48
65.27
42.23
21.88
6.17
-4.87
-13.73
-24.28
-39.68
-60.81
-85.70
-111.43
-136.05
-159.53
-182.61
-205.89
-228.68
-248.39
-261.25
-263.75
-254.67
-235.98
-212.00
-187.22
-164.93
-146.65
-132.15
-120.27
-109.58
-98.89
-87.62
-75.77
-63.61
-51.84
-41.55
-33.86
-29.54
-28.48
-29.90
-32.96
-37.36
-43.56
-52.53
-64.71
-79.38
-94.63
-108.09
-118.10
-124.89
-130.86
-139.64
-154.67
-178.06
-210.44
-251.25
-298.93
-350.50
-401.30
-445.07
-475.48
-488.54
-484.24
-466.61
-441.88
-415.55
-390.21
-365.36
-338.83
-309.04
-276.27
-242.46
-209.74
-178.90
-149.06
-118.62
-86.47
-52.86
-19.31
12.13
40.09
64.53
86.68
108.53
131.99
158.14
186.98
217.68
249.13
280.65
312.36
345.16
380.42
419.56
463.73
513.70
569.44
629.62
691.30
749.86
799.75
835.92
855.00
856.08
840.44
810.83
770.32
721.61
666.93
608.15
547.06
485.03
422.72
360.09
296.79
232.57
167.68
103.02
39.97
-19.82
-74.85
-124.17
-167.33
-204.18
-235.13
-261.19
-283.68
-303.85
-322.01
-337.64
-349.73
-356.97
-357.44
-349.81
-333.98
-311.10
-283.40
-252.65
-220.81
-190.36
-163.69
-141.28
-123.25
-109.94
-101.73
-98.75
-98.15
-96.28
-90.51
-79.83
-63.31
-42.91
-23.84
-12.56
-14.67
-29.07
-50.62
-73.15
-90.45
-94.95
-82.14
-52.77
-11.99
32.03
75.37
116.28
152.91
163.06
134.71
75.40
6.58
-40.52
-66.08
-72.93
-61.25
-37.75
-7.62
26.41
61.63
93.94
118.66
131.44
133.57
129.46
120.99
107.55
89.07
65.51
35.92
-1.47
-48.75
-112.36
-186.00
-257.17
-314.83
-356.84
-385.75
-402.58
-408.21
-399.89
-376.92
-339.41
-290.85
-236.16
-179.25
-122.11
-65.94
-12.25
37.40
82.50
124.36
162.53
194.40
216.36
225.66
221.66
205.99
182.21
154.62
127.90
104.66
85.57
70.40
59.14
51.80
47.57
44.86
41.61
36.50
28.76
18.05
4.44
-11.53
-29.06
-47.10
-64.24
-78.78
-88.57
-91.71
-86.86
-73.52
-52.12
-24.19
7.62
39.99
69.56
93.69
110.97
121.29
125.45
124.72
120.31
113.29
104.58
95.11
85.90
77.88
71.76
67.80
65.84
65.41
65.96
66.95
67.88
68.27
67.54
65.09
60.41
53.16
43.26
30.81
15.99
-0.95
-19.59
-39.13
-58.44
-76.27
-91.65
-104.20
-114.18
-122.19
-128.68
-133.65
-136.57
-136.77
-133.92
-128.38
-120.93
-112.10
-101.58
-87.92
-68.94
-42.80
-8.82
32.27
78.86
129.10
181.15
232.52
279.04
314.55
331.99
326.14
296.41
247.94
190.34
134.22
87.50
53.22
29.80
13.10
-0.90
-14.45
-27.84
-40.45
-51.66
-61.19
-68.78
-74.03
-76.48
-75.59
-71.08
-63.30
-53.40
-43.42
-35.61
-31.45
-31.57
-35.86
-43.48
-53.12
-63.51
-74.08
-85.18
-97.16
-109.49
-121.20
-131.45
-139.75
-145.80
-149.65
-152.00
-154.05
-155.96
-155.64
-149.62
-134.37
-107.43
-68.17
-18.39
37.79
91.45
130.86
148.41
145.84
131.54
113.49
95.60
78.63
62.50
50.49
44.19
46.09
56.94
74.17
93.01
109.46
122.49
134.51
141.36
142.30
137.16
124.92
104.86
78.69
51.24
28.35
13.60
5.96
1.78
-1.74
-5.64
-9.23
-11.25
-11.19
-10.40
-11.77
-15.59
-21.17
-26.38
-28.96
-27.67
-23.17
-17.55
-13.52
-12.78
-15.25
-19.12
-21.99
-22.31
-19.78
-15.36
-10.39
-6.86
-5.95
-7.66
-11.23
-15.66
-20.33
-24.61
-28.45
-31.94
-37.08
-45.16
-55.84
-67.45
-78.07
-86.75
-93.06
-97.97
-102.39
-109.38
-120.42
-134.69
-149.77
-163.26
-174.28
-182.15
-187.90
-192.04
-197.56
-205.58
-214.95
-223.49
-229.97
-235.71
-241.84
-251.04
-242.46
-206.65
-151.62
-97.52
-59.51
-39.15
-35.52
-34.50
-27.85
-13.48
2.43
12.95
18.19
21.09
28.03
45.37
80.03
128.20
179.58
220.63
250.47
272.28
290.79
311.38
329.42
344.09
354.90
363.76
371.53
377.41
377.06
364.13
333.42
283.01
217.34
142.28
64.17
-12.83
-86.28
-154.90
-216.92
-269.09
-307.87
-329.36
-333.65
-322.98
-300.40
-268.33
-228.74
-184.09
-136.71
-88.62
-40.20
6.38
48.30
82.83
107.74
121.64
123.34
112.65
90.47
58.99
18.19
-32.10
-89.78
-148.97
-194.89
-215.44
-210.75
-196.50
-180.32
-165.85
-153.96
-141.78
-127.36
-109.38
-88.33
-64.74
-37.25
-2.22
41.57
91.83
142.89
187.01
217.42
229.91
224.81
207.30
185.75
166.74
153.63
146.47
142.31
136.78
125.29
105.44
78.94
51.59
29.78
18.12
17.81
26.35
39.59
53.62
66.42
77.74
87.66
94.46
95.44
89.24
77.35
64.02
53.30
46.57
41.47
33.40
18.37
-3.51
-27.18
-45.11
-51.03
-42.92
-22.69
6.05
39.74
74.71
106.56
129.44
136.55
122.75
87.36
36.31
-19.30
-67.58
-100.88
-117.10
-118.42
-108.70
-89.92
-65.59
-41.50
-23.04
-10.31
-1.95
3.28
6.51
6.82
2.92
-7.17
-24.08
-45.31
-65.57
-79.11
-81.80
-73.04
-56.85
-41.66
-36.68
-47.00
-70.64
-99.59
-123.47
-132.68
-121.02
-87.18
-36.33
22.76
81.10
131.53
168.51
187.47
185.61
163.03
122.98
68.69
4.41
-64.30
-131.21
-191.74
-244.63
-290.90
-331.51
-349.54
-328.99
-264.68
-167.36
-56.33
49.33
134.43
189.60
213.12
210.75
190.31
159.98
126.56
94.59
66.62
43.81
26.72
15.37
8.43
1.51
-9.93
-26.43
-43.74
-54.33
-51.27
-31.55
2.49
44.25
81.41
103.62
105.80
88.41
56.40
16.67
-23.78
-58.95
-85.04
-101.05
-110.14
-115.06
-118.72
-121.74
-121.75
-113.88
-92.48
-54.35
-0.77
61.31
119.71
159.25
170.64
153.19
113.87
65.58
16.83
-25.01
-54.89
-70.08
-69.74
-54.29
-26.30
9.13
45.06
73.45
88.92
91.91
87.06
79.49
72.13
64.18
52.51
34.43
10.08
-16.33
-38.80
-52.61
-56.72
-53.34
-46.56
-40.11
-35.80
-33.49
-31.41
-28.22
-22.87
-16.08
-9.14
-3.53
-0.62
-1.21
-4.93
-9.91
-13.36
-12.71
-7.73
-0.04
7.34
11.31
10.19
4.29
-4.51
-14.00
-22.67
-30.98
-39.85
-49.85
-60.65
-71.21
-80.78
-89.56
-98.91
-104.20
-102.75
-91.76
-69.11
-34.86
7.62
51.95
90.58
117.40
130.36
130.67
121.98
108.23
92.30
75.60
58.87
44.15
32.17
25.05
24.56
31.18
43.63
59.03
73.24
81.96
82.06
72.43
52.13
24.98
-5.54
-37.59
-69.52
-98.11
-118.28
-124.66
-114.99
-92.19
-64.65
-43.40
-36.71
-45.23
-61.45
-73.89
-73.68
-59.82
-39.38
-23.66
-20.26
-30.33
-47.61
-62.16
-66.24
-58.60
-44.75
-32.69
-27.36
-28.00
-29.13
-24.56
-12.40
3.25
14.47
14.08
-0.11
-24.11
-50.30
-71.16
-82.40
-84.23
-80.25
-74.89
-71.58
-71.06
-71.38
-68.93
-60.39
-44.41
-22.77
0.15
19.14
30.54
34.10
32.80
31.11
32.56
38.35
47.44
57.93
68.63
79.54
91.61
105.62
121.78
139.67
158.87
178.68
197.83
214.11
224.70
227.32
221.23
207.80
189.68
169.56
148.34
125.02
98.16
67.81
36.42
8.11
-12.88
-24.20
-25.62
-19.64
-9.98
0.12
9.21
17.57
26.03
34.99
43.46
49.99
52.33
48.73
39.04
25.30
10.96
-0.90
-8.22
-16.17
-26.74
-39.20
-51.44
-62.28
-71.76
-79.38
-86.71
-94.59
-103.39
-112.28
-120.91
-128.22
-133.55
-136.44
-136.67
-134.65
-131.04
-126.76
-122.00
-116.81
-110.94
-103.97
-95.21
-84.17
-71.19
-57.23
-43.90
-32.57
-24.35
-19.77
-18.57
-19.63
-21.15
-21.30
-18.45
-11.82
-1.53
11.08
23.76
34.05
40.19
41.70
39.34
34.75
29.66
25.38
22.51
21.06
20.70
21.12
22.06
23.39
25.09
27.25
30.08
33.81
38.59
44.44
51.34
59.18
67.79
76.69
84.90
90.98
93.38
90.98
83.65
72.48
59.43
46.69
35.95
27.88
22.22
18.27
15.30
12.93
10.98
9.26
7.34
4.57
0.43
-5.10
-11.43
-17.56
-22.57
-26.09
-28.40
-30.21
-32.19
-34.61
-37.27
-39.75
-41.79
-43.47
-45.12
-47.13
-49.53
-52.05
-54.41
-56.45
-58.31
-60.28
-62.66
-65.43
-68.22
-70.28
-70.92
-69.73
-66.64
-61.71
-55.09
-46.93
-37.38
-26.78
-15.42
-3.87
7.02
16.76
25.29
32.61
38.49
42.36
43.17
40.84
35.75
28.63
21.35
16.27
14.88
16.84
20.15
21.35
18.96
12.75
3.24
-7.31
-15.87
-20.70
-22.27
-22.61
-25.35
-30.99
-39.00
-48.87
-58.25
-62.96
-58.83
-42.78
-13.06
29.26
84.99
153.50
219.47
262.83
269.33
239.21
184.63
133.16
88.12
49.57
17.61
-7.42
-27.94
-41.95
-47.87
-46.19
-39.39
-32.64
-27.95
-26.46
-29.06
-34.61
-39.86
-41.92
-39.68
-34.10
-28.84
-25.46
-24.85
-27.36
-31.85
-35.63
-36.38
-33.17
-26.54
-18.84
-11.15
-4.14
1.70
6.53
11.24
16.39
21.94
27.27
31.08
32.97
32.88
30.93
27.53
23.49
19.63
16.76
15.66
16.91
21.09
28.40
38.23
49.25
59.60
67.23
70.33
67.72
59.10
45.07
26.88
6.20
-15.37
-36.49
-56.32
-74.45
-90.73
-104.94
-116.64
-125.09
-129.47
-129.15
-124.01
-114.53
-101.67
-86.58
-70.37
-54.01
-38.28
-23.86
-11.32
-1.06
6.85
12.66
16.84
19.90
22.09
23.41
23.69
22.75
20.55
17.19
12.95
8.28
3.60
-0.86
-5.05
-9.07
-13.07
-17.17
-21.44
-25.87
-30.28
-34.59
-38.89
-43.23
-47.46
-51.09
-53.47
-53.93
-52.01
-47.08
-39.09
-28.54
-16.34
-3.48
9.04
20.31
29.69
37.07
43.93
51.68
61.14
72.42
85.06
98.22
110.78
121.61
129.93
136.94
143.42
149.41
154.56
158.86
162.66
166.32
169.78
172.62
176.07
179.90
182.46
181.59
175.83
164.88
149.25
129.60
96.21
47.99
-8.58
-63.58
-110.11
-145.62
-169.67
-182.32
-184.08
-179.21
-167.52
-150.11
-129.82
-110.08
-93.41
-80.92
-72.79
-68.95
-68.09
-67.90
-67.42
-66.84
-66.89
-67.89
-69.66
-71.89
-74.45
-77.36
-79.66
-80.84
-80.69
-78.96
-75.02
-68.19
-58.22
-45.67
-31.74
-17.43
-3.95
7.70
17.04
24.32
30.37
36.12
42.30
49.35
57.45
66.26
74.93
82.30
87.26
88.93
86.84
81.09
72.32
61.43
49.25
36.40
23.30
10.46
-1.39
-11.67
-19.89
-25.88
-30.18
-33.86
-38.19
-43.78
-50.04
-55.16
-57.42
-55.66
-49.92
-41.92
-34.58
-31.12
-33.51
-41.43
-52.15
-62.66
-70.23
-72.86
-70.05
-62.32
-51.15
-38.45
-26.54
-18.04
-16.54
-24.24
-37.44
-48.12
-46.63
-28.85
0.18
27.35
45.30
50.87
45.37
33.35
19.71
8.39
0.80
-3.55
-5.32
-3.91
1.35
10.95
24.14
37.98
47.81
48.64
37.38
14.49
-16.22
-50.15
-83.29
-113.37
-140.19
-164.74
-188.06
-209.96
-228.53
-240.71
-243.90
-236.43
-217.77
-188.51
-150.12
-104.75
-54.85
-2.96
48.39
96.34
137.88
170.14
190.92
199.45
197.17
188.04
178.07
173.95
181.15
202.37
236.87
280.57
327.06
369.04
399.82
414.64
411.45
391.15
356.95
313.41
265.04
215.26
165.78
116.66
66.95
15.56
-37.92
-92.69
-146.73
-197.35
-241.92
-278.65
-306.88
-326.88
-339.33
-344.90
-344.09
-337.59
-326.61
-312.88
-298.25
-283.92
-269.88
-254.89
-237.13
-215.19
-188.87
-159.39
-128.80
-98.91
-70.55
-43.22
-15.48
14.23
46.82
82.12
118.96
155.47
189.52
219.00
241.92
256.69
262.37
258.94
247.32
229.22
206.88
182.94
160.04
140.44
125.68
116.23
111.31
109.13
107.40
104.14
98.66
91.16
82.32
72.86
63.30
54.07
45.71
38.73
33.64
31.31
31.63
33.55
35.42
35.57
33.00
27.52
19.30
8.68
-2.95
-15.06
-27.63
-41.00
-55.74
-72.46
-92.14
-116.95
-149.90
-192.79
-242.14
-289.30
-323.61
-338.41
-332.88
-310.22
-275.94
-242.90
-213.08
-188.22
-170.76
-163.20
-166.97
-181.40
-200.85
-218.55
-227.49
-221.44
-198.82
-161.86
-114.83
-62.14
-7.09
47.90
99.67
144.15
177.86
197.73
203.31
197.28
184.45
170.01
157.90
149.61
144.78
142.67
141.87
141.45
141.08
140.63
140.00
138.96
136.96
133.60
129.25
124.57
120.50
117.71
115.96
114.03
110.06
102.20
89.58
72.92
54.26
36.45
21.83
11.45
4.89
0.89
-1.88
-4.06
-5.52
-5.80
-4.52
-2.46
-1.25
-2.27
-5.83
-11.13
-17.02
-22.85
-28.91
-35.51
-43.33
-52.07
-59.39
-61.24
-53.75
-35.15
-6.59
28.36
66.07
101.97
131.84
153.14
165.61
170.75
171.12
169.77
169.16
171.23
173.70
171.28
158.49
132.81
95.53
51.01
5.75
-41.85
-83.23
-108.16
-113.65
-106.19
-95.68
-89.34
-89.45
-93.31
-95.47
-89.46
-73.76
-51.38
-28.19
-9.59
0.68
0.23
-11.71
-34.81
-66.33
-103.48
-142.43
-177.49
-202.09
-207.63
-190.83
-155.43
-111.37
-69.53
-39.34
-25.22
-25.48
-34.29
-45.64
-56.83
-68.33
-81.84
-96.49
-109.82
-118.35
-118.18
-105.82
-78.82
-37.48
14.91
72.13
127.71
174.73
207.83
225.00
227.82
220.19
205.57
185.47
151.52
101.65
41.61
-17.14
-63.75
-93.15
-106.28
-108.24
-105.00
-100.36
-93.46
-81.89
-65.24
-43.73
-20.73
-0.93
11.69
15.39
11.22
3.21
-4.65
-9.86
-11.94
-10.49
-5.41
2.66
12.12
20.83
27.58
31.82
33.62
34.68
34.93
34.08
32.04
28.85
25.02
21.48
18.84
16.92
15.06
12.21
7.02
-0.88
-10.91
-21.27
-29.59
-34.03
-33.76
-28.86
-20.53
-10.43
0.16
10.45
20.49
30.23
38.44
42.13
38.59
27.42
12.17
-0.42
-4.16
3.12
18.12
33.60
41.24
34.86
11.71
-28.55
-82.38
-144.33
-202.69
-243.16
-256.34
-242.79
-210.43
-168.85
-125.66
-84.72
-48.18
-16.96
8.13
26.33
38.53
47.14
55.17
65.12
78.95
95.79
112.87
126.52
133.72
133.74
128.85
123.61
115.25
105.39
95.89
88.19
82.80
79.28
76.87
75.00
72.97
69.80
65.58
60.11
53.58
46.65
40.15
35.21
33.08
34.67
39.79
47.73
56.48
63.47
67.15
67.21
64.72
61.79
60.73
63.13
70.02
81.06
94.81
109.27
121.25
126.69
122.68
108.65
86.57
59.89
31.33
1.28
-27.52
-54.82
-83.14
-114.31
-147.77
-180.72
-209.73
-232.06
-245.70
-248.78
-240.19
-222.24
-197.65
-168.67
-137.47
-107.14
-81.37
-62.82
-52.08
-48.39
-54.19
-71.26
-99.09
-134.98
-175.75
-218.84
-262.28
-304.65
-321.61
-300.21
-246.18
-178.68
-114.24
-59.52
-14.92
20.58
47.50
66.27
74.49
72.27
63.29
53.00
45.62
42.73
44.19
49.41
58.10
67.07
73.18
76.69
79.10
82.06
86.64
93.61
103.96
118.67
134.94
150.21
162.01
167.74
164.86
151.97
130.31
104.20
79.88
62.29
55.01
59.07
72.82
92.22
111.41
124.03
124.69
111.78
84.78
47.73
7.60
-27.63
-51.53
-61.32
-58.23
-46.29
-30.47
-15.17
-2.70
5.26
7.75
4.17
-5.62
-21.08
-40.91
-63.21
-86.08
-107.21
-125.61
-140.80
-152.72
-161.41
-166.91
-169.39
-169.55
-169.18
-164.49
-155.49
-143.37
-128.89
-111.14
-87.55
-55.74
-15.73
28.96
73.52
111.07
135.60
144.28
138.90
125.32
110.92
101.78
101.00
110.66
129.43
153.84
180.18
206.48
232.38
257.22
278.15
276.46
240.39
171.80
85.05
-3.33
-81.31
-142.02
-182.22
-201.12
-199.57
-178.47
-142.48
-100.78
-64.72
-43.51
-40.73
-53.38
-73.56
-92.09
-100.23
-93.34
-72.12
-41.04
-6.25
26.22
51.24
62.62
58.05
40.27
14.58
-12.95
-35.95
-49.79
-52.72
-46.29
-34.20
-21.25
-10.55
-3.80
-1.34
-0.92
0.59
6.40
18.67
37.67
61.37
87.38
112.83
127.84
127.51
112.49
87.99
60.29
36.74
15.90
-3.81
-23.02
-41.40
-56.73
-66.94
-70.74
-67.34
-58.67
-51.09
-51.97
-65.69
-90.26
-116.62
-135.05
-139.41
-129.11
-109.10
-86.91
-67.48
-51.45
-36.62
-20.27
-1.72
16.83
31.36
38.25
36.36
28.28
18.29
9.59
3.16
-2.29
-8.61
-16.41
-24.52
-30.77
-33.18
-31.63
-27.95
-24.13
-20.28
-13.57
0.55
25.38
60.33
100.55
138.68
167.97
185.05
190.65
188.04
180.58
169.81
155.43
137.05
115.33
92.39
71.10
53.89
41.70
33.81
28.00
21.72
13.83
4.34
-6.03
-16.59
-26.95
-37.19
-47.24
-57.08
-66.15
-72.08
-72.40
-65.86
-53.01
-35.90
-17.16
1.17
17.09
29.10
37.95
45.10
51.91
59.38
68.02
78.00
89.16
99.38
97.56
76.93
40.10
-1.95
-37.66
-60.35
-72.14
-75.84
-74.92
-73.07
-70.74
-68.53
-67.52
-69.04
-74.75
-85.25
-96.26
-103.05
-103.01
-95.62
-82.41
-68.53
-54.66
-41.27
-28.44
-15.41
-1.45
12.16
24.02
32.75
37.07
36.12
29.01
15.88
-1.63
-18.74
-29.53
-29.66
-18.57
0.70
23.24
43.38
56.54
60.51
55.30
42.66
25.71
8.50
-5.32
-13.62
-16.52
-15.84
-13.89
-12.52
-13.01
-16.26
-22.22
-30.53
-40.58
-51.30
-61.25
-68.80
-72.49
-70.18
-62.26
-49.29
-31.78
-10.56
12.91
36.10
55.90
69.71
76.37
76.49
72.33
67.55
63.96
62.89
64.80
69.51
76.59
85.42
94.90
103.30
108.84
110.14
107.09
100.75
92.87
85.42
79.74
75.80
71.71
64.90
53.31
36.47
15.60
-7.21
-29.57
-50.24
-66.71
-79.19
-89.35
-99.29
-110.61
-124.23
-140.94
-160.39
-180.91
-200.12
-215.94
-226.47
-230.52
-227.78
-218.93
-205.78
-189.31
-169.22
-144.71
-115.84
-83.36
-48.54
-12.94
26.30
65.78
99.74
125.10
143.12
156.34
166.11
171.88
172.14
165.85
154.94
139.42
119.66
95.88
67.76
35.63
1.56
-30.70
-56.85
-74.61
-79.48
-70.44
-49.45
-20.15
14.12
51.25
89.66
127.05
159.32
181.98
191.68
187.97
173.32
152.15
128.92
106.77
87.10
70.03
55.56
43.70
34.62
27.99
22.93
18.48
13.98
9.32
4.89
1.47
-0.07
1.29
6.36
15.40
27.94
42.92
59.21
76.00
92.92
109.60
125.55
140.00
152.41
162.96
172.67
182.97
194.81
208.06
221.36
232.74
240.37
243.06
240.29
231.91
218.00
198.79
174.83
147.13
116.99
85.74
54.46
23.71
-6.54
-36.80
-67.68
-99.63
-132.80
-166.91
-201.37
-235.64
-269.42
-302.98
-337.42
-374.54
-416.26
-463.21
-513.46
-562.24
-602.97
-628.85
-634.89
-618.95
-582.06
-528.01
-462.19
-390.63
-319.33
-253.56
-197.04
-151.38
-115.74
-87.48
-63.65
-41.32
-18.04
8.09
38.30
73.02
111.16
150.27
186.96
216.54
236.10
245.50
246.98
243.61
238.33
232.41
226.31
219.90
210.04
194.36
171.66
141.66
104.18
59.85
9.81
-42.48
-92.09
-138.42
-180.98
-219.31
-253.62
-285.70
-317.31
-350.46
-384.08
-414.33
-441.37
-463.06
-475.15
-473.20
-455.83
-424.75
-386.14
-345.69
-275.92
-169.85
-42.08
80.59
178.38
240.06
277.58
299.94
313.39
322.79
324.24
315.85
299.05
277.50
254.22
231.39
208.33
185.31
163.67
141.12
117.23
93.70
73.41
58.33
49.52
45.61
45.50
48.32
50.43
49.30
44.37
37.09
29.89
25.72
26.02
31.33
40.76
50.90
58.73
62.92
64.24
64.48
65.43
67.46
70.21
73.34
76.88
82.30
91.96
107.75
129.81
156.16
183.31
207.89
227.77
242.36
252.13
257.82
259.97
258.78
254.42
247.42
238.68
229.31
220.36
212.55
206.26
201.58
198.36
196.31
195.03
194.12
193.24
192.22
190.99
189.45
187.22
183.52
177.12
166.55
150.43
127.69
97.85
61.15
18.66
-27.86
-76.19
-123.96
-168.81
-208.66
-241.85
-267.30
-284.69
-294.46
-297.70
-296.16
-291.77
-286.17
-280.43
-275.10
-270.31
-265.87
-261.23
-255.61
-248.58
-240.04
-230.13
-219.21
-208.01
-197.41
-187.99
-179.55
-171.28
-163.29
-156.27
-150.53
-145.14
-137.90
-126.12
-107.98
-83.47
-54.87
-27.13
-4.65
11.88
25.73
40.95
58.43
74.91
85.55
87.94
82.52
73.05
64.10
57.19
48.58
30.66
-3.02
-53.14
-101.65
-128.07
-123.85
-99.08
-70.79
-48.51
-30.77
-9.90
20.76
61.90
105.58
139.23
156.29
155.50
140.65
118.21
94.64
74.78
61.58
54.82
52.61
53.08
56.17
61.17
66.76
71.37
74.00
74.60
72.79
67.56
58.10
44.07
26.14
6.83
-10.56
-24.00
-33.90
-42.67
-53.22
-66.37
-80.37
-92.02
-98.52
-99.76
-98.41
-98.36
-101.86
-109.27
-118.47
-126.87
-133.31
-139.39
-147.45
-158.70
-172.11
-183.17
-187.39
-181.55
-165.45
-141.76
-112.61
-82.22
-52.17
-26.70
-5.91
7.09
8.76
-2.35
-23.90
-47.17
-65.85
-72.79
-70.37
-62.64
-56.47
-57.23
-65.96
-78.63
-84.66
-78.14
-54.45
-16.05
30.81
79.07
125.04
169.03
191.96
223.66
264.13
313.15
366.02
417.33
463.02
501.95
533.88
557.26
572.37
578.18
576.63
568.44
554.42
536.34
516.68
496.72
476.22
421.48
319.76
188.93
60.29
-45.64
-126.95
-191.65
-247.46
-296.98
-336.74
-359.82
-363.12
-351.90
-336.27
-324.76
-320.72
-322.79
-327.31
-330.75
-325.86
-308.02
-277.47
-238.02
-194.16
-149.54
-107.02
-68.70
-37.40
-12.10
8.81
25.50
36.61
40.93
38.82
32.21
24.11
17.47
15.85
19.93
27.13
33.19
34.76
31.12
23.98
16.03
9.52
6.07
5.49
6.29
6.95
5.85
2.18
-4.44
-14.16
-26.83
-41.34
-55.76
-67.76
-75.22
-77.14
-73.80
-66.64
-57.75
-49.17
-41.92
-35.48
-27.78
-15.87
2.56
27.74
56.73
83.83
102.44
107.88
99.74
82.24
62.42
47.15
40.52
42.65
50.99
61.26
69.01
71.25
67.15
57.46
43.58
26.61
7.15
-14.39
-37.14
-59.19
-77.72
-89.93
-94.28
-91.24
-83.16
-73.31
-64.43
-57.78
-52.99
-48.81
-44.36
-39.94
-36.93
-36.99
-40.96
-48.16
-56.73
-64.39
-69.29
-70.68
-68.83
-64.63
-58.93
-52.27
-44.77
-36.38
-27.06
-16.79
-5.53
6.77
20.11
34.27
48.63
62.29
74.15
83.24
89.02
91.42
90.81
87.77
82.86
76.44
68.65
59.63
49.68
39.45
29.93
22.08
16.52
13.19
11.31
9.59
6.66
1.49
-6.26
-16.18
-27.41
-38.94
-50.04
-60.28
-69.37
-76.91
-82.29
-84.89
-84.43
-81.08
-75.26
-67.03
-55.65
-39.77
-18.32
8.43
38.29
67.57
92.37
110.11
120.23
123.92
123.13
119.50
113.99
107.05
99.17
91.13
83.76
77.56
72.42
67.78
63.16
58.80
55.76
55.51
59.02
66.03
74.65
81.77
84.15
79.64
68.14
51.81
34.30
19.47
9.95
6.30
7.11
9.91
12.26
12.71
10.95
7.44
2.67
-3.39
-11.39
-22.13
-35.86
-51.99
-69.05
-85.32
-99.32
-110.24
-117.84
-122.22
-123.48
-121.73
-117.22
-110.58
-102.85
-95.12
-88.12
-82.01
-76.40
-70.72
-64.50
-57.59
-50.01
-41.91
-33.44
-24.81
-16.45
-8.88
-2.59
2.17
5.40
7.30
8.07
7.80
6.62
4.74
2.64
1.04
0.71
2.14
5.36
9.83
14.59
18.58
21.05
21.78
21.11
19.59
17.65
15.30
12.14
7.73
1.83
-5.24
-12.66
-19.47
-24.95
-28.81
-30.94
-31.31
-29.99
-27.34
-24.06
-21.03
-19.02
-18.38
-18.80
-19.39
-19.20
-17.65
-15.17
-12.73
-11.26
-11.42
-13.48
-17.36
-22.67
-28.68
-34.48
-40.05
-45.41
-50.59
-55.71
-61.08
-66.95
-73.09
-78.82
-83.37
-88.15
-94.41
-102.18
-110.12
-116.33
-119.25
-118.10
-113.18
-105.78
-100.44
-100.44
-106.28
-116.08
-127.43
-138.68
-148.70
-156.55
-161.10
-164.73
-168.59
-171.77
-172.16
-168.89
-163.29
-157.89
-155.60
-136.09
-91.87
-31.08
28.24
72.64
99.12
111.88
117.49
121.34
126.44
129.65
127.78
120.01
108.69
97.04
86.64
80.00
78.16
80.99
84.69
86.88
87.50
88.69
91.96
97.22
103.15
107.66
109.04
104.88
96.49
85.13
74.55
67.51
64.79
65.73
68.75
72.14
73.38
72.81
71.83
71.93
72.81
72.97
71.18
67.30
62.61
58.42
58.97
67.95
86.98
114.55
147.60
183.57
220.79
258.05
278.46
268.92
227.28
166.35
105.27
58.57
31.26
19.32
17.50
15.46
9.75
1.84
-4.87
-8.47
-9.59
-10.39
-14.91
-23.76
-35.54
-44.80
-46.49
-38.80
-24.38
-8.51
3.86
10.10
10.85
8.16
6.06
7.48
12.99
20.89
28.66
34.06
35.32
31.86
23.38
11.02
-3.57
-18.58
-32.38
-43.38
-50.99
-56.48
-61.25
-66.59
-72.19
-76.69
-78.10
-74.75
-65.39
-51.36
-37.43
-28.72
-29.46
-41.06
-62.39
-90.08
-119.64
-145.57
-165.17
-179.89
-191.66
-201.89
-209.92
-215.23
-219.19
-226.03
-240.59
-254.82
-262.91
-259.41
-240.99
-204.66
-150.44
-82.94
-16.31
48.25
109.70
165.79
215.79
259.02
296.87
326.13
344.31
344.77
329.28
305.95
284.36
277.32
279.55
282.03
277.57
258.99
226.90
188.41
150.20
115.35
83.65
51.77
18.30
-16.83
-52.34
-86.08
-116.03
-143.74
-174.20
-213.35
-265.61
-329.20
-396.75
-457.16
-498.76
-512.55
-495.69
-451.14
-385.60
-306.96
-221.39
-134.61
-52.74
18.40
75.30
118.58
153.55
187.20
224.55
266.42
308.39
343.32
364.78
370.13
361.11
341.97
315.15
280.82
238.35
188.14
133.18
77.42
24.21
-25.43
-67.53
-100.01
-124.57
-145.30
-165.02
-182.82
-196.67
-205.09
-207.85
-206.14
-203.69
-203.75
-208.14
-219.47
-231.19
-235.04
-223.59
-192.50
-142.18
-79.31
-12.57
49.94
101.41
137.97
161.28
176.27
186.82
198.07
205.04
202.71
189.35
168.31
147.60
135.89
139.34
160.24
197.74
243.15
287.74
322.70
341.06
339.42
317.65
278.22
225.72
166.02
104.40
43.92
-14.89
-72.56
-129.43
-185.58
-241.44
-298.31
-358.11
-409.63
-440.73
-444.58
-421.72
-376.66
-314.48
-241.86
-167.92
-102.53
-52.93
-22.11
-8.58
-4.11
-0.56
7.18
19.79
35.28
51.82
70.26
92.36
118.04
145.42
170.38
188.26
195.92
193.56
183.86
170.39
154.14
133.80
108.28
78.42
47.97
21.98
4.47
-4.84
-7.68
-6.87
-5.22
-4.33
-5.04
-7.75
-12.58
-19.29
-28.11
-38.45
-49.95
-62.67
-76.70
-92.16
-109.05
-127.76
-143.17
-152.58
-153.74
-144.84
-124.21
-90.33
-42.87
15.97
80.50
141.88
189.59
215.75
217.66
198.46
165.64
127.29
89.08
52.85
17.54
-19.29
-58.87
-101.00
-145.07
-191.14
-239.83
-290.79
-340.92
-384.00
-412.83
-421.88
-410.06
-381.50
-343.72
-304.39
-268.36
-236.56
-206.95
-176.56
-143.06
-105.55
-64.64
-22.25
18.69
54.76
82.80
100.90
109.48
110.94
108.75
105.71
102.79
99.33
94.12
86.76
78.18
70.01
63.38
58.06
52.67
45.76
36.90
27.05
17.89
10.73
5.69
1.63
-3.11
-9.87
-18.96
-29.68
-40.73
-50.67
-58.33
-62.97
-64.27
-62.42
-58.02
-51.79
-44.19
-35.05
-23.62
-9.14
8.18
26.47
42.28
51.59
51.27
40.23
19.98
-5.92
-32.70
-55.70
-71.19
-76.90
-72.20
-57.76
-35.02
-5.50
29.60
69.12
111.38
153.67
192.24
223.23
244.00
254.10
255.32
250.61
242.78
233.66
224.19
215.00
206.91
201.00
198.10
198.60
202.47
209.77
220.94
236.41
255.56
275.87
292.99
301.87
298.81
283.07
257.38
226.73
196.53
170.54
150.03
134.18
121.19
109.51
98.49
88.22
79.15
71.58
65.72
61.56
59.00
57.38
55.05
49.21
36.10
11.79
-26.87
-81.26
-150.12
-228.92
-309.97
-383.39
-439.09
-469.37
-471.17
-447.07
-404.22
-351.88
-298.39
-249.25
-206.67
-170.47
-139.43
-112.09
-87.10
-63.08
-38.83
-13.65
12.29
37.85
61.49
81.91
98.73
112.63
125.04
137.54
151.18
166.17
181.65
195.78
205.98
209.76
205.71
194.57
179.42
164.59
153.77
147.78
143.63
135.47
117.20
85.35
40.82
-11.46
-64.35
-111.08
-146.82
-168.84
-175.99
-168.20
-147.05
-116.47
-82.46
-51.60
-28.80
-15.77
-10.92
-10.90
-12.04
-12.15
-10.75
-8.01
-3.63
3.74
15.59
31.96
50.39
66.92
76.13
72.60
52.69
16.46
-31.16
-81.09
-122.28
-144.79
-140.70
-107.77
-50.31
22.10
97.47
164.31
213.38
238.40
236.53
211.02
168.38
117.17
66.68
25.95
2.44
-0.29
16.04
32.26
31.94
7.27
-37.10
-90.27
-142.13
-185.48
-215.85
-231.21
-232.75
-220.75
-196.51
-163.50
-127.34
-94.01
-67.90
-51.17
-43.87
-47.07
-56.99
-68.38
-76.48
-78.76
-75.30
-68.23
-60.85
-56.50
-57.35
-62.38
-69.51
-76.79
-83.03
-87.55
-89.60
-88.24
-82.64
-72.40
-56.84
-36.15
-11.56
14.78
40.38
63.02
81.14
94.07
101.90
105.83
107.18
106.98
105.76
103.72
101.12
98.41
96.25
95.13
95.25
96.23
97.02
96.31
93.03
86.73
77.64
66.41
53.64
39.69
24.81
9.10
-7.29
-23.92
-40.07
-55.01
-68.49
-80.81
-92.47
-103.32
-112.90
-120.63
-126.05
-128.88
-129.17
-127.20
-123.39
-117.62
-108.79
-95.92
-78.73
-57.75
-33.88
-8.23
17.86
42.84
65.66
86.62
105.98
123.33
137.56
147.40
151.72
149.74
140.93
120.62
89.14
51.75
15.30
-16.00
-41.12
-60.42
-74.22
-84.93
-93.44
-99.23
-102.52
-104.55
-106.78
-109.46
-112.22
-112.28
-109.32
-104.62
-98.95
-93.20
-88.33
-84.63
-80.71
-74.29
-63.15
-46.11
-23.01
7.05
44.11
85.04
121.95
146.43
154.00
146.35
133.97
121.35
111.08
104.22
100.34
95.63
88.08
76.63
61.07
41.71
19.08
-4.21
-24.51
-37.94
-41.19
-31.73
-9.67
21.34
54.22
79.69
90.20
81.83
55.21
15.37
-29.52
-71.24
-103.88
-125.06
-136.10
-139.80
-139.37
-137.52
-135.80
-134.23
-131.96
-127.69
-120.03
-108.05
-91.02
-68.82
-42.30
-13.24
16.18
43.84
68.31
89.17
106.60
121.07
132.66
140.81
144.69
143.91
139.02
131.57
123.53
116.45
110.92
106.49
102.13
96.84
90.08
81.76
72.12
61.42
49.98
38.16
26.56
15.96
7.14
0.51
-4.07
-7.32
-10.22
-13.69
-18.31
-24.35
-32.01
-41.56
-53.39
-67.81
-84.75
-103.53
-122.93
-141.41
-157.50
-170.04
-178.33
-182.12
-181.58
-177.26
-169.94
-160.55
-149.97
-138.82
-127.41
-115.85
-103.99
-91.76
-79.17
-66.42
-53.62
-40.79
-27.83
-14.66
-1.53
10.99
21.86
29.77
33.54
32.58
27.22
18.57
8.22
-2.25
-11.33
-18.21
-22.80
-25.70
-27.83
-30.10
-33.16
-37.36
-42.70
-48.11
-52.69
-55.99
-58.16
-59.54
-60.31
-60.43
-59.78
-58.25
-54.11
-46.11
-33.82
-17.85
0.85
21.48
43.18
64.78
84.83
104.59
125.12
146.90
169.36
191.70
213.43
234.08
252.82
268.58
283.64
299.37
315.66
330.49
341.90
349.63
355.32
361.75
351.12
314.30
253.55
182.27
114.06
55.88
9.04
-27.74
-56.20
-78.35
-90.96
-95.55
-94.44
-90.98
-87.91
-86.32
-86.41
-88.13
-91.92
-95.80
-99.20
-101.94
-104.97
-108.59
-111.38
-111.37
-106.98
-101.45
-94.27
-85.81
-77.01
-69.45
-64.34
-59.74
-54.74
-49.14
-43.76
-38.74
-34.84
-32.34
-31.06
-30.19
-28.52
-25.56
-21.27
-16.04
-9.69
-2.39
5.70
14.14
22.25
29.17
33.66
34.79
32.23
26.66
19.12
10.81
2.70
-4.78
-11.67
-18.63
-26.02
-33.59
-40.41
-45.43
-47.87
-47.61
-45.21
-41.66
-38.47
-36.58
-36.20
-36.90
-38.24
-40.06
-42.53
-45.75
-49.44
-53.67
-57.92
-61.20
-62.45
-61.28
-58.16
-54.54
-52.08
-52.31
-57.48
-68.45
-84.18
-102.06
-119.25
-133.62
-144.67
-152.74
-158.55
-164.29
-170.89
-177.45
-181.70
-181.43
-175.28
-163.52
-147.03
-118.01
-76.01
-28.13
14.74
45.81
64.06
76.17
87.11
99.18
112.75
124.42
131.44
133.04
131.29
129.18
129.00
130.79
133.44
135.35
133.72
126.58
113.16
95.27
75.66
56.96
40.53
27.20
17.51
10.87
6.43
3.49
3.71
9.78
24.19
47.92
80.90
122.87
173.05
230.35
281.25
311.03
310.13
279.88
229.17
168.22
105.57
47.84
-0.13
-35.81
-57.62
-65.89
-63.77
-55.16
-43.84
-32.24
-21.25
-11.03
-1.88
6.98
16.61
28.18
41.36
55.30
68.82
80.35
87.74
88.53
81.66
67.54
47.62
23.47
-3.88
-34.16
-67.69
-104.93
-145.83
-188.92
-231.65
-270.93
-303.85
-327.71
-340.06
-338.97
-323.75
-295.68
-258.30
-216.90
-177.46
-145.00
-122.27
-109.16
-103.20
-100.63
-97.62
-91.09
-78.95
-60.28
-35.29
-5.30
27.48
60.32
90.58
116.23
136.21
150.57
160.05
165.53
167.74
167.28
164.67
160.56
155.72
150.78
146.47
143.27
141.00
139.18
137.32
135.12
132.63
130.04
127.33
124.71
122.13
118.78
113.68
106.09
95.99
84.11
71.61
59.30
48.16
38.53
29.63
20.30
9.42
-3.70
-18.08
-30.35
-40.70
-49.94
-55.95
-57.44
-53.95
-46.12
-35.48
-23.92
-13.10
-4.14
3.35
10.56
18.25
26.65
35.39
43.63
50.38
54.68
55.63
53.19
47.90
40.27
31.01
20.76
10.02
-0.91
-12.13
-24.18
-37.37
-51.58
-66.49
-81.38
-95.65
-109.02
-121.64
-133.79
-145.53
-156.01
-163.46
-165.90
-161.74
-150.95
-134.90
-115.74
-95.59
-75.81
-56.58
-36.98
-15.81
7.76
32.64
57.02
79.34
98.89
115.42
128.55
137.52
140.77
136.93
123.51
100.16
69.58
36.69
5.85
-20.89
-43.31
-62.59
-79.00
-94.86
-111.23
-127.54
-142.49
-156.29
-170.92
-187.81
-207.74
-229.05
-253.07
-280.49
-310.31
-339.79
-366.98
-391.61
-413.38
-432.73
-421.39
-363.36
-264.33
-148.93
-41.43
45.38
105.06
146.98
177.44
200.33
213.93
217.26
209.28
193.88
176.16
159.89
147.42
137.85
129.69
118.20
100.22
76.28
50.98
29.49
15.08
9.04
9.65
14.71
20.41
24.25
26.09
28.14
32.60
40.39
51.45
64.25
77.32
88.47
96.04
99.45
99.47
97.38
94.50
92.23
91.37
92.47
95.21
98.77
102.19
104.80
106.11
105.83
103.85
100.07
94.58
87.66
79.71
71.31
63.07
55.46
48.68
42.71
37.45
32.85
28.96
25.89
23.64
22.08
20.96
20.00
18.96
17.63
15.77
13.08
9.25
4.09
-2.36
-9.75
-17.50
-24.86
-31.10
-35.60
-37.99
-38.12
-36.12
-32.32
-27.12
-20.85
-13.69
-5.60
3.56
13.91
25.37
37.55
49.74
61.08
70.73
78.09
82.97
85.46
85.90
84.61
81.82
77.62
72.03
65.03
56.65
47.03
36.37
25.08
13.60
2.33
-8.48
-18.80
-28.74
-38.46
-47.96
-57.11
-65.49
-72.67
-78.27
-82.10
-84.15
-84.58
-83.65
-81.70
-79.15
-76.26
-73.25
-70.23
-67.24
-64.23
-61.08
-57.63
-53.78
-49.53
-44.70
-39.22
-33.21
-26.95
-20.82
-15.12
-10.17
-6.36
-4.19
-3.46
-3.76
-4.50
-5.17
-5.35
-4.78
-3.54
-2.14
-1.38
-0.95
-0.13
1.87
5.52
10.85
17.63
25.39
33.41
40.87
48.36
56.79
66.74
78.22
90.90
104.86
120.81
139.72
154.22
157.96
147.67
124.64
92.71
55.91
18.50
-14.71
-39.43
-53.36
-55.81
-48.54
-35.02
-18.05
0.36
18.95
36.53
51.03
59.76
61.27
55.39
43.29
26.86
7.85
-12.74
-33.30
-52.67
-70.08
-84.38
-94.63
-100.58
-102.85
-102.77
-101.64
-100.16
-98.57
-96.70
-93.89
-89.68
-84.03
-77.31
-69.96
-62.14
-53.65
-44.33
-34.23
-23.61
-12.91
-2.71
6.50
14.37
20.76
25.71
29.21
31.10
31.10
28.82
23.89
16.14
5.73
-6.68
-19.99
-32.85
-43.98
-52.48
-58.02
-60.84
-61.61
-61.12
-60.14
-59.23
-58.74
-58.83
-59.54
-60.85
-62.76
-65.35
-68.77
-73.18
-78.57
-84.56
-90.17
-93.87
-93.71
-87.81
-74.90
-54.79
-28.51
1.85
33.58
63.88
90.30
111.11
125.45
133.40
135.91
134.57
131.21
127.36
123.87
120.75
117.45
113.24
107.68
100.84
93.32
86.04
80.03
76.21
75.27
77.57
83.03
91.12
100.88
111.10
120.60
128.44
134.11
137.48
138.75
138.18
135.98
132.22
126.83
119.77
111.09
101.11
90.24
79.00
67.92
57.35
47.41
38.00
28.95
20.10
11.43
2.77
-6.05
-15.16
-24.63
-34.42
-44.37
-54.22
-63.70
-72.67
-81.47
-90.46
-99.79
-109.28
-118.45
-126.79
-133.83
-139.23
-142.87
-145.44
-147.25
-147.88
-146.37
-141.85
-134.11
-123.69
-111.66
-99.30
-89.13
-82.61
-79.72
-79.48
-81.09
-84.66
-90.83
-100.04
-112.11
-128.43
-148.91
-171.65
-193.77
-212.96
-228.31
-239.91
-247.87
-252.16
-255.52
-259.20
-262.11
-261.50
-255.02
-241.93
-223.00
-199.31
-154.09
-82.56
6.48
95.66
171.40
229.61
272.54
303.64
325.37
337.83
337.10
321.01
291.05
252.16
210.45
172.12
139.45
114.86
99.75
92.37
90.98
93.94
99.49
105.24
108.43
106.89
100.93
91.76
79.96
66.83
53.84
42.13
31.84
22.06
11.14
-1.58
-17.27
-37.16
-57.43
-72.66
-78.69
-74.90
-64.12
-55.08
-49.29
-47.27
-49.08
-54.04
-58.88
-61.80
-61.91
-59.48
-55.56
-50.53
-45.15
-39.51
-33.19
-26.45
-20.82
-17.98
-19.01
-23.67
-29.88
-35.65
-39.39
-40.28
-38.55
-35.30
-31.41
-27.40
-23.48
-19.47
-15.77
-12.81
-10.85
-10.10
-10.88
-13.47
-18.22
-25.35
-34.66
-45.69
-57.60
-69.29
-79.63
-87.64
-92.20
-92.64
-88.68
-80.42
-68.28
-52.78
-34.40
-13.37
10.40
37.52
67.92
100.76
134.41
167.10
197.35
223.99
246.44
264.76
280.03
292.59
302.21
308.07
309.85
307.75
301.81
291.81
277.33
258.62
234.99
205.91
171.03
131.81
91.21
52.01
16.40
-19.55
-53.59
-81.27
-99.01
-107.57
-109.55
-108.64
-109.19
-114.97
-128.30
-148.79
-175.66
-204.62
-232.39
-255.47
-264.67
-255.16
-229.40
-195.43
-160.98
-135.68
-117.71
-104.91
-95.76
-90.30
-88.08
-89.86
-95.13
-101.08
-104.39
-101.58
-91.71
-74.68
-51.68
-25.23
1.18
24.71
44.17
59.55
72.27
81.00
85.20
85.86
85.62
86.49
89.26
93.68
98.75
103.56
106.62
109.75
111.85
112.12
109.74
104.66
97.69
90.28
84.16
80.42
79.81
80.09
80.11
78.58
74.63
68.12
59.52
49.63
39.03
28.26
17.30
6.62
-3.53
-12.86
-21.02
-27.63
-32.46
-35.45
-36.66
-36.60
-35.56
-34.17
-33.19
-33.29
-34.91
-38.20
-43.07
-49.27
-56.57
-64.55
-72.80
-80.90
-88.35
-94.64
-99.34
-102.24
-103.42
-103.24
-102.11
-100.41
-98.28
-95.55
-91.73
-86.24
-78.65
-68.89
-57.32
-44.63
-31.67
-19.22
-7.77
2.41
11.24
18.66
24.59
28.93
31.64
32.79
32.61
31.45
29.67
27.68
25.88
24.66
24.39
25.26
27.34
30.41
34.10
37.89
41.26
43.75
44.99
44.72
42.83
39.35
34.56
28.86
22.76
16.64
10.72
5.04
-0.38
-5.38
-9.60
-12.46
-13.35
-11.89
-8.09
-2.41
4.30
10.99
16.62
20.43
21.97
21.24
18.58
14.52
9.72
4.77
0.16
-3.74
-6.67
-8.52
-9.34
-9.29
-8.63
-7.64
-6.51
-5.34
-4.15
-2.94
-1.85
-1.13
-1.17
-2.25
-4.51
-7.76
-11.66
-15.78
-19.80
-23.61
-27.22
-30.68
-34.03
-37.26
-40.30
-43.07
-45.42
-47.15
-47.96
-47.51
-45.60
-42.26
-37.81
-32.78
-27.74
-23.20
-19.55
-17.04
-15.82
-15.89
-17.08
-18.97
-20.90
-21.99
-21.36
-18.34
-12.67
-4.71
4.68
14.24
22.70
29.03
32.74
33.91
33.05
30.91
28.20
25.48
23.19
21.64
21.08
21.69
23.47
26.17
29.28
32.17
34.21
35.01
34.54
33.13
31.35
29.81
28.97
29.07
30.10
31.88
34.16
36.69
39.27
41.70
43.77
45.25
45.93
45.68
44.45
42.30
39.41
35.98
32.30
28.70
25.54
23.17
21.80
21.44
21.84
22.54
23.14
23.43
23.59
24.04
25.30
27.64
30.94
34.66
38.00
40.10
40.29
38.16
33.61
26.84
18.28
8.56
-1.67
-11.80
-21.40
-30.22
-38.08
-44.87
-50.39
-54.40
-56.70
-57.14
-55.71
-52.51
-47.80
-41.96
-35.50
-29.06
-23.29
-18.76
-15.80
-14.47
-14.56
-15.60
-16.93
-17.79
-17.45
-15.34
-11.30
-5.61
0.88
7.09
12.00
15.00
16.02
15.34
13.40
10.55
6.96
2.66
-2.18
-7.18
-11.73
-15.23
-17.61
-19.14
-20.43
-22.24
-25.19
-29.47
-34.69
-39.88
-43.91
-46.26
-46.68
-45.26
-42.45
-38.99
-35.66
-33.06
-31.47
-31.04
-32.55
-36.47
-42.91
-51.74
-62.76
-75.64
-89.75
-103.87
-116.38
-126.33
-132.30
-132.73
-126.47
-113.50
-95.04
-73.31
-50.78
-24.39
4.97
34.00
59.03
78.30
91.92
100.81
105.71
107.58
107.66
106.43
104.80
103.55
102.96
102.58
102.47
102.11
101.75
102.07
102.95
104.07
104.90
104.88
103.46
100.42
95.99
90.92
85.95
81.03
75.85
69.40
61.50
52.30
42.27
32.09
22.67
14.78
8.55
3.82
0.25
-2.40
-4.33
-5.63
-6.38
-6.63
-6.58
-6.67
-7.31
-8.76
-10.89
-13.40
-15.90
-18.06
-19.76
-21.14
-22.73
-25.23
-29.41
-35.78
-44.52
-55.36
-67.47
-79.60
-90.23
-97.81
-101.12
-99.50
-93.06
-82.72
-69.91
-56.24
-43.05
-31.21
-21.08
-12.78
-6.36
-1.99
0.05
-0.44
-3.39
-8.35
-14.51
-20.88
-26.51
-30.67
-32.97
-33.35
-31.98
-29.16
-25.25
-20.58
-15.53
-10.46
-5.72
-1.62
1.70
4.17
5.71
6.19
5.27
2.52
-2.41
-9.55
-18.49
-28.32
-37.79
-45.51
-50.25
-51.06
-47.47
-39.56
-28.04
-14.07
0.84
15.23
27.84
37.78
44.55
47.91
47.83
44.38
37.87
28.92
18.38
7.28
-3.38
-12.89
-20.84
-27.20
-32.15
-36.00
-39.05
-41.57
-43.77
-45.81
-47.78
-49.65
-51.33
-52.66
-53.54
-53.95
-53.98
-53.80
-53.58
-53.38
-53.17
-52.68
-51.42
-48.72
-43.78
-35.95
-24.96
-11.09
4.81
21.53
37.83
52.72
65.61
76.24
84.49
90.20
93.19
93.36
90.85
86.15
80.02
73.31
66.73
60.73
55.39
50.58
46.10
41.80
37.69
33.90
30.68
28.24
26.69
26.05
26.25
27.17
28.70
30.79
33.40
36.53
40.06
43.79
47.38
50.38
52.33
52.76
51.31
47.77
42.16
34.82
26.40
17.84
10.16
4.31
0.84
-0.16
0.90
3.28
6.13
8.70
10.48
11.20
10.81
9.36
7.00
3.94
0.47
-3.02
-6.08
-8.33
-9.54
-9.70
-8.98
-7.70
-6.19
-4.71
-3.41
-2.36
-1.60
-1.19
-1.22
-1.78
-2.97
-4.78
-7.14
-9.84
-12.61
-15.20
-17.48
-19.44
-21.26
-23.19
-25.48
-28.27
-31.53
-35.03
-38.40
-41.09
-42.51
-42.13
-39.55
-34.70
-27.85
-19.57
-10.64
-1.80
6.32
13.32
18.95
23.04
25.43
25.95
24.59
21.59
17.48
13.05
9.07
6.10
4.37
3.81
4.21
5.31
6.93
8.88
10.90
12.66
13.77
13.93
12.98
10.91
7.87
4.11
-0.10
-4.45
-8.68
-12.62
-16.17
-19.36
-22.26
-24.98
-27.67
-30.44
-33.34
-36.24
-38.75
-40.25
-40.06
-37.67
-33.00
-26.43
-18.76
-10.90
-3.64
2.49
7.25
10.63
12.73
13.75
13.91
13.50
12.82
12.10
11.45
10.88
10.27
9.49
8.48
7.26
5.97
4.76
3.77
2.97
2.28
1.51
0.51
-0.86
-2.69
-5.07
-8.01
-11.47
-15.29
-19.25
-23.18
-27.13
-31.32
-36.07
-41.43
-47.00
-51.85
-54.78
-54.75
-51.34
-44.93
-36.59
-27.77
-19.88
-14.04
-10.94
-10.76
-13.00
-16.51
-19.50
-20.05
-16.61
-8.64
3.16
17.07
30.90
42.71
51.21
55.92
56.83
54.19
48.32
39.81
29.73
19.78
12.04
8.34
9.66
15.70
24.94
35.18
44.35
51.08
55.00
56.43
56.03
54.36
51.68
48.07
43.56
38.28
32.47
26.33
20.04
13.70
7.46
1.60
-3.38
-6.92
-8.51
-7.95
-5.44
-1.60
2.68
6.55
9.33
10.70
10.64
9.37
7.13
4.17
0.67
-3.19
-7.18
-11.03
-14.46
-17.24
-19.29
-20.61
-21.27
-21.37
-20.95
-20.07
-18.79
-17.18
-15.36
-13.40
-11.39
-9.37
-7.48
-5.85
-4.67
-4.11
-4.24
-5.02
-6.37
-8.19
-10.44
-13.11
-16.21
-19.64
-23.23
-26.73
-29.89
-32.43
-34.04
-34.37
-33.04
-29.75
-24.50
-17.65
-9.93
-2.29
4.40
9.55
12.98
14.88
15.61
15.58
15.12
14.47
13.74
13.00
12.27
11.57
10.94
10.44
10.16
10.13
10.35
10.72
11.14
11.58
12.03
12.51
12.98
13.31
13.30
12.75
11.57
9.82
7.71
5.49
3.33
1.26
-0.86
-3.26
-6.12
-9.51
-13.30
-17.24
-21.06
-24.54
-27.54
-29.93
-31.55
-32.12
-31.35
-29.04
-25.19
-20.09
-14.22
-8.22
-2.62
2.16
5.91
8.56
10.05
10.37
9.51
7.59
4.90
1.90
-0.88
-3.00
-4.23
-4.59
-4.31
-3.69
-2.99
-2.42
-2.14
-2.24
-2.79
-3.80
-5.31
-7.28
-9.70
-12.53
-15.68
-18.95
-22.13
-25.10
-27.87
-30.69
-33.83
-37.45
-41.32
-44.82
-47.10
-47.36
-45.24
-40.91
-35.03
-28.45
-21.97
-16.10
-11.07
-6.99
-3.95
-2.10
-1.60
-2.48
-4.57
-7.46
-10.62
-13.55
-15.87
-17.38
-17.98
-17.74
-16.82
-15.56
-14.45
-14.06
-14.82
-16.93
-20.22
-24.18
-28.15
-31.52
-33.96
-35.45
-36.23
-36.61
-36.81
-36.83
-36.49
-35.54
-33.74
-31.05
-27.62
-23.81
-20.04
-16.76
-14.19
-12.31
-10.74
-8.78
-5.62
-0.55
6.82
16.41
27.74
40.04
52.47
64.30
74.93
83.96
91.21
96.69
100.57
103.18
104.78
105.57
105.62
104.93
103.57
101.77
99.96
98.68
98.40
99.43
101.82
105.35
109.65
114.24
118.62
122.33
125.00
126.40
126.40
124.96
122.06
117.66
111.70
104.10
94.84
83.91
71.37
57.25
41.60
24.46
5.93
-13.77
-34.21
-54.76
-74.57
-92.65
-108.05
-119.93
-127.81
-131.64
-131.76
-128.86
-123.75
-117.22
-109.90
-102.29
-94.74
-87.54
-80.94
-75.13
-70.14
-65.86
-61.97
-58.12
-53.96
-49.36
-44.40
-39.39
-34.66
-30.54
-27.22
-24.75
-23.18
-22.51
-22.82
-24.12
-26.37
-29.42
-33.02
-36.88
-40.66
-44.02
-46.59
-48.09
-48.37
-47.50
-45.78
-43.57
-41.11
-38.37
-35.00
-30.46
-24.34
-16.49
-7.22
2.72
12.31
20.50
26.48
29.94
31.21
31.27
31.50
33.17
37.05
43.04
50.04
56.28
59.77
59.10
54.11
46.18
38.05
32.91
33.18
39.48
50.20
62.03
71.27
75.08
72.45
63.96
51.05
34.85
15.69
-6.68
-32.20
-59.56
-86.00
-107.96
-122.30
-127.54
-124.29
-114.92
-102.44
-89.39
-77.13
-65.84
-55.03
-44.22
-33.34
-22.69
-12.64
-3.28
5.58
14.34
23.15
31.69
39.23
44.94
48.55
50.77
52.80
55.31
57.80
58.59
56.19
51.12
46.91
49.08
62.41
87.81
121.03
154.42
180.42
195.10
199.07
195.92
189.19
179.67
164.91
140.88
105.07
58.46
5.86
-46.16
-91.41
-125.73
-147.79
-158.98
-162.57
-161.85
-159.04
-153.99
-145.26
-131.00
-109.81
-81.37
-45.79
-6.06
32.77
65.50
89.67
104.73
110.95
108.95
100.03
86.23
69.64
53.83
37.94
21.46
4.16
-13.04
-28.11
-38.60
-43.01
-41.72
-36.45
-29.65
-21.36
-12.13
-2.33
7.73
17.35
25.17
29.40
28.61
22.31
11.91
-0.24
-11.06
-17.71
-18.51
-13.66
-5.21
4.05
11.82
17.72
23.00
29.84
39.88
52.93
66.80
78.14
84.09
83.35
76.64
65.73
52.50
38.18
23.09
6.93
-10.57
-29.14
-47.85
-65.16
-79.45
-89.50
-94.87
-96.07
-94.33
-91.02
-87.18
-83.19
-78.84
-73.82
-68.04
-61.95
-56.41
-52.34
-50.34
-50.46
-52.19
-54.70
-57.08
-58.68
-59.12
-58.23
-55.93
-52.04
-46.38
-38.83
-29.61
-19.32
-9.00
0.12
6.82
10.23
10.16
7.13
2.24
-3.17
-8.07
-12.05
-15.43
-19.03
-23.72
-29.94
-37.52
-45.78
-53.70
-59.91
-62.75
-60.53
-52.25
-38.47
-21.81
-6.47
3.35
5.34
0.23
-8.47
-16.26
-19.86
-18.71
-14.82
-11.29
-10.31
-11.93
-14.12
-13.93
-8.90
2.17
19.01
40.37
64.62
90.18
115.68
139.79
161.14
178.26
189.72
194.46
192.11
183.32
169.70
153.58
137.36
122.90
111.03
101.45
93.17
85.07
76.52
67.55
58.71
50.66
43.78
38.08
33.42
29.72
27.08
25.56
24.84
24.17
22.57
19.26
14.14
7.80
1.25
-4.60
-9.27
-12.73
-15.21
-16.90
-18.10
-19.34
-21.47
-25.59
-32.53
-42.14
-52.92
-61.94
-65.33
-59.16
-40.59
-9.13
32.56
78.48
120.42
150.14
161.94
154.79
132.75
103.54
75.60
55.24
44.94
43.45
47.44
53.56
59.69
64.89
68.67
70.20
68.64
64.19
58.91
56.46
60.74
73.78
94.52
119.05
142.26
160.00
170.28
173.18
169.56
159.84
143.55
119.85
88.60
51.01
9.42
-33.45
-75.23
-114.00
-148.46
-178.07
-203.36
-226.20
-249.56
-276.25
-307.53
-342.14
-376.61
-406.98
-430.88
-448.96
-464.35
-480.49
-498.41
-515.08
-523.88
-517.36
-491.05
-446.34
-391.29
-338.43
-300.17
-283.96
-288.95
-306.30
-322.83
-326.14
-309.16
-272.01
-220.76
-164.12
-109.72
-61.95
-21.80
11.67
39.78
63.58
83.68
100.55
114.74
126.86
137.46
146.82
154.43
159.55
161.98
161.99
159.81
155.02
146.46
132.56
111.93
83.40
47.76
9.20
-25.04
-46.97
-50.70
-34.66
-2.28
39.00
78.84
108.77
126.48
136.38
146.54
164.36
193.03
230.14
268.14
294.95
299.30
276.33
229.15
167.04
101.63
43.52
0.79
-12.19
10.63
56.84
102.22
128.32
131.88
121.11
106.15
92.80
81.85
68.50
46.18
13.33
-27.45
-69.76
-106.35
-133.11
-149.47
-157.88
-162.28
-165.10
-164.64
-156.76
-138.19
-109.48
-76.00
-43.82
-16.43
6.71
29.03
54.41
82.52
109.22
136.35
164.27
192.61
214.82
227.41
229.58
223.44
212.60
200.55
188.89
176.50
162.50
147.63
136.47
134.74
145.83
168.09
195.51
220.33
235.45
237.38
225.26
202.43
174.19
145.22
117.01
87.82
53.94
11.53
-40.68
-101.93
-166.39
-225.28
-271.32
-302.24
-320.24
-329.11
-332.20
-332.79
-337.48
-351.47
-375.58
-405.11
-430.92
-441.37
-425.31
-376.47
-280.59
-149.86
-20.14
71.27
109.73
105.47
80.37
55.07
43.16
46.06
57.60
72.08
87.95
106.98
130.96
160.41
190.18
216.20
235.74
246.63
250.50
252.37
256.91
264.15
268.46
262.00
240.02
203.87
160.37
120.22
93.28
82.71
83.03
83.46
74.33
52.46
21.04
-13.99
-47.13
-75.37
-98.27
-116.62
-130.73
-140.09
-143.94
-143.03
-140.28
-139.79
-145.32
-159.11
-181.15
-208.93
-237.68
-261.13
-273.33
-270.49
-252.46
-222.84
-187.99
-154.82
-128.82
-112.84
-106.11
-104.58
-102.17
-92.71
-72.31
-41.04
-3.05
35.07
67.02
89.68
104.48
116.88
134.06
162.22
204.57
260.29
324.65
390.02
447.31
487.64
504.06
493.16
455.57
395.66
320.15
236.49
151.41
69.97
-4.80
-71.05
-127.33
-172.28
-204.90
-225.64
-237.28
-244.83
-254.08
-269.13
-290.28
-313.60
-332.75
-341.94
-338.74
-324.75
-304.15
-281.11
-257.82
-234.09
-209.04
-182.53
-155.62
-129.51
-104.16
-77.94
-48.86
-16.13
18.92
53.45
84.63
111.19
133.66
153.32
170.33
182.98
188.61
185.77
175.65
161.99
149.55
141.97
140.67
144.34
149.76
153.32
152.67
146.94
136.34
122.04
105.85
90.57
78.60
71.22
68.47
70.21
75.65
83.04
90.16
95.10
97.85
98.97
98.78
97.04
94.74
92.84
91.21
88.91
84.61
78.42
70.60
60.60
47.12
30.97
13.35
-5.97
-28.65
-64.94
-116.33
-173.00
-218.54
-250.59
-270.91
-279.60
-276.73
-263.36
-240.98
-210.38
-171.81
-127.51
-81.67
-36.61
6.15
44.66
76.35
99.47
115.10
128.74
145.39
166.48
190.65
213.03
227.33
229.43
220.20
191.45
147.13
100.13
62.49
37.56
20.05
6.46
-7.49
-22.03
-35.86
-45.71
-50.94
-55.04
-60.81
-70.24
-83.54
-99.27
-115.72
-132.66
-148.52
-162.84
-176.30
-183.50
-179.45
-171.89
-164.72
-154.53
-140.21
-120.09
-93.77
-62.57
-28.54
5.95
39.92
74.82
110.88
146.29
179.73
208.89
229.10
234.41
220.70
195.77
163.80
130.85
102.85
83.98
74.30
70.33
66.59
60.06
50.11
37.05
20.36
-1.27
-27.81
-57.31
-85.81
-108.76
-124.24
-135.40
-142.24
-148.90
-160.16
-176.04
-191.39
-199.51
-196.47
-183.16
-164.15
-145.10
-131.13
-124.89
-125.82
-132.55
-142.66
-152.09
-155.79
-149.04
-129.13
-97.59
-61.13
-23.66
9.33
33.35
47.24
53.14
54.99
56.42
58.37
58.30
54.87
48.63
38.89
26.08
11.02
-5.62
-23.30
-41.89
-60.56
-76.98
-88.94
-94.78
-93.45
-85.21
-73.12
-60.68
-51.28
-46.66
-45.48
-44.31
-38.47
-23.37
3.57
42.18
89.38
139.75
187.36
227.86
259.13
281.57
297.73
310.99
324.56
339.46
353.42
361.73
359.59
343.64
313.16
270.43
219.97
168.19
120.78
80.95
49.54
26.22
9.72
-1.62
-9.45
-14.71
-16.23
-12.57
-3.54
9.40
24.24
37.97
46.79
46.54
26.16
-16.79
-72.47
-124.43
-160.50
-176.86
-177.08
-168.36
-158.38
-152.68
-152.11
-154.92
-158.65
-163.79
-167.60
-166.88
-158.69
-141.28
-114.63
-79.66
-39.13
2.50
40.28
70.34
90.74
102.39
107.78
110.01
112.53
117.03
122.36
125.12
120.71
106.94
85.86
62.38
41.04
23.84
9.08
-7.15
-28.60
-58.60
-96.29
-136.56
-173.36
-203.26
-226.25
-243.82
-257.12
-266.55
-275.40
-286.93
-302.39
-321.54
-342.99
-363.52
-377.50
-378.83
-344.49
-269.70
-172.07
-78.39
-7.27
36.64
57.50
62.27
57.47
49.07
38.48
27.96
23.59
30.41
48.99
75.82
107.14
141.91
177.72
212.55
245.38
278.58
312.76
345.04
370.45
385.19
387.91
378.77
357.44
306.37
222.34
116.58
8.29
-86.29
-158.23
-205.48
-234.11
-249.72
-256.99
-256.39
-248.32
-232.24
-209.82
-182.26
-149.95
-113.38
-73.91
-34.83
1.76
33.44
58.17
75.04
85.08
90.26
91.95
90.70
85.96
78.68
70.39
62.80
57.04
53.60
51.81
50.10
47.03
41.77
35.25
28.80
23.19
18.05
12.72
7.28
3.20
3.13
9.03
20.48
33.31
40.43
34.56
11.53
-27.69
-77.45
-129.72
-177.14
-214.95
-241.42
-256.69
-261.54
-256.54
-242.26
-219.83
-191.57
-160.74
-130.74
-104.03
-81.58
-62.78
-46.22
-30.60
-15.62
-2.08
8.58
15.19
17.54
16.64
14.27
12.20
11.51
12.30
14.10
16.41
19.48
24.47
33.31
47.97
69.56
97.64
129.88
162.49
191.14
212.12
223.33
224.64
217.68
205.00
189.25
172.34
155.09
137.29
118.16
96.95
73.47
48.40
23.27
0.06
-19.30
-33.43
-41.71
-44.35
-42.09
-35.82
-26.12
-13.08
3.65
24.43
49.13
76.79
105.60
133.22
157.41
176.64
190.31
198.77
203.05
204.46
204.23
203.17
201.44
198.65
194.16
187.48
178.66
168.39
157.68
147.37
137.78
128.70
119.72
110.57
101.31
92.26
83.66
75.36
66.74
56.95
45.24
31.25
15.00
-3.35
-23.76
-46.36
-71.22
-97.90
-125.10
-150.76
-172.73
-189.61
-201.30
-209.00
-214.54
-219.49
-224.48
-229.01
-231.76
-231.02
-225.20
-213.17
-194.55
-169.92
-140.92
-110.03
-80.04
-53.33
-31.27
-14.02
-0.82
9.49
17.91
25.04
31.07
35.93
39.46
41.56
42.12
41.07
38.37
34.04
28.26
21.31
13.46
4.87
-4.41
-14.43
-25.08
-36.01
-46.59
-56.10
-63.99
-70.12
-74.60
-77.76
-79.92
-81.12
-80.98
-78.99
-74.89
-68.87
-61.63
-54.04
-47.13
-41.88
-39.10
-39.19
-42.20
-47.90
-55.82
-65.14
-74.62
-83.10
-89.82
-94.65
-97.58
-98.84
-98.78
-97.71
-95.58
-91.35
-84.10
-73.47
-59.81
-42.75
-21.79
3.19
31.64
62.42
95.35
129.33
162.15
190.55
213.58
231.38
244.34
252.79
257.35
261.25
266.86
274.56
282.01
289.03
295.70
301.34
304.58
304.25
302.88
302.28
302.32
299.96
295.35
289.04
280.24
266.69
228.20
159.39
72.14
-4.16
-66.67
-118.25
-160.97
-194.73
-220.64
-241.38
-257.50
-270.48
-282.30
-295.27
-306.02
-309.64
-303.22
-287.32
-265.20
-238.93
-211.34
-185.91
-167.01
-155.29
-150.00
-150.43
-156.03
-165.72
-176.23
-184.55
-189.32
-191.75
-192.83
-194.17
-197.83
-205.30
-216.38
-228.21
-237.11
-240.12
-236.20
-225.09
-207.42
-184.30
-156.85
-126.07
-92.99
-59.42
-27.93
-1.28
18.91
32.46
40.16
43.16
42.28
37.98
30.69
21.32
11.59
3.64
-0.60
0.02
5.60
15.57
29.16
45.92
65.78
88.77
114.46
141.74
168.98
194.61
217.82
238.91
258.95
279.02
299.25
318.43
334.24
344.10
346.16
339.87
325.98
305.97
281.43
253.67
223.83
193.08
162.90
134.99
111.00
92.12
78.80
70.67
66.87
66.40
68.58
73.09
79.75
87.96
96.27
102.31
103.42
97.69
84.92
66.89
46.86
28.31
13.68
3.62
-2.91
-7.89
-13.28
-20.32
-29.40
-40.36
-52.99
-67.37
-83.90
-102.93
-124.25
-146.70
-168.28
-186.55
-199.37
-205.49
-204.77
-198.18
-187.59
-175.37
-164.17
-156.54
-154.45
-158.86
-169.34
-184.00
-199.84
-213.25
-220.74
-219.68
-209.01
-189.63
-164.32
-137.10
-112.04
-92.00
-77.85
-68.46
-61.52
-54.65
-46.25
-35.84
-23.76
-10.82
2.06
13.97
24.05
31.56
36.08
37.58
36.52
33.74
30.31
27.35
25.90
26.82
30.57
37.09
45.66
55.01
63.59
70.04
73.49
73.79
71.54
67.81
63.86
60.81
59.38
59.88
62.17
65.75
69.88
73.70
76.27
76.77
74.44
68.76
59.50
46.90
31.75
15.28
-1.09
-16.11
-29.00
-39.64
-48.43
-55.98
-62.76
-68.84
-73.84
-77.20
-78.49
-77.67
-75.23
-71.94
-68.61
-65.73
-63.39
-61.36
-59.34
-57.20
-55.04
-53.12
-51.67
-50.74
-50.22
-49.89
-49.53
-48.92
-47.82
-45.92
-42.90
-38.54
-32.90
-26.32
-19.37
-12.63
-6.58
-1.44
2.80
6.22
8.98
11.27
13.37
15.65
18.49
22.13
26.50
31.27
35.87
39.81
42.90
45.30
47.45
49.79
52.62
55.97
59.65
63.32
66.68
69.52
71.79
73.55
74.90
75.85
76.28
75.93
74.55
72.08
68.64
64.46
59.65
54.10
47.65
40.37
32.76
25.60
19.44
14.09
8.43
0.85
-10.01
-24.54
-41.87
-60.16
-77.36
-91.83
-102.88
-110.68
-116.08
-120.18
-124.16
-128.86
-134.45
-140.08
-143.82
-143.07
-135.41
-119.54
-95.97
-67.02
-36.07
-6.52
19.22
40.12
56.19
67.91
75.55
79.11
78.49
73.94
66.18
56.28
45.27
33.80
22.10
10.16
-1.91
-13.62
-24.08
-32.29
-37.47
-39.33
-38.07
-34.21
-28.27
-20.63
-11.54
-1.42
8.91
18.26
25.29
28.97
28.97
25.72
20.23
13.76
7.49
2.35
-0.99
-2.17
-1.23
1.39
4.86
8.21
10.71
12.14
12.96
14.11
16.62
21.20
27.97
36.45
45.74
54.77
62.55
68.27
71.51
72.21
70.73
67.66
63.70
59.45
55.26
51.28
47.45
43.70
39.99
36.33
32.71
29.06
25.34
21.60
18.04
15.03
12.91
11.82
11.57
11.62
11.19
9.53
6.19
1.19
-4.94
-11.40
-17.35
-22.26
-25.98
-28.75
-30.93
-32.85
-34.50
-35.54
-35.27
-32.94
-27.99
-20.34
-10.57
0.17
10.47
19.05
25.13
28.49
29.28
27.79
24.18
18.51
10.93
1.86
-7.91
-17.45
-25.92
-32.99
-38.82
-44.02
-49.27
-55.09
-61.67
-68.93
-76.72
-84.94
-93.65
-102.91
-112.65
-122.45
-131.66
-139.50
-145.37
-148.96
-150.22
-149.06
-145.22
-138.16
-127.38
-112.67
-94.40
-73.35
-50.44
-26.40
-1.67
23.27
47.57
69.71
87.72
99.61
104.04
100.85
91.08
76.70
60.07
43.50
28.99
18.15
12.19
11.79
16.96
26.95
40.48
56.17
73.13
91.37
111.76
135.49
163.31
194.86
228.43
261.34
290.65
313.92
329.63
337.34
337.44
331.01
319.66
305.33
290.09
275.69
263.01
251.79
240.71
228.04
212.43
193.52
171.98
149.06
125.94
103.27
81.19
59.59
38.50
18.19
-0.94
-18.53
-34.42
-48.61
-61.09
-71.84
-80.82
-88.04
-93.67
-97.90
-100.87
-102.65
-103.32
-103.06
-102.23
-101.30
-100.67
-100.56
-101.04
-102.19
-104.26
-107.70
-112.98
-120.35
-129.73
-140.74
-152.90
-165.77
-178.91
-191.81
-203.77
-213.99
-221.77
-226.69
-228.74
-228.27
-225.83
-222.04
-217.42
-212.23
-206.29
-198.93
-189.05
-175.48
-157.36
-134.53
-107.56
-77.61
-46.11
-14.51
15.91
44.06
69.14
90.65
108.50
122.84
133.83
141.42
145.27
144.99
140.40
131.81
119.97
105.77
89.94
72.90
54.75
35.60
15.68
-4.47
-24.12
-42.38
-58.27
-70.73
-78.82
-82.00
-80.41
-74.95
-67.05
-58.21
-49.61
-41.94
-35.49
-30.29
-26.30
-23.30
-20.78
-18.00
-14.27
-9.25
-3.20
3.08
8.55
12.27
13.56
12.01
7.41
-0.03
-9.37
-18.72
-25.40
-26.70
-20.73
-7.25
12.22
35.03
58.38
80.17
99.37
115.67
128.99
139.18
146.06
149.79
151.17
151.50
151.89
152.57
152.58
150.17
143.79
133.06
119.22
104.56
91.30
80.37
71.00
61.12
48.45
31.53
10.32
-14.06
-39.96
-65.85
-90.63
-113.64
-134.40
-152.52
-167.58
-179.37
-187.91
-193.50
-196.66
-197.95
-197.91
-197.00
-195.70
-194.60
-194.26
-195.16
-197.43
-200.64
-203.90
-206.18
-206.82
-205.79
-203.62
-200.68
-196.59
-189.81
-177.80
-157.85
-128.32
-89.54
-43.93
4.38
50.82
91.40
123.39
145.91
160.08
168.51
174.38
180.66
188.57
197.52
204.96
207.05
200.48
184.20
160.28
133.45
110.19
95.58
92.02
97.87
107.68
114.54
112.89
100.24
77.32
47.36
13.01
-21.67
-50.70
-69.82
-78.55
-78.03
-68.60
-53.85
-33.69
-10.92
9.90
24.52
30.60
29.46
24.44
20.04
20.56
29.65
47.04
68.65
87.92
98.55
97.48
87.58
72.28
55.10
39.11
25.34
13.51
3.74
-3.88
-9.22
-12.24
-13.29
-12.94
-11.59
-10.00
-8.55
-7.02
-5.13
-2.79
-0.24
1.82
2.76
2.25
-0.20
-5.06
-12.32
-21.42
-31.01
-39.38
-45.36
-49.04
-51.83
-55.90
-62.95
-72.91
-83.78
-92.29
-95.52
-92.18
-82.97
-69.70
-54.27
-38.18
-22.31
-7.32
6.17
17.31
25.41
30.19
32.24
32.47
30.86
26.18
16.60
1.18
-19.21
-41.64
-62.05
-76.34
-81.57
-77.61
-66.74
-52.49
-38.26
-26.93
-18.83
-15.68
-18.66
-26.20
-35.59
-44.42
-52.89
-60.88
-68.39
-75.88
-83.28
-90.15
-92.87
-89.15
-78.60
-62.35
-42.68
-22.09
-3.10
13.89
29.94
48.73
72.68
101.54
133.38
165.37
195.26
221.22
244.05
252.03
238.01
202.76
155.12
106.98
65.83
39.81
23.65
13.08
5.74
3.34
8.20
17.83
31.53
47.18
61.52
70.27
72.03
67.55
61.24
57.52
59.36
70.38
91.71
121.83
156.21
190.48
219.79
240.99
251.26
237.13
195.64
137.02
79.00
34.11
6.94
-8.76
-17.45
-22.23
-25.99
-28.50
-31.41
-37.63
-49.95
-68.38
-90.43
-111.63
-128.30
-138.14
-138.56
-129.29
-113.09
-95.59
-83.08
-80.47
-89.00
-106.43
-127.71
-146.33
-158.56
-164.92
-169.08
-174.92
-184.34
-196.46
-209.15
-219.76
-226.29
-228.43
-227.14
-223.81
-219.45
-214.72
-210.01
-205.86
-201.32
-195.22
-186.88
-176.34
-163.57
-148.32
-130.15
-108.87
-84.89
-57.10
-25.25
9.46
44.82
79.34
112.90
146.69
182.06
219.27
259.68
302.27
343.16
376.69
398.61
407.07
402.28
384.85
339.34
260.56
157.46
49.14
-46.81
-119.27
-166.55
-192.10
-199.65
-194.24
-179.21
-158.69
-135.04
-113.13
-95.92
-83.51
-73.70
-63.82
-52.34
-36.71
-16.16
7.72
31.31
51.49
66.31
75.16
78.15
75.65
70.49
65.46
62.19
60.63
60.28
60.36
59.94
57.90
53.28
47.67
43.11
41.02
41.77
45.24
51.04
58.40
66.21
73.34
80.86
89.95
100.82
112.65
124.01
133.48
139.61
141.17
128.43
97.81
53.78
6.13
-36.86
-71.86
-99.02
-119.79
-135.30
-145.86
-149.78
-146.03
-136.83
-123.92
-109.82
-96.80
-87.13
-82.64
-84.55
-92.04
-103.45
-116.56
-128.04
-134.04
-128.66
-108.43
-73.16
-25.81
29.33
87.06
141.85
188.60
222.33
238.87
234.77
209.33
165.55
110.10
50.64
-6.99
-59.60
-106.47
-143.51
-165.78
-169.92
-155.96
-127.26
-89.78
-50.81
-16.64
10.46
30.09
42.22
47.31
46.48
41.54
34.88
26.88
19.57
12.64
7.13
3.48
1.38
0.08
-0.69
-0.25
2.83
10.32
22.54
38.66
55.74
69.82
77.36
76.53
67.65
53.02
38.15
25.04
15.55
10.15
7.88
6.95
5.79
3.75
1.37
0.28
1.47
5.37
10.88
15.92
18.52
17.77
14.11
8.00
0.99
-5.56
-10.19
-11.79
-9.34
-1.94
10.93
28.84
50.06
71.86
90.73
103.68
108.77
105.47
94.71
78.66
60.11
41.96
26.59
15.04
7.10
1.46
-3.66
-9.82
-18.01
-28.58
-41.38
-55.89
-71.35
-86.70
-100.65
-111.93
-119.66
-123.39
-123.03
-118.57
-109.79
-96.52
-78.92
-57.77
-34.52
-10.95
11.23
30.76
47.03
60.08
70.50
79.12
86.66
93.35
98.76
101.94
102.00
98.66
92.64
85.44
78.82
74.10
71.83
71.68
72.73
73.79
73.63
71.35
66.48
59.10
49.76
39.14
27.89
16.37
4.70
-7.03
-18.63
-29.78
-40.10
-49.22
-56.72
-62.19
-65.32
-66.19
-65.48
-64.33
-63.80
-64.22
-64.89
-64.42
-61.71
-56.83
-51.29
-47.54
-47.94
-53.79
-65.14
-80.98
-99.98
-120.83
-142.43
-163.76
-183.88
-202.10
-218.09
-231.67
-242.28
-248.49
-248.06
-238.66
-218.95
-189.39
-152.27
-110.87
-68.44
-27.43
10.62
44.75
74.31
98.90
118.64
134.27
146.85
157.18
165.20
169.84
169.45
162.55
148.48
127.64
101.40
71.66
40.45
9.57
-19.54
-45.84
-68.61
-87.24
-101.10
-109.48
-111.74
-107.59
-97.34
-82.03
-63.27
-42.99
-23.04
-4.88
10.69
23.59
34.29
43.44
51.47
58.40
63.87
67.44
68.87
68.22
65.73
61.56
55.71
48.27
39.72
31.15
24.00
19.53
18.20
19.46
22.04
24.61
26.26
26.75
26.35
25.46
24.46
23.63
23.28
23.72
25.00
26.70
27.76
26.72
22.34
14.11
2.52
-11.12
-25.34
-39.10
-52.04
-64.29
-75.89
-86.32
-94.28
-97.96
-95.45
-85.18
-66.30
-38.89
-4.14
35.51
76.21
113.22
141.72
158.23
161.58
153.25
136.72
116.21
95.41
76.68
61.02
48.54
39.14
32.61
28.39
25.21
21.29
14.92
5.17
-7.68
-22.18
-35.99
-46.91
-54.11
-58.39
-61.89
-66.77
-74.62
-85.96
-100.18
-115.15
-128.03
-136.82
-141.27
-142.92
-143.59
-144.80
-146.94
-148.97
-147.52
-138.49
-119.41
-90.59
-55.22
-17.30
18.04
45.29
59.63
60.21
51.17
40.15
35.97
45.29
71.38
111.57
159.64
199.74
216.39
206.65
179.85
150.96
123.86
97.78
70.44
39.93
7.10
-24.78
-51.40
-70.05
-80.16
-83.61
-81.11
-72.41
-57.02
-35.68
-10.25
16.54
40.19
55.62
57.61
44.95
21.35
-5.11
-26.79
-39.70
-42.80
-40.85
-35.27
-28.20
-21.34
-15.87
-12.52
-9.30
-5.10
2.16
14.90
35.27
64.19
97.88
128.88
149.92
157.07
150.21
132.76
109.86
87.90
68.25
51.63
38.68
29.81
24.74
22.02
19.58
16.80
12.42
4.85
-6.49
-20.83
-36.29
-50.51
-61.53
-67.90
-69.05
-65.65
-59.73
-53.61
-49.32
-47.97
-49.58
-53.27
-57.39
-60.09
-60.03
-56.77
-50.47
-41.76
-31.67
-21.47
-12.55
-6.01
-2.32
-1.26
-2.15
-3.49
-3.44
-0.56
5.53
13.87
22.58
29.64
33.65
33.51
29.58
23.39
16.71
10.59
5.00
-0.77
-7.28
-14.43
-22.83
-32.26
-41.86
-50.84
-59.09
-67.12
-75.44
-83.67
-90.69
-96.89
-102.20
-106.04
-107.79
-107.58
-106.57
-106.64
-109.68
-108.52
-100.71
-87.72
-72.39
-55.04
-33.34
-5.26
28.48
63.37
97.09
124.78
142.66
149.63
147.08
137.78
124.93
108.77
91.91
77.42
66.21
58.58
54.22
52.07
50.14
46.22
38.92
28.96
18.44
8.95
1.95
-1.67
-1.93
0.31
4.00
8.52
14.38
22.40
32.54
44.44
57.43
70.69
83.32
94.27
102.42
106.74
106.20
100.00
88.45
73.39
57.97
45.76
39.55
40.21
46.31
54.36
59.94
59.30
50.43
33.42
9.88
-17.92
-47.76
-77.61
-105.54
-129.76
-149.15
-164.16
-177.00
-190.88
-207.98
-227.33
-244.24
-251.82
-244.34
-220.38
-184.05
-143.47
-107.41
-81.89
-68.53
-65.28
-68.50
-75.08
-83.32
-92.62
-102.56
-112.41
-121.15
-127.99
-132.77
-135.83
-137.75
-139.00
-139.79
-140.13
-139.82
-138.60
-136.16
-132.33
-127.15
-121.08
-114.85
-109.24
-104.77
-101.41
-98.58
-95.49
-91.46
-86.25
-79.97
-72.90
-65.14
-56.46
-46.40
-34.32
-19.67
-2.05
18.59
41.92
67.11
92.94
118.04
140.90
160.21
175.09
185.45
191.85
195.30
196.86
197.37
197.52
197.81
198.56
200.16
203.00
207.36
213.04
219.28
224.88
228.98
230.93
230.41
227.59
223.17
218.26
213.87
210.64
208.54
207.92
208.31
208.38
206.69
202.63
196.71
190.13
184.30
180.45
181.63
189.69
204.06
221.98
239.73
253.62
260.66
259.33
249.97
237.81
227.31
219.18
210.57
197.77
178.38
152.15
120.78
87.03
57.78
37.42
25.41
18.23
13.38
11.16
13.83
23.63
14.35
-26.53
-93.47
-170.62
-246.14
-315.12
-374.55
-420.49
-449.02
-458.64
-450.07
-425.53
-390.96
-353.97
-320.10
-291.38
-267.35
-246.69
-228.25
-208.21
-184.51
-158.51
-133.41
-111.53
-92.93
-75.95
-58.45
-39.14
-16.40
9.32
34.97
57.00
73.97
87.29
100.08
114.31
128.68
139.46
141.33
129.48
101.69
59.60
8.51
-43.59
-88.50
-119.72
-132.90
-126.22
-101.21
-63.67
-23.21
9.55
27.62
29.89
21.13
9.78
4.92
12.11
30.35
52.58
70.41
80.25
84.98
91.24
104.98
128.24
157.51
184.12
197.23
177.62
116.99
29.24
-56.16
-115.35
-142.01
-144.20
-135.62
-130.89
-131.68
-131.90
-123.67
-103.35
-74.49
-45.47
-23.94
-12.25
-8.92
-8.59
-4.30
9.11
31.60
56.60
73.88
75.54
59.13
27.39
-13.48
-55.77
-92.43
-116.73
-124.85
-120.22
-111.74
-107.68
-113.98
-127.86
-143.98
-158.00
-167.97
-172.23
-172.51
-169.30
-160.09
-140.65
-109.05
-65.20
-10.90
51.39
117.37
177.46
221.02
242.38
257.39
274.88
297.03
312.44
312.27
289.45
240.24
167.09
78.68
-12.54
-95.51
-160.00
-198.57
-207.01
-187.26
-146.89
-95.79
-43.22
3.95
40.12
63.20
73.72
74.61
68.73
58.53
46.47
34.76
24.55
14.46
2.71
-11.98
-29.35
-48.50
-68.26
-87.13
-103.13
-113.95
-117.83
-113.63
-101.96
-85.42
-68.43
-55.34
-48.24
-46.04
-45.32
-42.72
-36.76
-28.53
-20.48
-14.46
-10.16
-5.07
4.00
19.00
39.50
63.11
86.74
107.99
125.83
140.29
151.82
160.66
166.69
169.54
168.70
163.44
152.82
135.94
112.34
82.56
48.43
12.88
-20.68
-49.13
-70.22
-82.89
-87.31
-85.05
-78.87
-72.20
-68.24
-68.95
-74.55
-83.73
-94.48
-105.27
-115.88
-127.47
-141.65
-159.34
-179.91
-201.18
-219.88
-232.05
-234.04
-223.48
-200.21
-166.40
-126.11
-84.32
-45.61
-12.95
14.01
38.25
63.33
90.85
119.51
145.88
166.25
178.15
181.47
179.50
177.10
178.19
183.36
189.73
192.67
187.77
171.95
144.52
109.31
73.62
46.06
33.61
40.27
67.31
113.43
174.34
232.53
266.56
260.93
216.51
147.72
71.47
0.05
-59.91
-106.45
-140.16
-160.65
-166.59
-157.22
-134.81
-104.97
-75.12
-50.49
-34.41
-27.70
-27.50
-28.97
-27.65
-21.85
-13.07
-4.53
0.83
0.74
-5.70
-17.05
-30.33
-42.53
-51.52
-57.01
-59.96
-61.28
-62.22
-64.01
-66.96
-70.49
-73.73
-76.14
-78.05
-80.26
-82.66
-85.19
-88.03
-91.06
-93.49
-93.73
-89.20
-77.22
-55.65
-22.86
19.68
66.83
111.53
147.49
171.10
182.69
184.63
174.36
153.27
126.39
99.28
75.53
57.51
44.47
36.70
33.47
32.97
34.34
35.84
34.66
28.82
18.31
4.94
-7.85
-18.53
-27.11
-33.80
-39.58
-46.37
-55.15
-65.44
-76.01
-84.93
-92.83
-101.30
-110.91
-114.29
-106.14
-85.56
-56.40
-30.48
-8.98
7.85
19.07
25.50
26.01
18.56
2.22
-21.41
-48.34
-72.69
-90.95
-101.61
-104.79
-102.17
-96.71
-91.23
-86.98
-83.66
-79.68
-75.21
-71.16
-68.72
-69.07
-72.97
-80.26
-88.61
-94.10
-92.28
-81.09
-60.09
-30.01
7.96
54.42
105.45
154.28
194.37
221.83
234.56
232.74
218.54
195.77
169.36
143.29
120.48
102.13
89.40
79.12
68.75
57.01
43.48
28.81
13.40
-2.00
-16.52
-28.47
-36.75
-40.80
-40.98
-40.18
-40.25
-43.27
-50.47
-61.70
-75.44
-89.86
-103.10
-111.74
-114.42
-111.23
-103.91
-94.76
-85.63
-77.55
-70.93
-65.41
-60.49
-56.21
-52.61
-49.86
-47.71
-45.42
-41.97
-36.73
-29.43
-20.29
-9.97
1.16
12.94
25.43
38.71
52.79
67.54
83.09
99.95
118.79
140.38
165.00
192.19
220.61
248.14
272.21
290.13
299.49
298.34
285.55
260.90
225.12
179.90
127.87
72.49
17.72
-32.51
-75.13
-108.44
-132.23
-147.17
-153.87
-152.40
-142.48
-124.43
-100.07
-72.85
-46.86
-25.40
-9.88
0.20
6.13
8.71
7.67
2.08
-8.39
-22.58
-37.90
-51.28
-60.55
-65.24
-66.49
-66.13
-65.65
-65.59
-65.58
-64.84
-62.85
-59.72
-56.19
-53.24
-51.65
-51.70
-53.05
-55.03
-56.94
-58.43
-59.58
-60.74
-62.25
-64.20
-66.29
-68.02
-68.89
-68.64
-67.32
-65.17
-62.40
-59.05
-54.97
-49.97
-43.95
-37.00
-29.35
-21.27
-12.89
-4.23
4.77
14.01
23.16
31.69
39.04
44.86
49.18
52.36
54.90
57.09
58.85
59.74
59.16
56.67
52.23
46.20
39.14
31.57
23.80
15.96
8.12
0.43
-6.87
-13.48
-19.26
-24.29
-28.91
-33.50
-38.42
-43.73
-49.20
-54.20
-57.92
-59.50
-58.40
-54.65
-48.96
-42.49
-36.35
-31.19
-27.04
-23.55
-20.52
-18.30
-17.76
-19.84
-24.94
-32.60
-41.51
-49.87
-55.76
-57.26
-52.60
-40.30
-19.63
9.00
43.80
81.92
120.17
155.73
186.50
210.94
227.69
235.34
232.73
219.51
196.69
166.70
132.82
98.34
65.75
36.52
11.17
-10.27
-27.79
-41.35
-50.90
-56.62
-59.07
-59.13
-57.82
-56.02
-54.35
-53.06
-52.12
-51.34
-50.42
-49.06
-46.95
-43.81
-39.41
-33.67
-26.75
-19.00
-10.92
-3.08
4.02
9.96
14.55
17.76
19.66
20.31
19.81
18.26
15.73
12.32
8.12
3.30
-1.73
-6.44
-10.25
-12.80
-14.19
-15.17
-16.91
-20.58
-26.63
-34.53
-42.96
-50.48
-55.88
-58.52
-58.54
-56.47
-53.20
-49.27
-44.90
-40.13
-35.52
-31.56
-28.72
-27.46
-27.77
-29.76
-32.94
-36.68
-40.63
-45.56
-52.39
-61.56
-72.75
-83.87
-92.43
-95.36
-90.45
-76.99
-56.27
-29.87
1.48
37.87
80.32
124.88
164.39
191.80
211.14
224.76
233.55
238.32
233.77
218.34
191.72
155.66
112.51
60.91
4.41
-50.10
-96.23
-131.48
-155.20
-172.18
-183.23
-187.97
-186.68
-181.31
-175.16
-168.76
-163.99
-160.88
-158.59
-155.06
-148.79
-139.13
-126.37
-111.59
-96.23
-82.12
-69.81
-59.05
-48.19
-35.27
-18.55
2.77
27.77
53.93
77.72
96.62
109.66
117.87
123.46
129.30
138.31
152.71
173.64
200.62
231.78
263.60
291.49
310.52
316.78
308.75
287.65
257.02
221.43
185.23
151.38
121.15
94.25
69.59
46.02
22.76
-0.42
-23.46
-46.08
-68.02
-89.00
-108.69
-126.67
-142.42
-155.48
-165.66
-173.19
-178.74
-183.19
-187.26
-191.10
-194.21
-195.52
-193.91
-188.87
-180.83
-171.12
-161.39
-152.66
-144.57
-135.30
-122.08
-102.43
-75.27
-41.56
-4.06
33.51
67.65
95.89
116.99
130.78
137.62
138.20
133.47
124.80
114.11
103.66
95.48
90.75
89.31
89.66
89.61
87.17
81.41
72.77
62.68
52.77
44.03
36.52
29.52
22.15
13.97
5.20
-3.23
-10.06
-14.06
-14.49
-11.37
-5.57
1.55
8.70
15.14
20.89
26.33
31.56
35.97
38.27
37.21
32.44
24.82
16.11
7.73
-0.14
-8.74
-19.96
-34.92
-52.99
-71.68
-87.62
-97.87
-101.10
-97.72
-89.40
-78.22
-66.02
-54.10
-43.22
-33.92
-26.66
-21.92
-19.95
-20.50
-22.94
-26.35
-29.74
-32.36
-33.96
-35.01
-36.50
-39.34
-43.51
-48.30
-52.65
-55.63
-56.73
-55.94
-53.63
-50.55
-47.20
-43.11
-37.85
-31.33
-23.80
-15.43
-6.07
4.56
16.05
27.91
40.45
53.48
66.23
77.72
87.69
96.88
106.35
116.11
125.85
136.11
146.66
156.58
164.67
170.50
174.87
179.01
183.42
180.08
165.80
143.61
120.69
102.02
87.19
72.58
58.01
39.55
16.16
-9.66
-35.32
-60.06
-85.52
-112.85
-141.30
-165.65
-180.43
-181.43
-167.40
-140.99
-107.00
-70.43
-37.94
-9.41
15.29
34.91
48.54
56.77
61.16
64.05
67.72
73.69
82.51
92.38
99.67
101.14
95.11
81.42
60.98
35.06
5.01
-27.19
-59.31
-88.48
-111.14
-124.25
-126.99
-121.59
-112.74
-105.62
-103.42
-106.49
-112.62
-118.48
-121.92
-123.12
-124.42
-128.61
-137.20
-149.27
-162.04
-172.14
-177.22
-176.97
-172.85
-166.90
-160.18
-152.34
-142.26
-129.22
-113.40
-95.65
-76.64
-55.71
-30.99
-0.08
37.47
78.33
115.43
140.39
147.17
134.57
107.39
74.34
45.66
28.92
26.30
34.50
47.10
57.96
63.37
63.58
61.32
61.26
67.32
81.00
101.25
125.58
151.64
177.22
201.18
214.64
210.09
186.52
151.05
113.66
81.12
58.72
43.71
33.70
26.94
23.37
23.25
24.83
26.30
25.94
22.99
17.31
10.12
2.80
-2.66
-4.68
-3.04
1.05
5.32
7.70
6.57
1.76
-6.46
-17.26
-30.02
-44.49
-60.32
-76.63
-91.79
-104.33
-113.31
-118.97
-121.84
-121.89
-118.06
-108.67
-92.76
-71.23
-47.23
-24.92
-8.07
1.48
4.04
1.18
-5.48
-14.99
-27.00
-41.13
-56.39
-71.24
-84.03
-93.66
-99.92
-103.33
-104.83
-105.27
-105.10
-104.34
-102.69
-99.74
-95.25
-89.31
-82.38
-75.12
-68.06
-61.25
-54.12
-45.68
-34.89
-21.12
-4.52
14.00
32.94
50.55
65.14
75.50
81.07
82.20
80.09
76.58
73.63
72.84
75.06
80.32
88.04
97.34
107.34
117.19
125.97
132.63
136.11
135.53
130.58
121.71
110.10
97.38
85.14
74.51
65.93
59.15
53.60
48.80
44.56
41.03
38.44
36.84
36.02
35.52
34.88
33.83
32.37
30.79
29.49
28.87
29.18
30.47
32.57
35.19
38.00
40.77
43.40
45.94
48.59
51.64
55.45
60.36
66.63
74.32
83.27
93.18
103.74
114.77
126.16
137.86
149.74
161.59
173.12
184.03
193.88
201.89
206.88
207.24
201.44
188.59
169.01
144.21
116.53
88.29
61.14
35.73
11.99
-10.29
-30.97
-49.43
-64.87
-76.80
-85.31
-91.13
-95.22
-98.41
-101.17
-103.68
-105.90
-107.88
-109.80
-111.96
-114.70
-118.25
-122.55
-127.25
-131.69
-135.22
-137.73
-139.62
-141.74
-145.12
-150.55
-158.13
-166.96
-175.14
-180.24
-179.98
-172.41
-156.29
-131.47
-99.27
-62.36
-24.20
12.00
43.95
70.16
90.47
105.61
116.37
123.09
