1698937765.00
64.000000
-0.00
-0.00
-0.00
-0.00
-0.00
-0.00
-0.00
-0.00
-0.00
-0.00
0.00
0.01
0.01
-0.00
-0.03
-0.05
-0.05
0.00
0.13
0.36
0.66
1.01
1.37
1.72
2.06
2.40
2.79
3.24
3.80
4.42
5.06
5.66
6.20
6.68
7.15
7.68
8.31
9.14
10.09
11.04
11.88
12.56
13.14
13.76
14.65
15.96
17.91
20.32
22.90
25.38
27.58
29.57
31.68
34.32
37.81
42.54
48.15
54.10
59.83
64.97
69.58
74.14
79.34
85.71
93.76
103.00
112.62
121.73
129.77
136.75
143.30
150.75
157.77
166.64
177.95
191.79
206.97
220.57
228.25
225.36
208.53
176.87
132.76
80.05
23.07
-34.94
-92.44
-149.16
-205.23
-260.37
-313.74
-363.87
-409.83
-450.91
-486.50
-515.74
-537.23
-549.22
-549.96
-538.37
-514.21
-478.67
-433.88
-382.45
-327.02
-269.84
-212.63
-156.66
-102.95
-52.37
-5.90
35.58
71.43
101.35
125.50
144.38
158.69
169.15
176.37
180.75
182.57
182.07
179.51
175.23
169.65
163.18
156.15
148.81
141.30
133.69
126.02
118.33
110.69
103.16
95.80
88.68
81.83
75.25
68.95
62.95
57.25
51.86
46.78
42.03
37.59
33.45
29.61
26.07
22.81
19.83
17.11
14.67
12.48
10.54
8.83
7.35
6.07
4.97
4.05
3.27
2.62
2.09
1.65
1.30
1.01
0.79
0.61
0.48
0.37
0.28
0.22
0.17
0.14
0.11
0.10
0.09
0.08
0.09
0.10
0.11
0.14
0.17
0.20
0.24
0.28
0.33
0.38
0.43
0.49
0.55
0.60
0.66
0.71
0.77
0.85
0.95
1.06
1.17
1.24
1.27
1.24
1.19
1.15
1.17
1.27
1.43
1.62
1.81
1.98
2.14
2.37
2.70
3.18
3.79
4.44
5.04
5.50
5.79
5.98
6.20
6.62
7.33
8.34
9.49
10.56
11.30
11.65
11.69
11.72
12.07
13.00
14.51
16.28
17.79
18.52
18.22
16.99
15.30
13.69
12.48
11.51
10.08
7.22
2.17
-5.14
-13.99
-23.05
-30.93
-36.90
-41.11
-44.50
-48.22
-52.96
-58.51
-64.13
-69.17
-73.44
-77.02
-79.42
-79.01
-73.38
-60.39
-39.63
-13.13
15.25
41.57
63.52
81.02
94.92
105.07
109.14
103.38
84.87
54.13
16.43
-19.63
-45.35
-55.41
-50.10
-34.94
-18.22
-7.31
-5.61
-11.71
-21.01
-28.68
-32.43
-33.37
-34.62
-38.79
-46.06
-53.95
-59.03
-59.48
-56.30
-52.69
-51.79
-54.40
-58.28
-59.78
-56.72
-50.37
-45.28
-46.59
-56.95
-74.66
-94.07
-107.91
-110.19
-99.64
-80.38
-59.67
-43.82
-35.07
-31.11
-27.40
-20.55
-10.48
0.05
7.93
12.45
16.25
23.83
38.96
62.42
91.56
121.44
146.89
164.20
171.91
170.66
162.33
149.46
134.92
121.44
110.99
104.19
99.84
95.47
88.46
77.40
63.12
48.66
37.89
33.60
36.01
42.47
48.81
51.37
48.46
40.78
30.34
18.97
7.28
-5.42
-20.38
-38.48
-59.67
-82.91
-106.26
-127.08
-142.39
-149.43
-146.48
-133.53
-112.57
-87.23
-61.79
-39.75
-22.44
-8.09
7.74
30.46
63.89
108.02
158.34
206.97
245.44
267.67
271.90
260.72
239.48
213.98
188.80
166.54
147.99
132.60
119.27
107.21
96.80
89.87
89.02
96.12
110.83
129.86
147.78
158.83
158.96
146.98
124.61
95.54
64.07
34.19
9.09
-8.65
-16.84
-13.67
1.63
27.93
61.44
95.87
123.80
138.93
138.06
122.06
95.01
62.11
27.49
-7.00
-41.78
-78.21
-117.35
-158.94
-201.33
-241.81
-277.37
-305.39
-324.25
-333.65
-334.33
-327.72
-315.60
-299.99
-283.32
-268.47
-258.35
-255.05
-258.86
-267.82
-278.40
-286.80
-290.46
-288.70
-282.43
-272.89
-260.68
-245.36
-225.92
-201.87
-173.92
-144.09
-115.04
-89.03
-67.24
-49.81
-36.24
-25.92
-18.36
-12.83
-8.00
-2.06
6.61
18.53
32.57
46.29
57.12
63.65
66.41
67.53
69.62
74.52
82.61
92.78
103.16
111.89
117.69
120.20
120.27
119.91
122.04
129.59
144.26
165.56
190.41
214.01
231.51
239.68
237.93
228.13
213.56
197.53
182.38
169.30
158.55
149.94
143.15
137.90
134.09
131.79
131.17
132.42
135.50
140.02
145.35
150.63
154.98
157.47
156.99
152.17
141.68
124.72
101.59
73.88
44.10
14.87
-11.92
-35.51
-56.15
-74.57
-91.33
-106.56
-119.99
-131.27
-140.29
-147.32
-152.96
-157.93
-162.81
-167.89
-173.07
-178.06
-182.51
-186.28
-189.51
-192.50
-195.49
-198.33
-200.34
-200.31
-196.92
-189.13
-176.72
-160.40
-141.75
-122.80
-105.43
-90.92
-79.60
-71.02
-64.26
-58.42
-52.90
-47.46
-41.99
-36.33
-30.09
-22.83
-14.28
-4.48
6.09
16.72
26.63
35.15
41.88
46.68
49.63
50.98
51.13
50.44
49.18
47.50
45.42
42.96
40.22
37.39
34.68
32.11
29.48
26.37
22.43
17.50
11.85
6.04
0.74
-3.58
-6.67
-8.53
-9.19
-8.55
-6.46
-2.79
2.31
8.34
14.55
20.19
24.66
27.61
28.98
28.80
27.27
24.65
21.33
17.79
14.39
11.30
8.38
5.40
2.15
-1.33
-4.72
-7.65
-9.90
-11.60
-13.17
-15.09
-17.55
-20.43
-23.30
-25.73
-27.53
-28.85
-30.08
-31.57
-33.45
-35.46
-37.19
-38.11
-37.84
-36.05
-32.61
-27.55
-21.15
-14.09
-7.25
-1.58
2.39
4.88
6.78
9.43
13.98
20.98
30.20
40.84
51.87
62.37
71.67
79.26
84.81
88.11
89.21
88.38
86.16
83.11
79.66
76.02
72.38
68.97
66.17
64.44
64.00
64.77
66.29
68.04
69.70
71.31
73.18
75.50
78.02
80.03
80.54
78.75
74.44
67.99
60.10
51.20
41.11
28.94
13.46
-6.33
-30.75
-59.33
-91.00
-124.48
-158.55
-192.21
-224.69
-255.43
-284.08
-310.57
-334.95
-357.22
-377.00
-393.28
-404.60
-409.41
-406.70
-396.45
-379.64
-357.99
-333.13
-306.01
-276.50
-243.59
-205.95
-162.59
-113.27
-58.64
0.02
60.99
122.37
182.09
237.93
287.90
330.67
366.08
395.17
419.45
439.70
454.96
462.40
458.56
441.22
410.98
371.48
328.10
285.88
247.96
215.22
187.08
162.71
141.61
123.49
107.68
92.84
77.40
60.28
41.45
21.90
2.91
-14.67
-30.60
-44.81
-56.71
-65.00
-67.95
-64.36
-54.16
-38.60
-19.74
0.24
19.69
37.61
53.56
67.36
78.87
88.02
94.66
98.34
98.23
93.11
81.76
63.60
39.19
10.35
-20.22
-49.77
-75.97
-96.97
-111.15
-116.65
-111.57
-94.61
-65.98
-27.97
15.35
58.90
97.93
128.92
150.08
161.12
162.90
156.84
144.40
126.62
103.69
74.68
37.60
-9.83
-68.76
-137.52
-210.53
-278.67
-331.42
-360.19
-361.57
-338.76
-300.56
-258.17
-221.25
-194.96
-179.22
-169.97
-161.65
-149.59
-131.36
-106.96
-77.99
-46.64
-14.81
16.37
46.38
74.96
101.61
125.44
145.44
161.14
172.92
181.68
188.14
191.93
191.48
184.93
171.58
153.08
133.32
117.19
108.56
108.77
116.12
126.57
135.22
137.69
131.27
115.41
91.79
63.78
35.47
10.28
-10.17
-26.54
-41.27
-57.16
-76.09
-98.18
-121.94
-145.09
-165.47
-181.59
-192.69
-198.52
-199.09
-194.60
-185.47
-172.45
-156.71
-139.83
-123.70
-110.10
-100.16
-93.87
-89.90
-86.10
-80.41
-71.80
-60.69
-48.61
-37.13
-26.97
-17.58
-7.61
4.21
18.04
32.74
46.27
56.65
62.86
65.15
64.85
63.69
63.12
63.80
65.54
67.47
68.37
67.10
62.90
55.70
46.20
35.78
26.30
19.68
17.51
20.54
28.48
40.02
53.16
65.91
76.93
85.93
93.61
101.03
108.98
117.54
126.14
134.11
141.01
146.81
151.59
155.08
156.61
155.46
151.34
144.88
137.46
130.69
125.82
123.40
123.37
125.29
128.62
132.66
136.46
138.76
138.34
134.41
126.77
115.75
101.69
84.53
63.83
39.24
11.12
-19.28
-50.14
-80.11
-109.12
-138.55
-170.63
-207.24
-249.05
-295.18
-343.58
-391.40
-435.40
-471.91
-497.08
-507.52
-501.19
-478.53
-442.66
-398.63
-351.79
-305.85
-261.94
-218.84
-174.31
-126.75
-76.27
-24.87
24.37
68.34
104.92
133.43
154.40
168.90
177.94
182.06
181.61
177.07
169.44
160.31
151.44
144.22
139.12
135.55
131.96
126.57
118.00
105.71
90.18
72.59
54.38
36.79
20.69
6.48
-5.60
-15.18
-21.72
-24.66
-23.78
-19.47
-12.81
-5.16
2.26
8.74
14.02
18.03
20.55
21.15
19.54
15.83
10.76
5.45
0.88
-2.50
-4.87
-6.73
-8.53
-10.30
-11.87
-13.00
-13.67
-14.01
-14.01
-13.33
-11.29
-7.15
-0.66
7.68
16.67
24.90
31.19
35.13
37.04
37.69
37.82
37.86
37.78
37.37
36.54
35.53
34.88
35.19
36.85
39.86
44.05
49.16
55.09
61.87
69.48
77.71
86.03
93.67
99.78
103.66
104.91
103.54
100.09
95.59
91.47
89.08
89.36
92.46
97.87
104.80
112.63
121.19
130.55
140.62
150.63
159.21
164.82
166.43
164.01
158.55
151.66
144.85
139.14
134.77
131.42
128.32
124.48
118.71
109.71
96.33
77.90
54.62
27.80
-0.34
-27.18
-50.48
-68.99
-82.87
-93.47
-102.83
-112.93
-124.99
-139.24
-154.94
-170.72
-185.11
-197.01
-205.81
-211.54
-214.72
-216.20
-216.94
-217.80
-219.25
-221.22
-223.00
-223.31
-220.77
-214.33
-203.84
-190.17
-175.06
-160.55
-148.32
-139.29
-133.49
-130.34
-128.98
-128.60
-128.59
-128.51
-127.95
-126.51
-123.68
-118.96
-111.98
-102.68
-91.44
-79.15
-66.98
-56.08
-47.19
-40.42
-35.31
-31.09
-27.11
-22.99
-18.81
-14.84
-11.45
-9.01
-7.83
-8.19
-10.13
-13.31
-16.79
-19.19
-19.00
-15.11
-7.21
4.09
17.49
31.41
44.48
55.74
64.66
71.02
74.74
75.86
74.68
71.67
67.58
63.16
59.02
55.44
52.36
49.55
46.76
43.95
41.27
38.96
37.22
35.98
34.96
33.73
31.97
29.60
26.88
24.22
22.00
20.34
18.98
17.40
14.94
11.19
6.03
-0.21
-6.85
-12.91
-17.23
-18.70
-16.46
-10.24
-0.41
11.93
25.29
38.24
49.70
59.21
66.89
73.16
78.50
83.22
87.44
91.21
94.69
98.35
102.88
109.10
117.67
128.91
142.69
158.49
175.49
192.59
208.39
221.24
229.51
232.00
228.31
218.79
204.21
185.08
161.33
132.39
97.83
57.98
14.39
-30.30
-72.90
-110.24
-139.78
-159.89
-170.06
-171.12
-165.10
-154.87
-143.42
-133.04
-124.79
-118.60
-113.78
-109.66
-106.05
-103.06
-100.86
-99.23
-97.53
-95.03
-91.33
-86.65
-81.67
-77.08
-73.10
-69.19
-64.29
-57.41
-48.11
-36.92
-25.17
-14.43
-5.99
-0.50
2.13
2.49
1.35
-0.63
-2.98
-5.43
-7.87
-10.44
-13.39
-17.03
-21.58
-26.97
-32.62
-37.56
-40.65
-40.97
-38.16
-32.63
-25.38
-17.70
-10.79
-5.46
-2.05
-0.57
-0.87
-2.74
-5.96
-10.26
-15.24
-20.46
-25.43
-29.83
-33.62
-37.05
-40.53
-44.52
-49.25
-54.65
-60.44
-66.30
-72.13
-78.12
-84.71
-92.32
-101.15
-111.08
-121.81
-133.09
-144.90
-157.50
-171.26
-186.40
-202.72
-219.38
-234.95
-247.50
-255.06
-256.10
-249.95
-237.06
-218.79
-196.93
-173.09
-148.21
-122.45
-95.28
-65.91
-33.60
2.06
41.04
82.76
126.07
169.30
210.43
247.46
278.74
303.30
320.93
332.08
337.61
338.45
335.50
329.41
320.60
309.33
295.88
280.52
263.75
246.05
227.97
209.93
192.20
174.94
158.12
141.71
125.60
109.68
93.81
77.93
62.02
46.17
30.55
15.45
1.17
-11.88
-23.23
-32.31
-38.61
-41.81
-41.97
-39.67
-35.94
-32.07
-29.17
-27.90
-28.35
-30.10
-32.55
-35.21
-37.84
-40.47
-43.16
-45.85
-48.34
-50.33
-51.68
-52.54
-53.28
-54.31
-55.84
-57.69
-59.32
-60.10
-59.61
-57.84
-55.21
-52.32
-49.66
-47.33
-45.06
-42.39
-38.97
-34.73
-29.94
-25.07
-20.55
-16.64
-13.39
-10.68
-8.39
-6.40
-4.67
-3.24
-2.18
-1.64
-1.87
-3.15
-5.68
-9.53
-14.46
-19.97
-25.22
-29.20
-30.91
-29.65
-25.32
-18.54
-10.56
-2.88
3.11
6.61
7.44
6.03
2.99
-1.06
-5.69
-10.65
-15.68
-20.45
-24.63
-27.86
-29.97
-30.96
-30.98
-30.17
-28.60
-26.05
-22.12
-16.33
-8.39
1.66
13.37
26.00
38.78
51.09
62.46
72.53
80.79
86.53
88.93
87.26
81.14
70.84
57.26
42.01
27.11
14.63
6.23
2.69
3.64
7.65
12.60
16.22
16.66
12.83
4.54
-7.47
-21.68
-36.07
-48.46
-57.08
-61.12
-60.97
-58.07
-54.42
-51.88
-51.60
-53.77
-57.78
-62.54
-66.88
-69.88
-70.84
-69.38
-65.25
-58.37
-48.88
-37.22
-24.16
-10.71
2.02
13.11
22.08
28.95
34.13
38.17
41.55
44.45
46.80
48.45
49.33
49.54
49.27
48.69
47.77
46.36
44.24
41.38
37.98
34.45
31.19
28.45
26.21
24.32
22.70
21.47
21.07
22.07
24.93
29.79
36.29
43.75
51.37
58.42
64.45
69.19
72.49
74.18
74.06
71.95
67.79
61.74
54.23
45.86
37.35
29.39
22.57
17.31
13.76
11.80
11.09
11.18
11.64
12.09
12.30
12.09
11.32
9.90
7.83
5.19
2.25
-0.64
-3.14
-5.06
-6.51
-7.94
-9.98
-13.21
-17.94
-24.03
-30.89
-37.59
-43.05
-46.30
-46.66
-43.91
-38.36
-30.81
-22.35
-14.09
-6.92
-1.40
2.28
4.14
4.36
3.13
0.78
-2.27
-5.52
-8.39
-10.34
-10.98
-10.15
-7.99
-4.85
-1.27
2.17
5.02
7.04
8.23
8.83
9.10
9.27
9.36
9.20
8.57
7.28
5.40
3.28
1.44
0.32
0.10
0.48
0.89
0.68
-0.56
-2.84
-5.78
-8.65
-10.50
-10.27
-7.00
-0.02
10.74
24.64
40.34
56.22
70.76
82.92
92.35
99.19
103.90
106.93
108.67
109.43
109.54
109.38
109.40
110.02
111.49
113.86
117.05
120.86
125.09
129.43
133.39
136.06
136.21
132.43
123.56
109.03
89.07
64.68
37.29
8.57
-19.87
-46.52
-70.06
-89.44
-104.01
-113.69
-118.97
-120.85
-120.58
-119.52
-118.85
-119.43
-121.68
-125.45
-129.99
-134.03
-135.97
-134.19
-127.55
-115.75
-99.57
-80.75
-61.59
-44.28
-30.35
-20.39
-14.10
-10.72
-9.46
-9.79
-11.41
-13.97
-16.90
-19.38
-20.56
-19.95
-17.71
-14.60
-11.64
-9.67
-8.99
-9.29
-9.94
-10.43
-10.72
-11.33
-13.11
-16.72
-22.34
-29.51
-37.34
-45.04
-52.42
-59.92
-68.44
-78.75
-91.00
-104.50
-118.02
-130.27
-140.48
-148.66
-155.44
-161.75
-168.38
-175.74
-183.87
-192.33
-200.11
-205.33
-205.19
-196.39
-176.16
-143.49
-99.94
-49.65
1.77
48.82
87.73
117.06
137.46
150.57
158.09
161.26
160.89
157.91
153.57
149.30
146.13
144.13
142.30
138.95
132.41
121.81
107.46
90.66
73.17
56.54
41.57
28.27
15.93
3.57
-9.56
-23.74
-38.60
-53.31
-66.89
-78.53
-87.88
-95.08
-100.53
-104.71
-108.00
-110.67
-112.85
-114.51
-115.26
-114.15
-109.68
-100.17
-84.42
-62.43
-35.82
-7.49
19.13
41.08
56.63
65.40
67.99
65.43
58.69
48.69
36.37
22.97
10.01
-1.03
-9.07
-13.72
-15.35
-14.83
-13.19
-11.25
-9.41
-7.69
-5.84
-3.70
-1.30
1.08
3.01
4.23
4.82
5.22
6.01
7.50
9.43
10.98
10.97
8.48
3.31
-3.74
-10.88
-15.80
-16.17
-10.36
2.06
19.99
40.98
61.75
79.06
90.54
95.19
93.42
86.56
76.26
63.95
50.76
37.60
25.31
14.76
6.60
1.05
-2.26
-4.11
-5.40
-6.82
-8.72
-11.14
-13.92
-16.88
-19.87
-22.78
-25.58
-28.37
-31.43
-35.13
-39.74
-45.17
-50.89
-55.95
-59.43
-60.71
-59.85
-57.56
-54.98
-53.36
-53.67
-56.49
-61.70
-68.47
-75.06
-79.09
-78.02
-70.04
-54.83
-33.92
-10.30
12.56
31.74
45.67
54.17
58.03
58.30
55.92
51.61
46.10
40.22
34.91
30.96
28.80
28.37
29.33
31.23
33.80
36.95
40.76
45.17
49.79
53.79
55.99
55.25
50.78
42.42
30.72
16.77
1.82
-12.99
-26.83
-39.24
-50.00
-59.15
-66.76
-72.82
-77.08
-78.98
-77.75
-72.74
-63.82
-51.67
-37.73
-23.79
-11.53
-2.00
4.50
8.30
10.07
10.39
9.76
8.44
6.66
4.65
2.72
1.29
0.83
1.82
4.52
8.89
14.42
20.25
25.38
28.96
30.62
30.48
29.02
26.80
24.30
21.74
19.14
16.46
13.62
10.56
7.13
3.24
-1.08
-5.36
-8.66
-9.57
-6.69
0.87
13.04
28.69
45.90
62.57
76.88
87.71
94.70
98.04
98.27
96.05
92.12
87.22
82.01
76.96
72.43
68.55
65.37
62.83
60.73
58.68
56.12
52.46
47.35
40.85
33.49
26.05
19.22
13.39
8.44
3.90
-0.84
-6.33
-12.88
-20.48
-28.79
-37.12
-44.45
-49.53
-51.14
-48.46
-41.39
-30.70
-17.98
-5.13
6.08
14.50
19.87
22.66
23.62
23.46
22.55
21.00
18.86
16.37
13.96
12.25
11.66
12.24
13.60
15.07
15.93
15.75
14.47
12.40
9.98
7.56
5.26
2.88
0.09
-3.41
-7.73
-12.74
-18.19
-23.72
-28.97
-33.45
-36.49
-37.22
-34.85
-28.97
-19.87
-8.61
3.27
14.16
22.84
28.70
31.71
32.19
30.54
27.16
22.46
17.01
11.50
6.75
3.50
2.19
2.77
4.71
7.13
9.10
9.95
9.45
7.83
5.55
3.11
0.76
-1.54
-4.00
-7.00
-10.79
-15.53
-21.14
-27.23
-33.08
-37.62
-39.69
-38.31
-33.08
-24.29
-12.95
-0.47
11.70
22.35
30.74
36.48
39.52
40.02
38.29
34.85
30.36
25.62
21.39
18.26
16.50
16.05
16.55
17.47
18.21
18.30
17.43
15.48
12.50
8.64
4.03
-1.23
-7.14
-13.66
-20.58
-27.48
-33.80
-38.97
-42.60
-44.64
-45.30
-45.06
-44.41
-43.84
-43.63
-43.75
-43.75
-42.70
-39.50
-33.19
-23.47
-10.89
3.25
17.34
29.97
40.30
48.14
53.68
57.29
59.23
59.66
58.74
56.72
54.06
51.32
49.05
47.60
47.08
47.34
47.98
48.50
48.44
47.40
45.16
41.66
36.99
31.29
24.71
17.27
8.87
-0.69
-11.55
-23.62
-36.52
-49.56
-61.88
-72.65
-81.18
-87.14
-90.55
-91.80
-91.54
-90.53
-89.43
-88.60
-87.86
-86.53
-83.48
-77.54
-67.90
-54.38
-37.64
-19.07
-0.43
16.54
30.51
40.77
47.28
50.51
51.26
50.39
48.77
47.14
46.16
46.31
47.86
50.84
54.91
59.53
63.96
67.57
69.95
71.10
71.30
70.98
70.40
69.44
67.61
64.25
58.97
51.94
43.97
36.28
29.99
25.74
23.48
22.58
22.07
20.90
18.04
12.56
3.79
-8.45
-23.53
-39.99
-56.01
-70.05
-81.52
-91.00
-99.93
-109.96
-122.28
-137.21
-154.24
-172.34
-190.27
-206.93
-221.55
-233.85
-244.02
-252.70
-260.71
-268.63
-276.46
-283.28
-287.42
-286.93
-280.36
-267.33
-248.78
-226.54
-202.58
-178.19
-153.58
-127.93
-99.96
-68.50
-32.97
6.26
47.70
88.63
125.26
153.31
169.04
170.58
158.94
138.09
114.10
93.50
81.77
82.31
96.40
123.74
162.97
211.80
266.89
323.93
378.19
425.55
463.53
491.76
511.62
525.20
534.16
539.07
539.29
533.27
518.88
494.42
459.72
417.27
372.48
332.80
305.34
294.19
298.50
312.38
326.94
333.53
326.35
303.76
267.71
222.23
171.69
119.79
69.25
21.74
-22.03
-62.40
-100.69
-138.85
-178.94
-222.35
-269.46
-319.27
-369.89
-419.28
-466.08
-510.07
-552.56
-596.24
-644.08
-697.76
-755.72
-812.32
-858.64
-885.26
-885.74
-859.23
-810.89
-749.46
-683.85
-619.87
-559.35
-501.29
-444.09
-387.40
-332.37
-280.65
-232.93
-188.39
-144.98
-100.48
-53.34
-3.04
49.63
102.65
152.69
195.41
226.35
242.29
242.51
229.16
206.56
179.64
152.46
127.47
105.75
87.87
74.51
66.48
64.19
67.12
73.58
81.16
87.52
91.12
91.43
88.83
84.15
78.17
71.44
64.47
58.46
55.59
58.68
70.03
90.10
116.72
145.52
171.52
190.98
202.59
207.44
207.88
206.29
204.22
202.38
201.07
200.40
200.24
199.90
197.91
192.41
181.94
166.10
145.86
123.19
100.43
79.34
60.67
44.18
29.27
15.62
3.61
-5.79
-11.67
-13.77
-12.85
-10.27
-7.32
-4.55
-1.77
1.64
6.09
11.37
16.90
21.97
26.10
29.06
30.73
30.98
29.88
27.99
26.52
27.07
31.04
38.98
50.32
63.52
76.61
87.78
95.66
99.40
98.61
93.25
83.68
70.63
55.24
38.80
22.61
7.74
-5.10
-15.64
-23.96
-30.24
-34.52
-36.47
-35.42
-30.52
-21.23
-7.65
9.33
28.08
46.52
62.49
74.12
80.09
79.93
74.12
64.13
52.09
40.33
30.75
24.29
20.73
18.80
16.68
12.58
5.18
-6.06
-21.01
-39.08
-59.44
-81.21
-103.44
-124.99
-144.56
-160.63
-171.60
-176.00
-172.70
-161.18
-141.80
-115.95
-85.97
-54.70
-24.64
2.71
27.32
50.31
73.14
96.63
120.16
141.70
158.38
167.52
167.57
158.63
142.48
122.04
100.47
80.31
62.84
48.08
35.24
23.61
13.19
4.76
-0.57
-2.24
-0.68
2.71
6.15
8.14
7.81
4.63
-1.98
-12.81
-28.50
-48.69
-71.48
-93.54
-111.05
-121.07
-122.60
-116.82
-106.56
-95.09
-85.08
-77.92
-73.57
-71.00
-68.67
-65.13
-59.37
-51.08
-40.60
-28.79
-16.66
-5.11
5.27
14.21
21.68
27.67
32.10
34.80
35.68
34.81
32.61
29.73
26.90
24.64
23.10
22.03
21.04
19.82
18.36
16.88
15.66
14.68
13.40
10.81
5.77
-2.41
-13.47
-26.04
-37.98
-47.13
-52.24
-53.55
-52.85
-52.78
-55.89
-63.83
-76.96
-94.37
-114.22
-134.08
-151.24
-163.29
-168.97
-169.04
-166.46
-165.47
-169.75
-180.47
-195.40
-209.63
-217.71
-215.97
-203.74
-182.96
-156.42
-126.18
-92.89
-56.44
-17.29
22.75
60.83
94.26
121.78
144.20
163.71
182.72
202.92
225.01
249.22
275.54
303.27
330.17
352.15
364.48
363.83
349.90
325.49
294.45
259.33
220.21
175.79
125.60
71.68
18.06
-31.61
-76.08
-116.98
-157.07
-197.72
-237.38
-272.22
-297.73
-310.59
-309.31
-294.42
-268.26
-234.79
-198.84
-164.37
-132.85
-102.36
-68.77
-28.55
18.40
67.90
113.18
147.91
168.67
175.57
170.78
156.80
135.77
109.84
81.95
55.93
35.34
22.23
16.69
17.55
23.78
35.44
53.44
78.15
108.10
139.52
167.37
187.20
196.60
195.47
185.17
167.31
143.20
114.22
82.70
52.16
26.31
7.42
-5.15
-15.06
-27.46
-46.74
-74.40
-108.43
-144.06
-175.60
-198.30
-209.58
-209.46
-200.13
-185.04
-167.75
-151.00
-136.28
-123.99
-113.99
-106.33
-101.41
-99.76
-101.42
-105.50
-110.43
-114.54
-116.80
-117.02
-115.55
-112.73
-108.34
-101.74
-92.19
-79.47
-64.19
-47.67
-31.55
-17.29
-5.85
2.44
7.75
10.70
12.19
13.23
14.84
17.72
22.10
27.70
33.94
40.03
45.16
48.59
49.71
48.37
45.14
41.43
39.09
39.74
43.94
50.75
57.95
62.92
63.69
59.63
51.51
40.89
29.31
17.51
5.20
-8.62
-25.00
-44.28
-65.57
-86.79
-105.20
-118.46
-125.52
-127.13
-125.46
-123.08
-121.66
-121.10
-119.62
-114.65
-104.28
-88.14
-67.57
-44.77
-21.75
0.53
22.07
43.12
63.43
81.89
97.05
108.00
115.06
119.70
123.97
129.48
136.82
145.54
154.65
163.14
170.28
175.58
178.59
178.82
175.83
169.48
160.14
148.52
135.46
121.66
107.63
93.88
81.20
70.68
63.46
60.28
61.00
64.62
69.60
74.48
78.41
81.28
83.41
85.02
85.79
84.92
81.46
74.91
65.54
54.43
43.07
32.88
24.91
19.62
17.00
16.61
17.75
19.50
20.95
21.31
20.05
16.94
12.00
5.44
-2.38
-10.95
-19.51
-27.24
-33.48
-38.07
-41.36
-44.19
-47.48
-51.78
-57.03
-62.50
-67.08
-69.66
-69.47
-66.29
-60.49
-52.98
-44.91
-37.48
-31.64
-27.98
-26.65
-27.47
-30.06
-34.06
-39.10
-44.81
-50.71
-56.24
-60.86
-64.15
-65.92
-66.25
-65.42
-63.88
-62.20
-60.92
-60.49
-61.11
-62.63
-64.52
-66.14
-66.99
-67.00
-66.69
-66.91
-68.54
-72.13
-77.60
-84.24
-90.89
-96.29
-99.43
-99.87
-97.78
-93.87
-89.13
-84.34
-79.86
-75.37
-69.97
-62.56
-52.27
-38.86
-22.84
-5.27
12.60
29.69
45.29
58.92
70.25
78.97
84.87
88.01
88.89
88.39
87.52
87.18
87.94
89.92
92.84
96.17
99.24
101.48
102.56
102.53
101.88
101.29
101.29
101.94
102.67
102.54
100.65
96.64
90.96
84.64
78.79
73.99
69.80
64.86
57.50
46.55
32.10
15.66
-0.03
-11.53
-15.28
-8.23
11.62
44.52
88.22
137.64
185.49
223.83
246.59
251.88
243.05
227.73
215.17
212.80
223.74
245.98
273.50
298.63
314.37
315.91
301.01
269.49
222.59
162.55
92.45
16.30
-61.44
-136.36
-204.84
-264.75
-315.61
-358.42
-395.30
-429.07
-462.58
-497.57
-533.45
-566.35
-589.33
-594.17
-574.18
-526.88
-455.03
-365.70
-267.80
-169.55
-76.85
6.77
79.24
139.22
186.10
220.60
245.20
263.82
280.35
296.92
312.95
325.31
329.88
323.59
306.10
280.21
250.74
222.68
199.38
181.78
168.87
159.14
151.74
146.57
143.68
142.32
140.59
136.07
127.03
113.37
96.60
78.83
61.53
44.87
28.08
10.45
-7.62
-24.45
-37.80
-46.11
-49.30
-48.93
-47.45
-47.14
-49.21
-53.69
-59.71
-66.29
-72.99
-80.05
-88.09
-97.54
-108.26
-119.60
-130.75
-141.09
-150.27
-157.86
-163.00
-164.55
-161.59
-154.23
-143.85
-132.55
-122.03
-112.45
-102.36
-89.62
-72.81
-52.27
-29.97
-8.43
10.52
26.39
39.63
50.68
59.33
64.69
66.04
63.64
58.87
53.38
47.77
40.90
30.14
12.91
-11.85
-43.31
-79.68
-119.63
-162.97
-210.09
-260.46
-311.49
-358.69
-397.30
-424.35
-439.62
-445.00
-442.70
-433.66
-417.28
-392.43
-358.82
-317.70
-271.28
-221.55
-169.55
-115.26
-58.24
1.64
63.80
127.11
189.70
249.02
302.01
345.39
376.46
393.92
398.18
390.50
372.12
343.63
305.59
259.94
210.81
164.17
126.06
100.21
86.29
79.82
73.75
61.24
38.51
6.55
-28.87
-58.89
-74.48
-69.50
-42.72
1.94
56.81
112.92
162.25
199.09
220.25
224.74
213.48
189.47
157.46
123.16
91.66
65.81
45.28
26.68
4.84
-25.03
-65.49
-115.60
-170.97
-225.10
-271.48
-305.92
-328.08
-341.49
-351.78
-364.17
-381.14
-401.56
-421.46
-435.97
-441.10
-434.51
-415.56
-385.00
-345.29
-301.21
-260.13
-230.74
-220.20
-230.94
-258.87
-294.53
-326.81
-347.42
-353.56
-347.67
-334.50
-317.75
-298.24
-274.47
-244.68
-208.81
-168.91
-127.90
-87.80
-48.67
-8.93
33.31
78.74
126.22
173.35
217.58
257.25
292.00
322.24
348.51
370.91
389.16
402.99
412.42
417.86
419.90
419.08
415.98
411.42
406.63
402.97
401.39
401.91
403.62
405.22
405.90
405.87
406.17
407.95
411.59
416.25
420.14
421.25
418.04
409.67
395.69
375.68
349.11
315.76
276.50
233.63
190.70
151.34
117.94
90.74
68.04
47.51
27.83
9.79
-3.94
-10.12
-6.86
5.13
22.47
40.42
54.76
63.36
66.73
67.36
68.18
71.00
75.58
79.90
81.25
77.51
67.94
53.18
34.53
13.18
-10.08
-34.64
-59.58
-83.58
-105.56
-125.56
-145.37
-168.17
-196.90
-232.56
-273.34
-315.48
-355.07
-390.08
-421.19
-450.93
-481.39
-512.20
-539.75
-558.66
-564.29
-555.03
-532.76
-501.40
-464.46
-423.42
-377.95
-327.76
-274.53
-222.40
-176.38
-140.00
-113.55
-94.27
-78.44
-63.53
-49.25
-36.21
-23.92
-9.64
10.79
40.43
79.05
122.19
163.21
196.31
219.19
233.57
243.64
253.56
265.57
279.51
293.67
306.03
315.08
319.70
318.82
311.15
295.68
272.37
242.72
209.40
175.38
142.91
112.91
85.38
60.14
37.56
18.69
4.64
-4.24
-8.69
-10.40
-11.25
-12.41
-14.09
-15.68
-16.40
-15.68
-13.43
-9.87
-5.46
-1.06
1.86
1.15
-5.57
-19.84
-41.52
-68.45
-97.13
-124.07
-147.07
-165.73
-181.23
-195.32
-209.59
-225.12
-242.56
-262.34
-284.51
-308.49
-332.87
-355.48
-373.94
-386.05
-390.17
-385.21
-370.56
-346.35
-313.55
-274.11
-230.46
-184.78
-138.27
-90.91
-41.89
9.70
64.01
120.27
176.96
232.26
284.68
333.44
378.46
419.95
457.31
488.32
508.89
513.97
499.42
463.91
409.89
343.11
270.73
199.12
132.40
72.14
18.37
-29.11
-69.88
-102.85
-126.92
-141.70
-147.97
-147.38
-141.91
-133.31
-122.90
-111.52
-99.62
-87.19
-73.48
-57.25
-37.35
-13.69
11.94
36.05
54.49
64.23
64.58
57.32
45.46
31.66
17.03
1.37
-15.73
-33.47
-49.11
-58.64
-58.24
-45.85
-21.96
10.74
48.51
88.16
128.09
168.61
210.69
254.41
297.80
336.93
367.14
384.52
387.06
374.94
350.66
318.25
283.14
251.78
230.45
223.46
230.33
244.52
255.04
251.17
226.20
179.97
118.26
49.56
-17.80
-78.39
-129.82
-171.23
-201.15
-218.63
-224.44
-221.70
-215.39
-209.46
-205.99
-204.99
-210.19
-222.16
-238.83
-256.70
-271.38
-286.16
-304.42
-326.66
-349.27
-365.21
-366.11
-346.83
-308.10
-256.85
-203.53
-156.72
-120.36
-92.99
-69.30
-42.78
-9.69
29.44
70.03
105.30
129.46
138.83
133.09
116.03
95.90
83.02
86.32
109.33
147.84
191.49
227.63
246.53
245.02
226.67
198.57
167.55
138.11
112.60
93.06
81.59
78.89
82.00
83.52
73.55
44.16
-6.41
-71.78
-139.44
-195.41
-228.82
-234.74
-214.73
-175.40
-126.33
-77.50
-37.53
-12.09
-3.11
-9.14
-26.51
-50.68
-77.15
-101.80
-121.10
-132.56
-134.99
-128.83
-116.04
-99.31
-81.16
-63.56
-47.97
-35.77
-28.15
-25.12
-24.47
-21.39
-9.94
14.09
50.37
93.24
133.56
162.76
176.36
175.20
164.36
150.44
138.35
129.42
121.49
110.43
92.23
64.47
26.50
-20.37
-72.92
-126.48
-175.56
-214.66
-239.22
-246.25
-234.63
-206.02
-163.42
-109.56
-46.20
25.40
103.17
183.24
259.93
326.73
376.08
402.86
407.04
393.79
370.67
344.05
317.18
290.25
262.01
228.53
186.69
137.00
83.64
31.44
-17.64
-64.73
-112.54
-163.46
-221.76
-291.01
-371.18
-458.63
-548.87
-639.17
-728.00
-813.50
-864.37
-855.52
-784.94
-676.41
-561.26
-458.87
-372.31
-294.58
-217.54
-144.06
-75.86
-18.86
23.00
52.01
74.37
95.01
116.47
139.42
160.54
175.99
183.23
184.95
190.01
208.25
243.59
294.30
353.87
412.14
457.56
480.04
475.32
447.51
405.08
354.13
300.47
248.82
201.08
157.46
118.29
86.46
69.17
72.54
94.31
128.69
168.00
203.48
228.67
241.79
232.24
196.49
158.89
129.44
103.18
78.57
55.52
34.36
14.38
-7.70
-35.23
-71.47
-124.25
-189.07
-252.01
-300.91
-332.90
-351.64
-360.59
-356.73
-333.28
-288.31
-224.99
-155.66
-92.75
-47.83
-26.32
-26.03
-38.40
-53.00
-63.25
-65.11
-57.54
-42.27
-23.04
-2.95
15.88
32.63
47.17
58.39
65.25
66.50
61.35
49.99
34.72
19.38
8.02
4.16
9.63
24.60
47.47
75.73
106.39
136.69
164.19
180.94
181.36
166.46
144.12
123.66
109.86
101.21
92.92
80.94
67.18
53.99
45.04
42.80
47.03
55.47
65.68
76.37
87.53
98.13
107.15
113.14
113.98
107.96
95.16
78.06
60.65
46.65
37.91
34.23
34.06
35.08
35.05
32.48
26.80
17.87
5.50
-10.58
-30.31
-52.65
-75.77
-97.55
-116.22
-131.12
-142.87
-153.20
-164.08
-176.83
-191.36
-206.37
-219.83
-229.69
-234.52
-233.81
-228.17
-219.02
-208.12
-196.91
-186.00
-175.29
-164.42
-153.56
-143.83
-137.17
-135.32
-138.84
-146.74
-156.91
-167.22
-176.29
-183.69
-189.36
-192.80
-192.64
-187.15
-175.31
-157.63
-136.20
-113.94
-93.10
-74.11
-55.24
-33.06
-3.81
35.31
85.18
144.32
208.87
273.03
329.70
371.58
392.51
389.10
362.10
316.99
262.92
210.25
167.23
137.30
118.33
104.51
89.77
71.18
50.61
33.69
26.79
33.51
52.46
77.26
98.98
109.40
103.86
82.32
48.68
8.71
-32.15
-70.02
-102.55
-127.77
-143.12
-145.74
-133.87
-108.97
-76.80
-46.35
-26.67
-23.19
-35.54
-58.17
-83.27
-104.47
-118.90
-126.83
-129.66
-127.86
-120.29
-105.35
-82.77
-54.69
-25.39
0.51
19.95
32.71
40.94
47.71
55.22
63.78
71.74
76.46
75.64
68.36
55.53
39.45
22.91
8.06
-4.14
-13.86
-21.87
-28.79
-34.87
-39.93
-43.75
-46.46
-48.69
-51.33
-55.23
-60.76
-67.73
-75.57
-83.68
-91.67
-99.37
-106.47
-112.22
-115.35
-114.58
-109.27
-100.00
-88.49
-76.90
-66.92
-58.94
-52.10
-44.86
-35.81
-24.37
-10.85
3.86
18.59
32.12
43.38
51.74
57.24
60.94
65.00
72.24
85.45
106.21
134.22
167.21
201.47
233.06
258.95
277.92
290.72
299.64
307.00
313.83
319.14
320.16
313.40
295.96
266.72
226.58
178.65
126.47
73.27
21.71
-25.81
-67.07
-100.20
-124.19
-139.21
-145.37
-144.10
-137.49
-127.44
-115.20
-101.56
-87.59
-74.80
-64.66
-55.85
-46.72
-35.46
-20.22
0.70
28.40
62.67
101.82
142.93
184.63
223.36
253.59
269.45
267.01
245.95
209.45
162.70
97.59
15.75
-74.25
-160.61
-234.13
-290.29
-327.88
-347.81
-352.99
-350.70
-343.36
-333.11
-321.97
-311.22
-301.02
-290.87
-280.45
-270.26
-260.56
-250.26
-239.28
-228.07
-217.09
-206.28
-195.14
-183.17
-169.92
-154.56
-134.31
-106.61
-69.73
-23.43
31.00
91.11
153.91
216.62
276.99
333.84
385.40
429.04
461.75
481.28
487.08
480.32
462.73
435.13
397.09
347.44
286.48
218.03
149.96
92.02
52.15
33.08
31.00
37.21
41.72
36.93
19.73
-8.42
-42.84
-77.51
-106.49
-124.94
-129.93
-121.05
-100.72
-73.37
-43.94
-16.01
9.11
32.27
55.17
78.67
101.89
122.50
137.77
145.61
145.06
136.13
119.17
94.57
63.09
26.36
-12.75
-50.40
-82.85
-107.74
-124.65
-134.88
-140.30
-142.02
-139.60
-131.23
-114.96
-90.31
-59.48
-27.45
-0.65
15.60
19.41
13.24
2.60
-7.00
-13.18
-18.17
-27.55
-46.86
-78.03
-117.91
-159.63
-195.48
-220.17
-232.36
-234.07
-228.52
-217.90
-202.66
-182.30
-157.21
-128.97
-100.04
-72.76
-48.34
-26.09
-3.25
23.61
57.14
96.68
139.18
180.24
215.32
240.63
253.51
252.99
238.92
212.36
174.02
126.74
75.85
27.61
-13.55
-46.99
-74.89
-101.62
-130.84
-166.63
-210.25
-259.79
-310.88
-358.06
-396.11
-420.08
-428.31
-407.38
-355.78
-285.07
-213.91
-155.71
-111.85
-80.93
-53.31
-24.47
4.67
28.04
40.71
41.98
33.92
20.34
4.55
-10.54
-24.07
-35.47
-45.74
-54.75
-60.66
-60.76
-53.58
-40.64
-25.58
-13.63
-8.22
-10.17
-15.84
-18.41
-10.83
10.86
45.52
88.05
131.06
168.13
195.03
210.71
216.36
213.95
204.92
189.73
168.64
142.25
112.27
81.03
51.08
24.41
2.09
-15.60
-28.93
-38.38
-44.71
-48.95
-52.32
-55.82
-59.88
-64.17
-67.87
-70.26
-71.07
-70.64
-69.52
-68.23
-67.08
-66.18
-65.42
-64.22
-61.30
-54.76
-42.65
-23.64
2.36
34.30
70.45
108.98
148.15
186.08
220.57
249.25
270.34
283.48
290.08
292.71
293.89
294.87
295.03
292.33
284.56
270.59
251.20
228.86
206.78
187.63
172.38
159.99
147.80
132.62
111.84
84.29
50.54
12.67
-26.33
-63.17
-94.82
-119.26
-136.06
-146.61
-153.64
-160.20
-168.54
-179.42
-192.06
-204.36
-213.34
-215.42
-207.01
-185.53
-150.66
-105.26
-55.09
-7.34
31.92
59.69
76.69
86.39
93.04
99.80
108.08
117.89
128.65
139.84
151.10
162.08
172.22
180.73
186.79
189.86
189.86
187.20
182.70
177.30
171.77
166.47
161.23
155.39
147.99
137.98
124.48
106.85
84.69
57.80
26.17
-9.77
-49.08
-90.06
-130.42
-167.62
-199.36
-223.95
-240.56
-249.05
-249.84
-243.61
-231.33
-214.15
-193.46
-170.84
-147.91
-126.18
-107.03
-91.51
-80.38
-73.90
-71.85
-73.51
-77.89
-83.94
-90.78
-97.77
-104.37
-110.02
-114.03
-115.58
-113.93
-108.61
-99.62
-87.44
-73.03
-57.65
-42.69
-29.53
-19.30
-12.79
-10.19
-11.05
-14.34
-18.70
-22.70
-25.23
-25.65
-23.85
-20.21
-15.38
-10.14
-5.24
-1.27
1.43
2.85
3.26
3.14
2.96
3.10
3.62
4.28
4.58
4.02
2.23
-0.84
-4.84
-9.18
-13.18
-16.26
-18.17
-19.03
-19.32
-19.74
-21.08
-23.97
-28.85
-35.83
-44.66
-54.78
-65.48
-75.94
-85.45
-93.47
-99.67
-103.91
-106.21
-106.73
-105.68
-103.32
-99.94
-95.68
-90.35
-83.19
-72.95
-58.04
-37.13
-9.83
22.90
58.75
94.73
128.15
157.53
182.91
205.60
227.23
248.84
270.28
290.26
306.92
318.59
324.31
323.95
317.98
307.06
291.64
271.86
247.63
218.82
185.38
147.35
105.07
59.20
10.84
-37.92
-83.95
-123.89
-155.38
-178.11
-193.88
-205.26
-213.67
-217.96
-214.24
-198.05
-167.58
-126.13
-81.87
-45.08
-23.81
-20.94
-34.13
-56.92
-81.77
-103.22
-119.03
-129.53
-136.14
-139.47
-139.75
-138.74
-138.08
-138.90
-142.16
-147.76
-153.89
-157.06
-151.55
-132.94
-102.88
-65.61
-25.98
10.60
40.20
61.54
75.85
88.08
102.69
117.66
130.99
143.12
154.41
165.40
176.71
189.07
206.72
233.75
267.11
304.49
345.92
389.51
431.76
468.66
476.52
440.01
390.40
344.04
295.73
245.23
193.06
140.41
88.80
39.24
-5.01
-42.18
-77.87
-115.55
-153.55
-189.06
-218.87
-240.10
-250.73
-247.04
-226.60
-193.49
-151.96
-104.76
-55.88
-9.93
28.58
56.04
71.85
76.89
70.12
52.35
26.75
-3.58
-36.19
-69.47
-102.60
-134.55
-164.74
-194.48
-224.67
-254.79
-283.47
-308.33
-326.60
-336.10
-335.87
-326.67
-310.95
-291.13
-268.75
-244.86
-220.61
-197.62
-177.66
-161.80
-149.46
-138.22
-124.46
-104.64
-76.71
-40.63
1.78
47.78
94.60
140.08
182.59
220.71
252.92
277.49
292.91
298.32
294.03
281.49
262.94
240.63
216.13
190.16
162.85
134.40
105.50
77.47
51.86
29.91
12.18
-1.59
-12.25
-20.93
-28.55
-35.68
-42.39
-48.40
-53.35
-57.03
-59.60
-61.47
-63.14
-64.95
-66.90
-68.76
-70.21
-71.11
-71.56
-71.92
-72.59
-73.85
-75.80
-78.37
-81.49
-85.07
-89.06
-93.22
-97.10
-100.02
-101.26
-100.28
-97.03
-91.97
-86.03
-80.44
-76.37
-74.70
-75.80
-79.51
-85.22
-92.14
-99.57
-107.13
-114.86
-123.03
-131.97
-141.68
-151.62
-160.48
-166.14
-165.93
-157.17
-137.97
-108.11
-69.27
-24.72
21.70
66.76
108.65
147.02
182.29
214.83
244.49
270.69
292.78
310.16
322.11
327.45
324.64
312.48
291.02
262.19
229.50
197.02
168.07
144.45
126.39
113.09
103.30
95.69
88.82
81.26
71.90
60.55
48.28
37.12
29.25
25.92
26.81
30.17
33.62
35.16
33.89
30.20
25.44
21.34
19.49
21.05
26.53
35.69
47.53
60.29
71.67
79.25
80.78
74.58
59.93
37.34
8.77
-22.49
-52.22
-76.00
-90.03
-91.67
-79.81
-54.78
-18.28
26.68
75.97
124.66
167.76
201.20
222.81
232.91
233.88
229.36
222.97
217.17
212.88
209.96
208.30
208.65
212.56
221.12
233.43
245.81
252.66
248.69
231.35
202.00
165.00
125.34
86.14
47.69
8.39
-33.20
-76.78
-119.99
-159.81
-194.39
-224.20
-251.98
-281.53
-316.39
-358.63
-407.67
-459.94
-508.92
-546.34
-564.22
-557.77
-527.50
-479.68
-424.40
-371.96
-329.14
-297.07
-271.87
-247.36
-218.49
-183.53
-144.20
-103.90
-65.54
-30.08
3.47
36.67
70.32
103.88
136.22
166.77
196.11
225.09
253.21
277.29
291.57
289.64
267.17
224.18
165.12
97.20
27.73
-37.88
-96.95
-148.82
-193.78
-232.50
-265.88
-295.23
-322.10
-347.64
-372.04
-394.51
-413.80
-428.70
-438.44
-442.45
-439.91
-429.87
-411.92
-386.99
-357.67
-327.48
-299.50
-275.14
-253.84
-233.81
-213.23
-191.26
-168.19
-144.95
-122.49
-101.67
-83.37
-68.79
-59.26
-55.58
-57.33
-62.55
-68.15
-70.81
-67.84
-57.80
-40.50
-16.69
12.46
45.79
82.45
121.82
163.16
205.09
245.11
279.78
305.41
319.27
320.72
311.61
295.77
277.80
261.57
249.27
241.22
236.49
233.72
231.64
229.24
225.54
219.35
209.38
194.56
174.53
149.92
122.38
94.24
67.87
45.08
26.61
12.03
0.12
-10.51
-20.77
-30.76
-39.82
-46.95
-51.45
-53.21
-52.69
-50.45
-46.62
-40.59
-31.17
-17.03
2.86
28.83
60.54
96.97
136.49
176.84
215.16
248.33
273.45
288.71
293.77
289.80
278.73
262.25
240.86
213.62
178.80
135.27
83.81
27.92
-26.75
-73.91
-108.67
-128.93
-135.82
-132.80
-124.26
-114.01
-104.49
-96.68
-90.62
-86.05
-82.80
-80.82
-79.88
-79.37
-78.34
-75.99
-72.18
-67.76
-64.42
-63.95
-67.38
-74.16
-82.20
-88.42
-89.87
-84.72
-72.69
-54.80
-32.63
-7.53
19.55
47.66
75.04
98.85
115.49
121.67
115.69
98.06
71.35
39.23
5.24
-27.88
-58.44
-85.76
-109.98
-132.14
-153.95
-177.24
-202.93
-230.16
-256.14
-276.84
-288.21
-287.09
-271.71
-241.65
-197.79
-142.47
-79.77
-15.37
44.42
94.29
131.61
157.17
174.47
187.94
200.97
214.79
228.55
240.43
248.80
252.86
252.45
247.70
238.61
225.06
207.21
185.79
162.21
138.30
115.91
96.72
82.11
73.21
70.73
74.74
84.54
98.70
115.31
132.49
148.74
163.14
175.38
185.57
194.15
201.66
208.59
215.02
220.33
223.01
220.98
212.23
195.90
172.93
146.04
118.83
94.44
74.39
58.35
45.03
33.44
23.83
17.59
16.21
19.78
26.42
32.62
34.68
30.41
19.92
5.36
-10.20
-24.19
-35.30
-43.62
-49.97
-55.15
-59.44
-62.61
-64.22
-64.16
-62.86
-61.17
-60.03
-60.10
-61.53
-64.09
-67.36
-70.89
-74.32
-77.31
-79.53
-80.69
-80.64
-79.52
-77.58
-75.13
-72.32
-69.10
-65.40
-61.20
-56.67
-51.98
-47.14
-41.85
-35.67
-28.32
-20.05
-11.74
-4.66
0.01
1.68
0.65
-2.09
-5.20
-7.49
-8.29
-7.52
-5.60
-3.14
-0.81
0.88
1.64
1.37
0.16
-1.82
-4.45
-7.78
-12.03
-17.40
-23.84
-30.97
-37.97
-43.92
-47.96
-49.71
-49.29
-47.16
-43.84
-39.74
-35.04
-29.82
-24.27
-18.66
-13.36
-8.78
-5.11
-2.37
-0.41
0.91
1.47
0.77
-2.05
-7.94
-17.59
-30.97
-47.29
-65.16
-83.01
-99.58
-114.20
-126.51
-136.39
-143.96
-150.04
-156.50
-166.18
-181.91
-204.99
-233.83
-263.70
-288.13
-301.60
-302.07
-292.30
-278.85
-269.29
-268.92
-278.52
-294.20
-309.14
-316.48
-311.60
-293.25
-262.95
-223.47
-177.27
-125.67
-69.30
-9.25
52.20
111.67
165.48
211.21
248.55
278.94
304.20
324.99
340.21
347.55
344.94
331.77
309.37
280.35
247.65
213.99
181.76
153.23
130.31
113.84
102.89
94.95
86.98
77.08
65.57
54.79
47.66
45.95
49.23
55.08
60.35
62.28
59.41
51.55
39.35
23.85
6.24
-12.17
-29.90
-45.43
-57.51
-65.34
-68.59
-67.20
-60.96
-49.41
-32.17
-9.62
16.35
42.11
63.03
74.78
75.07
64.53
46.50
25.61
5.98
-10.19
-22.88
-33.37
-43.02
-52.32
-60.45
-65.65
-65.80
-59.09
-44.70
-22.86
5.12
36.82
68.95
97.96
120.77
135.36
141.23
138.98
130.08
116.50
100.22
82.64
64.92
48.10
33.53
23.43
20.35
27.11
46.03
77.68
119.24
165.43
209.74
245.99
270.32
280.23
275.50
258.15
231.33
197.04
157.66
116.32
76.75
43.41
17.05
-4.02
-22.51
-42.08
-68.65
-106.64
-157.48
-218.89
-283.82
-346.73
-401.64
-442.08
-464.20
-471.52
-471.58
-472.80
-480.83
-494.05
-510.87
-527.85
-540.98
-526.59
-474.50
-392.50
-302.40
-242.40
-210.84
-194.95
-181.20
-152.18
-100.98
-31.29
49.09
133.05
216.77
301.58
383.68
449.50
481.30
466.38
404.34
309.13
200.99
97.30
12.25
-56.15
-110.85
-150.93
-173.00
-175.08
-158.23
-125.10
-82.85
-38.21
1.94
35.05
63.14
90.22
119.34
151.62
186.51
222.50
258.63
291.67
316.94
328.31
319.42
285.70
226.75
147.09
55.11
-38.57
-124.46
-195.32
-246.55
-275.85
-282.52
-267.26
-232.11
-180.52
-116.73
-45.74
27.17
96.55
157.53
206.61
242.54
266.37
280.64
288.20
290.92
289.47
283.98
275.07
264.57
255.12
248.97
246.92
248.02
250.35
252.04
252.00
249.86
245.28
237.57
225.40
207.29
182.27
150.56
113.73
74.36
35.06
-2.62
-38.67
-74.04
-109.20
-142.84
-171.50
-190.75
-197.34
-191.29
-176.43
-158.81
-143.99
-134.64
-129.96
-126.91
-122.55
-115.77
-108.00
-102.26
-101.30
-106.01
-115.05
-125.93
-136.24
-144.84
-151.99
-159.27
-168.79
-181.94
-198.23
-215.56
-231.51
-244.02
-252.26
-256.32
-257.41
-257.64
-259.32
-263.17
-268.19
-272.35
-272.43
-264.85
-245.81
-212.49
-164.33
-103.37
-33.28
40.46
110.73
170.76
211.96
231.59
236.38
237.71
242.61
250.47
259.73
264.47
262.50
256.12
250.41
249.29
253.15
255.07
250.97
240.24
225.60
213.06
208.85
217.09
237.43
264.52
289.68
304.95
304.94
287.92
256.76
217.48
177.70
144.16
120.70
107.42
101.80
99.19
93.99
81.75
59.96
28.45
-11.00
-55.79
-103.16
-150.30
-194.83
-234.88
-268.83
-295.55
-314.62
-326.33
-331.48
-330.80
-324.47
-312.78
-296.87
-279.02
-262.24
-249.07
-240.24
-234.18
-227.76
-217.69
-202.18
-181.65
-158.45
-135.86
-116.86
-103.18
-95.04
-91.50
-91.14
-92.85
-96.27
-101.93
-111.21
-126.18
-149.01
-181.13
-222.09
-268.74
-315.11
-353.48
-376.39
-378.93
-360.23
-323.37
-274.03
-218.27
-160.91
-105.03
-52.37
-4.00
39.58
78.94
116.27
155.20
199.81
252.73
313.36
377.08
435.84
480.37
503.02
500.30
474.10
431.18
380.97
332.56
292.11
261.43
238.52
219.27
199.76
178.02
154.44
130.98
109.53
90.79
73.93
57.37
40.12
22.51
6.04
-7.68
-18.09
-26.15
-33.74
-42.51
-52.79
-63.30
-71.78
-76.16
-75.61
-70.89
-64.01
-57.36
-52.79
-51.08
-51.88
-54.09
-56.44
-57.98
-58.38
-57.89
-57.12
-56.73
-57.02
-57.83
-58.41
-57.59
-54.09
-46.88
-35.56
-20.62
-3.41
14.16
30.11
42.90
51.81
56.95
59.03
58.99
57.60
55.38
52.62
49.62
46.62
43.80
41.11
38.19
34.58
30.03
24.82
19.87
16.42
15.49
17.43
21.68
26.96
31.79
34.99
36.03
34.99
32.39
28.82
24.79
20.58
16.32
12.09
7.92
3.81
-0.28
-4.46
-8.90
-13.70
-18.87
-24.27
-29.60
-34.49
-38.58
-41.61
-43.57
-44.71
-45.45
-46.35
-47.91
-50.50
-54.23
-58.90
-64.06
-69.02
-72.94
-74.92
-74.22
-70.42
-63.64
-54.60
-44.52
-34.90
-27.16
-22.42
-21.28
-23.84
-29.72
-38.26
-48.70
-60.23
-72.16
-83.83
-94.65
-104.15
-112.08
-118.58
-124.23
-129.80
-135.86
-142.39
-148.70
-153.76
-156.82
-157.80
-157.36
-156.39
-155.42
-154.25
-152.08
-147.99
-141.41
-132.33
-121.06
-107.99
-93.52
-78.22
-63.23
-50.14
-40.37
-34.17
-30.13
-25.44
-17.09
-3.21
16.08
39.04
63.49
87.99
112.56
138.46
167.54
201.24
239.75
281.46
322.85
359.05
385.04
397.18
394.61
379.54
356.42
330.18
304.52
281.12
260.19
241.32
224.37
209.65
197.56
188.36
182.46
180.79
184.67
195.02
211.13
230.00
246.58
254.96
249.89
227.90
187.84
131.02
61.30
-15.06
-90.04
-155.29
-204.10
-233.16
-243.38
-239.11
-226.50
-211.43
-198.33
-189.79
-186.84
-189.34
-196.02
-204.34
-210.65
-210.56
-200.21
-177.48
-143.01
-100.21
-54.49
-11.59
23.86
49.23
63.98
68.95
65.74
56.22
42.55
27.12
12.36
0.06
-9.22
-16.42
-23.53
-32.66
-45.06
-60.61
-77.97
-95.17
-110.28
-121.79
-128.74
-130.63
-127.31
-118.90
-105.75
-88.39
-67.49
-43.74
-17.90
8.98
35.33
59.02
77.58
88.89
91.83
86.66
74.92
58.79
40.43
21.58
3.70
-11.77
-23.05
-28.23
-25.93
-15.92
0.38
20.25
40.46
58.27
72.11
81.62
87.43
90.43
91.44
90.97
89.20
86.19
81.96
76.62
70.44
63.69
56.56
48.97
40.46
30.25
17.65
2.38
-15.04
-33.43
-51.32
-67.47
-81.32
-93.03
-103.26
-112.58
-121.29
-129.20
-135.84
-140.56
-142.72
-141.71
-137.03
-128.39
-115.94
-100.32
-82.75
-64.74
-47.83
-33.29
-21.85
-13.73
-8.68
-6.18
-5.67
-6.62
-8.60
-11.20
-14.10
-16.97
-19.55
-21.78
-23.73
-25.68
-27.93
-30.69
-34.04
-37.89
-42.01
-46.17
-50.20
-53.99
-57.49
-60.67
-63.46
-65.73
-67.27
-67.76
-66.74
-63.51
-57.10
-46.37
-30.32
-8.43
18.92
50.29
83.39
115.51
144.24
167.96
186.05
198.66
206.32
209.41
208.03
202.03
191.35
176.27
157.53
136.22
113.42
89.95
66.21
42.20
17.80
-7.09
-32.39
-57.81
-82.76
-106.17
-126.23
-140.32
-145.22
-137.82
-116.25
-80.82
-34.50
17.38
68.39
112.42
145.11
164.51
171.07
167.04
155.57
139.92
122.87
106.32
91.15
77.26
63.82
49.64
33.59
15.01
-6.19
-29.67
-54.89
-81.38
-108.75
-136.62
-164.41
-191.23
-215.92
-237.17
-253.49
-263.15
-264.18
-254.63
-233.05
-199.16
-154.29
-101.44
-44.95
10.19
59.31
98.82
126.88
143.47
149.81
147.54
137.96
121.85
100.09
74.44
47.97
24.55
7.53
-1.55
-3.39
-0.18
5.78
13.16
21.52
30.63
39.79
48.05
55.04
61.97
71.52
86.62
108.61
136.06
165.03
190.55
208.53
217.07
216.49
208.43
194.77
176.89
155.53
131.03
103.66
73.95
42.64
10.73
-20.78
-51.38
-81.19
-110.60
-139.56
-167.18
-191.67
-211.14
-224.50
-232.06
-235.19
-235.23
-232.48
-225.83
-213.49
-194.25
-168.62
-138.90
-108.29
-79.52
-54.00
-31.94
-13.26
1.24
9.61
9.19
-1.80
-23.10
-51.56
-81.55
-106.75
-121.75
-123.04
-108.85
-78.61
-32.68
26.87
95.19
164.23
224.01
265.48
283.57
278.89
257.13
226.52
194.65
166.45
143.81
126.48
113.30
102.77
93.04
81.92
67.35
48.26
25.06
-0.75
-27.54
-54.35
-81.17
-108.23
-135.09
-160.09
-180.43
-192.89
-194.52
-183.24
-158.17
-120.05
-71.68
-17.89
35.21
81.77
117.90
142.59
157.32
164.75
167.20
165.96
161.49
154.12
144.38
132.84
119.63
104.20
85.66
63.59
38.84
13.57
-9.22
-26.60
-36.50
-37.92
-30.95
-16.49
3.85
27.71
52.04
73.39
88.42
94.41
89.71
74.04
48.44
15.12
-22.87
-62.24
-100.20
-134.93
-165.75
-192.69
-215.75
-234.32
-247.13
-252.68
-249.97
-238.92
-220.49
-196.28
-168.22
-138.26
-108.28
-80.07
-55.18
-34.49
-18.00
-4.95
5.81
15.24
23.68
30.69
35.12
35.29
29.61
17.02
-2.52
-27.70
-56.06
-84.40
-109.44
-128.87
-141.96
-149.18
-151.88
-151.60
-149.45
-145.52
-138.99
-128.25
-112.31
-91.94
-69.09
-46.33
-26.20
-10.03
2.86
15.10
31.07
54.23
84.62
119.76
155.18
185.43
206.42
217.11
219.89
220.31
223.27
229.94
240.17
253.32
268.10
283.02
296.25
305.45
309.29
306.12
293.04
270.22
240.42
206.35
169.76
131.13
81.43
18.84
-41.57
-94.62
-142.17
-184.66
-222.36
-254.80
-280.35
-296.48
-299.27
-286.81
-261.95
-228.46
-190.10
-150.74
-113.25
-79.07
-48.52
-20.46
5.33
26.65
42.29
52.70
59.14
63.30
66.63
69.67
72.52
74.08
71.83
64.43
52.22
36.42
18.88
1.57
-13.78
-25.41
-32.10
-33.62
-29.89
-21.12
-8.27
6.99
22.60
36.38
46.76
52.75
53.88
50.36
42.87
32.12
18.77
3.32
-13.81
-32.19
-51.29
-70.34
-88.32
-103.86
-115.37
-121.32
-120.53
-112.61
-98.20
-78.84
-56.62
-33.83
-12.62
4.95
16.99
21.93
19.00
8.80
-6.47
-23.44
-38.58
-49.39
-55.12
-56.66
-55.69
-53.59
-50.83
-47.05
-41.73
-34.78
-26.87
-18.97
-11.83
-5.53
0.44
6.75
13.70
20.88
27.38
32.22
34.81
35.06
33.31
29.97
25.28
19.35
12.31
4.46
-3.64
-11.37
-18.13
-23.57
-27.54
-30.11
-31.43
-31.63
-30.79
-28.79
-25.41
-20.39
-13.62
-5.23
4.20
13.84
22.76
30.14
35.49
38.65
39.72
38.97
36.71
33.38
29.48
25.61
22.29
19.83
18.27
17.40
16.90
16.55
16.26
16.09
16.12
16.35
16.65
16.77
16.49
15.68
14.34
12.61
10.70
8.81
7.06
5.50
3.97
2.11
-0.51
-4.26
-9.18
-14.82
-20.19
-24.02
-25.05
-22.55
-16.57
-7.95
1.93
11.61
19.94
26.34
30.71
33.29
34.31
33.95
32.28
29.46
25.86
22.07
18.78
16.55
15.58
15.67
16.29
16.82
16.74
15.80
13.99
11.49
8.53
5.38
2.29
-0.53
-2.89
-4.71
-6.01
-6.88
-7.41
-7.62
-7.49
-7.02
-6.27
-5.46
-4.88
-4.77
-5.26
-6.37
-8.06
-10.29
-13.02
-16.03
-18.75
-20.31
-19.73
-16.31
-9.97
-1.43
8.08
17.10
24.51
29.76
32.90
34.36
34.75
34.61
34.34
34.12
34.04
34.07
34.20
34.51
35.29
36.97
39.91
44.14
49.08
53.47
55.60
53.82
47.06
35.22
19.24
0.86
-17.84
-34.89
-48.92
-59.43
-66.83
-72.27
-77.06
-82.01
-87.01
-90.91
-92.03
-89.03
-81.86
-72.05
-62.29
-55.37
-52.92
-54.63
-58.31
-60.86
-59.57
-53.22
-42.48
-29.48
-16.81
-6.52
0.50
4.44
6.16
6.52
6.05
4.87
2.88
0.02
-3.59
-7.72
-12.18
-17.01
-22.45
-28.83
-36.33
-44.77
-53.55
-61.64
-67.94
-71.56
-72.30
-70.74
-68.10
-65.70
-64.45
-64.33
-64.46
-63.46
-60.00
-53.10
-42.02
-26.05
-4.28
24.07
59.67
102.72
152.78
208.85
269.42
332.56
395.62
454.90
505.32
541.58
559.48
557.01
534.97
496.74
447.63
393.56
339.48
287.63
237.85
188.22
136.17
79.51
17.08
-50.53
-121.21
-191.80
-259.41
-320.69
-371.89
-409.28
-430.31
-434.90
-425.22
-405.50
-375.46
-336.80
-292.70
-246.69
-200.72
-154.44
-107.10
-58.92
-12.62
27.10
54.52
65.91
61.56
46.07
28.31
13.64
5.51
4.81
10.23
18.55
26.20
30.99
32.88
33.50
34.48
37.21
42.09
48.75
56.01
62.21
66.37
68.76
70.42
71.86
72.92
72.68
69.97
63.54
51.02
29.91
-1.13
-41.27
-87.35
-133.73
-173.35
-199.66
-200.23
-170.19
-116.14
-53.24
3.78
47.50
78.22
100.17
117.82
132.78
145.66
156.52
166.07
175.50
185.13
193.71
198.86
198.08
190.34
174.22
148.70
113.59
69.47
17.26
-41.86
-105.92
-171.71
-234.48
-289.09
-330.59
-355.09
-360.87
-349.44
-325.43
-295.15
-264.35
-236.40
-211.98
-189.66
-167.50
-144.78
-123.02
-105.64
-96.33
-97.18
-107.74
-125.46
-147.08
-170.10
-193.37
-216.70
-239.72
-261.11
-278.80
-291.12
-298.05
-301.70
-305.27
-311.28
-319.98
-328.90
-333.67
-329.73
-313.78
-284.42
-242.17
-189.13
-128.60
-64.76
-2.08
55.70
106.66
151.23
191.95
232.28
275.06
321.47
370.61
419.83
465.25
502.40
526.71
534.10
521.79
489.16
438.30
373.93
302.55
231.06
165.37
109.47
64.92
31.13
6.03
-13.02
-28.37
-41.61
-53.42
-63.90
-72.89
-80.15
-85.24
-87.42
-85.65
-79.01
-67.07
-50.26
-29.94
-8.06
13.30
32.47
48.51
61.25
71.11
78.74
84.57
88.71
90.97
91.20
89.62
86.88
83.92
81.55
80.15
79.61
79.44
79.18
78.56
77.45
75.78
73.32
69.70
64.60
57.99
50.21
41.93
33.85
26.57
20.32
14.97
10.06
5.02
-0.65
-7.13
-14.16
-20.99
-26.54
-29.65
-29.35
-25.16
-17.20
-6.25
6.48
19.53
31.44
40.99
47.31
50.08
49.51
46.33
41.63
36.60
32.29
29.33
27.92
27.85
28.76
30.29
32.13
33.99
35.51
36.27
35.94
34.42
31.95
28.93
25.71
22.35
18.54
13.76
7.53
-0.43
-10.06
-20.96
-32.53
-43.94
-54.30
-62.77
-68.72
-71.82
-72.18
-70.31
-67.07
-63.42
-60.03
-56.90
-53.17
-47.35
-37.87
-23.90
-5.76
15.04
36.26
55.62
71.38
82.54
88.96
91.20
90.29
87.42
83.54
79.06
73.78
67.06
58.34
47.52
35.03
21.58
7.72
-6.48
-21.38
-37.61
-55.65
-75.68
-97.52
-120.65
-144.20
-166.98
-187.57
-204.43
-216.20
-221.94
-221.45
-215.42
-205.38
-193.45
-181.74
-171.66
-163.61
-156.84
-150.03
-141.97
-132.37
-122.17
-113.24
-107.44
-105.58
-106.64
-107.81
-105.44
-96.50
-79.81
-56.22
-28.16
1.40
29.95
56.02
79.43
101.21
123.37
148.24
177.39
210.21
243.19
270.27
284.42
280.24
256.17
215.57
165.83
116.37
75.92
50.29
41.28
46.68
61.40
79.21
94.59
103.90
105.54
99.52
87.14
71.01
55.25
45.36
46.71
62.23
90.09
123.64
153.79
172.92
178.25
172.54
161.95
152.22
145.94
141.76
136.30
126.99
113.81
99.00
85.10
73.48
63.90
54.97
44.48
29.92
9.39
-17.50
-49.09
-81.74
-110.43
-130.13
-137.07
-130.90
-114.19
-90.39
-61.69
-28.66
8.10
46.36
81.60
107.87
118.08
106.34
70.15
11.05
-66.57
-156.87
-253.22
-347.73
-422.72
-458.08
-441.23
-375.32
-277.64
-169.86
-69.14
14.43
76.25
114.87
130.37
122.49
93.69
50.87
3.93
-38.08
-70.42
-93.69
-109.70
-123.27
-139.66
-161.96
-190.29
-222.83
-257.48
-293.08
-329.30
-365.75
-402.12
-436.92
-466.85
-487.37
-494.05
-484.17
-457.35
-415.10
-359.77
-294.58
-223.15
-149.08
-75.69
-5.52
60.11
121.29
179.09
234.86
289.05
340.90
388.69
430.04
462.26
482.76
489.51
481.76
460.60
428.82
390.36
349.24
308.57
270.09
234.49
201.90
172.39
146.18
123.41
104.02
87.70
73.94
62.24
52.25
43.80
36.93
31.84
28.70
27.49
27.69
28.19
27.47
24.23
18.02
9.67
1.07
-5.53
-8.48
-7.39
-3.17
2.57
8.28
13.08
16.70
19.06
19.80
18.07
12.82
3.28
-10.49
-27.53
-46.14
-64.32
-80.15
-92.11
-99.26
-101.36
-99.11
-94.00
-88.10
-83.25
-80.43
-79.28
-78.17
-74.75
-66.83
-53.34
-34.53
-11.99
12.31
36.39
58.52
77.22
91.23
99.83
102.70
100.39
93.85
84.69
74.66
65.16
57.01
50.69
46.65
44.77
44.82
45.51
45.54
43.77
39.46
32.41
22.99
12.27
0.72
-10.74
-21.50
-29.30
-30.01
-18.96
7.06
47.98
100.81
159.40
218.09
263.12
282.46
270.56
230.23
170.04
99.16
31.85
-29.05
-81.15
-121.83
-148.61
-160.87
-160.77
-154.51
-151.06
-157.46
-175.77
-202.32
-229.64
-255.25
-276.74
-293.72
-303.08
-303.86
-294.26
-272.70
-238.28
-192.34
-138.15
-79.24
-19.85
36.50
83.56
116.79
138.79
154.37
167.04
175.93
181.07
182.72
181.48
177.60
171.82
164.14
152.93
135.63
110.14
76.63
36.79
-6.59
-50.73
-92.56
-129.50
-160.26
-184.51
-202.65
-215.11
-223.04
-228.08
-232.27
-237.16
-243.73
-252.51
-262.96
-273.03
-279.05
-276.86
-263.20
-237.02
-200.05
-156.45
-111.82
-71.37
-38.55
-14.52
1.23
10.09
13.54
12.96
9.79
5.75
2.97
3.68
9.69
21.87
39.96
62.90
89.43
118.60
149.80
182.31
214.73
244.59
268.70
284.18
289.71
286.29
277.14
266.53
258.04
253.26
251.39
250.05
246.78
240.39
231.43
221.64
212.76
205.67
200.05
194.80
188.63
180.41
169.07
153.38
132.07
104.41
71.21
35.25
0.88
-27.27
-45.89
-53.96
-52.72
-44.78
-32.88
-19.20
-5.27
7.67
18.29
25.27
27.80
25.98
20.76
13.18
3.58
-8.70
-24.79
-45.11
-68.46
-91.99
-112.17
-126.28
-133.48
-134.88
-132.66
-128.85
-124.67
-120.71
-117.46
-115.79
-116.73
-120.91
-128.22
-137.44
-146.62
-153.74
-157.53
-157.75
-154.91
-149.77
-142.77
-134.21
-123.98
-111.57
-96.38
-78.15
-57.26
-34.69
-11.74
10.16
29.05
43.40
52.67
57.50
59.00
57.93
54.15
47.02
35.75
19.45
-1.76
-26.47
-52.35
-76.97
-98.33
-114.66
-124.15
-120.95
-102.70
-73.34
-42.44
-19.61
-9.20
-9.35
-15.05
-21.03
-24.66
-26.66
-28.98
-32.81
-37.59
-41.29
-42.45
-40.71
-36.65
-31.23
-25.46
-19.32
-11.68
-0.92
13.88
32.13
51.83
70.46
85.85
96.49
102.11
103.69
102.87
101.24
99.53
97.72
95.40
92.26
88.39
84.44
81.59
81.17
84.38
91.92
103.92
119.86
138.64
158.70
178.58
197.50
215.71
234.20
253.82
274.41
294.25
310.33
319.43
319.21
308.82
288.78
260.47
225.68
186.57
145.70
105.78
68.99
36.18
6.59
-21.59
-50.07
-79.29
-108.15
-134.70
-157.17
-174.53
-186.15
-191.02
-187.39
-173.53
-149.18
-116.98
-82.38
-52.16
-32.09
-25.05
-30.18
-43.42
-59.04
-71.29
-75.70
-69.94
-54.16
-31.00
-4.93
18.79
35.53
42.43
38.83
25.87
5.64
-19.75
-48.68
-80.30
-114.43
-151.63
-192.89
-239.10
-290.30
-344.94
-399.59
-449.27
-488.52
-512.61
-518.62
-506.00
-476.34
-432.79
-379.23
-319.41
-256.22
-191.33
-125.18
-57.26
13.19
86.51
161.95
237.49
310.03
375.81
431.02
472.44
497.87
506.46
498.74
476.50
442.40
399.37
350.10
296.65
240.32
181.91
122.39
63.42
7.58
-42.41
-84.94
-120.78
-152.76
-184.32
-217.35
-250.80
-280.88
-302.78
-312.86
-310.43
-297.98
-279.53
-259.20
-240.21
-224.76
-214.09
-208.12
-204.78
-200.43
-191.51
-175.75
-153.50
-127.78
-102.94
-82.95
-69.60
-61.68
-56.68
-52.52
-47.14
-38.40
-23.85
-1.46
28.82
64.50
101.29
133.02
153.45
159.45
151.67
133.77
110.32
84.62
58.49
33.38
18.56
21.22
43.80
81.12
122.97
159.83
185.97
196.77
196.59
188.39
173.35
151.92
124.12
89.53
50.51
7.59
-39.26
-89.31
-143.64
-201.38
-258.16
-307.08
-340.80
-354.47
-347.87
-324.74
-278.02
-211.89
-137.94
-69.36
-14.78
24.05
49.72
65.96
76.50
84.84
91.20
96.21
100.75
105.42
110.94
117.50
125.15
134.63
147.75
165.01
187.35
215.45
245.02
271.03
287.75
290.55
277.68
250.95
213.74
171.12
128.11
88.42
54.41
26.69
5.11
-10.19
-18.28
-18.32
-9.68
6.86
28.43
50.81
69.29
80.73
84.99
84.78
83.84
85.17
89.26
93.82
95.10
89.17
73.11
45.43
6.08
-43.50
-99.66
-155.98
-203.51
-232.76
-237.21
-216.60
-178.04
-133.99
-97.67
-78.07
-77.23
-90.81
-111.31
-132.07
-149.51
-163.15
-173.84
-181.86
-186.16
-184.99
-177.20
-163.22
-145.29
-126.36
-108.91
-94.00
-81.14
-68.87
-55.86
-41.89
-28.13
-16.66
-9.41
-7.15
-9.01
-12.71
-15.58
-15.57
-11.98
-5.55
2.06
9.04
14.11
16.81
17.54
17.15
16.56
16.31
16.48
16.68
16.26
14.63
11.40
6.60
0.56
-6.08
-12.45
-17.54
-20.26
-19.60
-14.84
-5.85
6.73
21.52
36.72
50.57
61.73
69.57
74.11
75.83
75.33
73.19
69.94
66.08
62.21
58.86
56.47
55.14
54.60
54.28
53.53
51.88
49.18
45.61
41.56
37.40
33.27
29.08
24.51
19.23
13.08
6.06
-1.58
-9.47
-17.07
-23.66
-28.33
-30.06
-28.01
-21.79
-11.76
1.09
15.28
29.33
42.07
52.77
61.12
66.96
70.19
70.78
68.85
64.88
59.70
54.35
49.78
46.50
44.50
43.24
42.06
40.40
38.04
35.07
31.65
27.88
23.79
19.45
15.16
11.38
8.43
6.18
3.84
0.27
-5.49
-13.68
-23.69
-34.51
-45.36
-56.13
-67.14
-78.56
-89.72
-98.95
-104.14
-103.58
-96.70
-84.27
-67.95
-49.58
-30.58
-11.83
6.15
22.93
38.03
51.05
61.91
70.84
78.31
84.74
90.34
95.00
98.51
100.67
101.43
100.94
99.38
96.86
93.39
88.82
82.97
75.70
66.94
56.80
45.51
33.54
21.53
10.22
0.24
-8.04
-14.75
-20.33
-25.34
-30.14
-34.61
-38.21
-40.09
-39.37
-35.42
-27.96
-17.14
-3.57
11.63
26.96
40.76
51.54
58.41
61.21
60.53
57.33
52.57
46.94
40.81
34.35
27.79
21.47
15.81
11.15
7.64
5.19
3.50
2.20
0.88
-0.78
-2.95
-5.69
-8.83
-12.10
-15.20
-17.90
-20.19
-22.23
-24.30
-26.70
-29.49
-32.44
-34.97
-36.23
-35.25
-31.17
-23.57
-12.61
0.96
15.96
31.09
45.21
57.50
67.45
74.78
79.35
81.11
80.19
76.89
71.76
65.46
58.62
51.69
44.87
38.22
31.76
25.59
19.87
14.76
10.31
6.40
2.74
-0.90
-4.63
-8.40
-11.97
-15.14
-17.81
-20.07
-22.15
-24.35
-26.95
-30.18
-34.23
-39.22
-45.18
-52.01
-59.29
-66.31
-72.12
-75.73
-76.42
-73.96
-68.73
-61.68
-54.03
-46.90
-41.05
-36.69
-33.59
-31.31
-29.44
-27.79
-26.37
-25.25
-24.35
-23.35
-21.75
-19.09
-15.21
-10.37
-5.22
-0.52
3.13
5.51
6.78
7.34
7.62
7.91
8.33
8.90
9.63
10.60
11.88
13.51
15.41
17.32
18.98
20.15
20.70
20.65
20.00
18.73
16.68
13.65
9.58
4.72
-0.25
-4.37
-6.65
-6.43
-3.65
1.17
7.09
13.05
18.17
21.91
24.02
24.41
23.08
20.07
15.51
9.71
3.20
-3.35
-9.26
-14.05
-17.60
-20.17
-22.32
-24.63
-27.45
-30.75
-34.11
-36.90
-38.51
-38.61
-37.22
-34.62
-31.22
-27.41
-23.56
-19.75
-15.99
-12.29
-8.87
-6.17
-4.66
-4.74
-6.53
-9.81
-13.85
-17.58
-19.86
-19.83
-17.10
-11.68
-4.04
5.01
14.36
23.13
30.78
37.18
42.53
47.27
52.18
57.71
63.63
68.73
72.25
74.16
75.27
76.72
79.54
85.11
94.10
106.29
119.79
133.26
145.57
155.85
162.89
165.59
164.54
160.53
153.77
142.08
124.44
101.00
73.50
44.32
16.31
-6.25
-20.25
-24.73
-22.88
-17.05
-8.83
1.16
11.95
11.74
-6.88
-44.91
-84.14
-117.89
-143.84
-164.98
-181.31
-192.45
-198.19
-197.06
-188.45
-173.13
-155.09
-136.69
-118.82
-100.79
-81.95
-61.99
-39.89
-15.61
9.53
31.81
49.10
60.90
68.25
72.28
73.78
73.92
73.42
72.31
69.40
64.68
59.06
54.01
50.50
48.55
47.94
48.03
47.66
45.12
39.57
31.15
20.81
9.76
-1.16
-11.26
-20.19
-28.45
-37.33
-48.04
-61.12
-76.03
-91.15
-104.35
-113.10
-113.09
-101.43
-78.78
-49.90
-21.65
-0.52
12.10
16.99
15.72
9.82
0.40
-11.60
-25.01
-38.19
-49.39
-57.18
-61.33
-62.41
-61.38
-59.35
-57.14
-54.93
-52.28
-48.40
-42.58
-34.81
-25.63
-15.92
-6.89
0.21
4.40
5.30
3.10
-1.50
-7.66
-14.37
-20.47
-25.00
-27.41
-27.81
-26.94
-25.97
-26.01
-27.64
-30.54
-33.58
-35.40
-35.05
-32.49
-28.47
-24.17
-20.56
-18.07
-16.49
-15.33
-14.28
-13.53
-13.67
-15.32
-18.62
-23.00
-27.26
-30.01
-30.17
-27.51
-22.80
-17.76
-14.48
-14.87
-19.89
-29.18
-41.11
-53.25
-63.32
-69.89
-72.80
-73.07
-72.32
-72.03
-72.97
-74.88
-76.63
-76.59
-73.29
-65.86
-54.39
-40.02
-24.76
-11.11
-1.66
1.54
-2.55
-13.54
-29.68
-48.31
-66.80
-83.39
-97.65
-110.38
-122.51
-134.08
-143.49
-147.81
-143.90
-129.79
-105.48
-72.78
-34.43
6.97
49.43
91.43
131.40
167.47
197.75
220.99
237.22
247.78
254.79
260.23
265.37
270.65
276.07
281.53
286.81
291.22
293.31
291.16
283.18
269.16
250.63
230.34
211.10
194.45
180.10
166.30
150.94
132.67
111.42
88.09
63.84
39.51
15.62
-7.20
-27.80
-44.69
-56.77
-64.27
-69.19
-74.83
-84.42
-99.52
-118.93
-138.80
-153.82
-159.27
-152.74
-135.11
-110.11
-82.93
-58.62
-40.76
-30.95
-28.97
-33.13
-40.83
-49.07
-55.04
-56.85
-54.01
-47.52
-39.40
-31.86
-26.52
-24.00
-24.03
-25.97
-29.12
-33.02
-37.37
-41.97
-46.70
-51.49
-56.27
-60.77
-64.28
-65.78
-64.19
-58.82
-49.77
-37.98
-24.90
-12.15
-1.06
7.47
13.12
15.98
16.50
15.30
13.10
10.51
8.06
6.03
4.56
3.60
3.00
2.56
2.15
1.77
1.49
1.43
1.65
1.97
2.06
1.47
-0.11
-2.70
-5.99
-9.45
-12.59
-15.10
-16.97
-18.41
-19.79
-21.48
-23.80
-26.94
-30.90
-35.30
-39.35
-41.91
-41.75
-38.01
-30.54
-20.12
-8.18
3.61
13.87
21.86
27.51
31.13
33.06
33.49
32.49
30.15
26.81
23.04
19.48
16.56
14.35
12.59
10.94
9.14
7.19
5.31
3.77
2.70
2.04
1.51
0.75
-0.55
-2.55
-5.21
-8.34
-11.63
-14.82
-17.76
-20.50
-23.22
-26.18
-29.63
-33.72
-38.46
-43.65
-48.82
-53.16
-55.62
-55.16
-51.08
-43.36
-32.80
-20.72
-8.67
2.07
10.81
17.40
22.02
24.98
26.49
26.68
25.70
23.82
21.43
19.01
17.00
15.69
15.20
15.42
16.14
17.12
18.14
19.09
19.85
20.28
20.15
19.27
17.56
15.18
12.51
9.98
7.94
6.50
5.50
4.68
3.65
2.10
-0.16
-3.12
-6.38
-9.08
-10.01
-7.89
-1.87
8.14
21.31
36.17
51.06
64.66
76.20
85.42
92.34
97.05
99.66
100.44
100.03
99.40
99.64
101.61
105.60
111.28
117.88
124.46
130.28
134.95
138.37
140.65
141.99
142.64
142.87
142.88
142.71
142.15
140.79
138.14
133.87
127.93
120.60
112.27
103.34
94.15
84.95
76.03
67.80
60.68
55.00
50.86
48.10
46.41
45.40
44.61
43.57
41.76
38.73
34.29
28.54
21.91
14.92
7.97
1.21
-5.46
-12.11
-18.73
-25.09
-30.87
-35.81
-39.86
-43.14
-45.88
-48.29
-50.51
-52.69
-54.93
-57.35
-60.05
-63.08
-66.50
-70.34
-74.80
-80.17
-86.79
-94.92
-104.55
-115.32
-126.56
-137.40
-147.14
-155.37
-162.20
-168.12
-173.84
-180.02
-187.03
-194.81
-202.95
-210.89
-218.31
-225.38
-232.81
-241.57
-252.29
-264.69
-277.41
-288.44
-295.84
-298.58
-296.75
-291.40
-283.88
-275.58
-267.85
-262.06
-259.33
-259.78
-261.77
-261.76
-255.44
-239.57
-213.87
-181.56
-148.19
-119.28
-98.18
-85.18
-78.34
-74.97
-72.87
-70.48
-66.31
-58.37
-44.36
-22.61
6.93
42.18
79.27
113.75
141.87
161.61
172.97
177.55
177.85
176.28
174.49
173.11
171.98
170.80
169.79
170.04
173.07
180.08
191.07
204.42
217.29
226.55
229.68
225.28
213.08
193.46
166.89
133.62
93.95
48.87
0.50
-48.01
-93.24
-132.59
-164.85
-189.74
-206.71
-213.96
-208.79
-189.39
-157.13
-117.64
-79.68
-51.59
-37.52
-35.46
-38.50
-38.58
-30.61
-14.66
5.10
23.55
37.80
48.32
57.64
67.73
78.00
85.24
85.56
76.83
59.98
38.72
17.58
-0.21
-13.73
-23.99
-32.58
-40.50
-47.62
-53.01
-55.74
-55.53
-52.78
-48.30
-42.98
-37.56
-32.49
-28.00
-24.13
-20.79
-17.86
-15.37
-13.69
-13.51
-15.65
-20.80
-29.14
-40.17
-52.66
-64.90
-75.14
-81.97
-84.63
-82.98
-77.23
-67.57
-54.12
-37.02
-16.76
5.61
28.57
50.70
71.24
90.41
109.59
130.84
156.13
186.40
220.88
256.79
289.93
315.79
330.64
332.21
319.75
293.63
255.20
206.81
152.17
96.19
44.15
0.09
-34.70
-62.10
-86.20
-111.18
-139.09
-168.73
-196.00
-215.49
-222.39
-213.95
-190.18
-153.54
-108.03
-58.11
-7.96
38.82
79.06
109.70
128.14
133.06
125.68
110.32
93.81
83.22
83.18
93.86
110.96
127.69
137.79
137.93
128.47
112.33
93.04
73.08
53.46
34.25
15.64
-1.52
-15.82
-26.10
-32.18
-35.15
-37.00
-39.71
-44.34
-50.43
-56.12
-58.86
-56.48
-48.04
-34.23
-17.06
0.97
17.63
31.63
42.60
50.77
56.53
60.07
61.35
60.24
56.79
51.34
44.59
37.39
30.58
24.72
19.94
16.01
12.47
8.79
4.66
-0.09
-5.43
-11.30
-17.62
-24.39
-31.56
-39.13
-47.09
-55.47
-64.38
-73.90
-83.99
-94.30
-104.11
-112.27
-117.44
-118.43
-114.56
-105.97
-93.62
-79.09
-64.13
-50.27
-38.49
-29.14
-22.05
-16.75
-12.71
-9.39
-6.30
-2.97
1.06
6.36
13.45
22.75
34.35
47.89
62.60
77.45
91.48
103.99
114.59
122.83
128.05
129.43
126.25
118.57
107.53
95.32
84.66
77.90
76.33
79.92
87.45
97.14
107.21
116.32
123.71
129.08
132.55
134.48
135.48
136.28
137.45
138.98
140.02
138.74
132.90
120.61
101.10
75.02
44.13
10.54
-23.84
-57.52
-89.23
-117.65
-141.39
-159.42
-171.55
-178.69
-182.51
-184.79
-186.72
-188.68
-190.47
-191.86
-192.89
-193.94
-195.42
-197.45
-199.81
-202.12
-204.11
-205.96
-208.14
-211.10
-214.79
-218.27
-219.63
-216.21
-205.13
-183.90
-150.93
-106.03
-50.49
12.97
80.66
148.31
211.67
266.91
310.99
342.05
359.59
364.59
359.15
345.97
327.49
305.32
280.07
251.73
220.37
186.69
152.21
118.88
88.29
61.02
36.47
13.04
-11.21
-37.91
-67.87
-100.87
-135.55
-169.52
-199.51
-221.88
-233.47
-232.69
-220.34
-199.76
-175.83
-153.21
-134.64
-120.09
-107.30
-93.37
-76.55
-57.14
-37.29
-19.83
-6.97
0.45
2.86
1.33
-3.09
-9.65
-17.69
-26.32
-34.28
-40.11
-42.52
-40.92
-35.65
-28.01
-19.77
-12.57
-7.28
-3.62
-0.24
4.85
13.61
27.13
45.14
66.00
87.33
106.80
122.86
134.76
142.37
145.64
144.29
138.24
128.39
117.17
108.14
104.59
107.38
114.65
122.78
128.12
128.66
124.67
118.48
113.28
112.42
117.84
130.62
150.59
175.45
200.27
218.41
223.77
213.12
187.83
151.99
111.95
74.11
42.73
18.82
0.40
-16.28
-35.89
-62.63
-101.09
-152.87
-215.06
-280.40
-339.34
-382.87
-405.04
-404.73
-374.13
-313.55
-231.43
-141.17
-55.20
17.24
68.39
95.12
96.58
77.28
45.87
14.57
-5.87
-9.71
0.81
16.70
26.03
19.85
-3.69
-40.70
-81.74
-116.86
-136.89
-135.22
-109.05
-61.94
-2.27
59.10
110.78
145.64
159.02
150.66
123.56
81.41
25.03
-45.77
-129.13
-219.63
-306.28
-379.39
-431.34
-458.39
-447.46
-395.53
-312.64
-217.39
-135.42
-64.47
3.60
73.98
145.84
211.12
258.65
281.07
278.78
254.17
215.97
171.13
125.28
83.50
51.39
34.02
34.29
50.61
77.85
109.23
134.84
147.11
144.13
125.90
96.77
61.92
25.11
-11.77
-46.74
-79.05
-107.42
-130.09
-146.08
-155.53
-160.39
-162.96
-164.06
-161.82
-153.57
-136.75
-110.48
-76.16
-36.52
4.33
42.19
74.31
100.06
120.23
136.21
148.43
155.93
157.35
150.46
133.21
105.53
69.88
31.21
-4.11
-30.17
-41.78
-34.32
-5.95
41.27
102.41
169.83
235.52
293.36
339.79
364.41
360.49
327.23
270.88
202.99
134.15
71.68
22.26
-17.74
-53.43
-88.46
-124.84
-162.55
-197.79
-222.16
-228.26
-212.20
-176.03
-125.77
-68.27
-5.77
51.79
104.46
151.64
191.69
222.37
241.29
247.74
243.05
229.21
207.34
179.45
146.76
111.22
75.69
42.72
13.58
-12.77
-39.68
-71.87
-112.05
-161.53
-219.49
-283.42
-350.14
-416.43
-479.30
-535.95
-583.82
-619.56
-640.50
-644.76
-631.69
-602.24
-558.85
-504.96
-444.39
-380.81
-316.88
-254.94
-197.18
-145.81
-102.85
-69.65
-46.26
-31.21
-21.97
-15.65
-9.86
-2.93
6.34
18.93
35.62
56.49
80.37
104.77
126.49
142.67
151.79
153.98
150.54
142.95
132.04
117.78
99.76
77.98
53.42
28.07
4.49
-14.80
-27.77
-33.06
-30.01
-18.78
-0.42
23.19
49.57
76.20
101.09
123.02
141.34
155.64
165.39
169.99
169.17
163.47
154.45
144.34
135.33
128.85
125.20
123.68
123.19
122.88
122.47
122.26
122.80
124.37
126.77
129.27
130.83
130.49
127.64
122.10
114.00
103.60
91.14
77.01
61.88
46.92
33.75
24.11
19.31
19.83
25.10
33.76
44.03
54.17
62.82
69.06
72.41
72.79
70.46
66.01
60.31
54.28
48.74
44.26
41.15
39.51
39.32
40.39
42.36
44.60
46.30
46.65
45.08
41.40
35.88
29.09
21.68
14.26
7.17
0.60
-5.48
-11.12
-16.37
-21.16
-25.28
-28.40
-30.12
-30.03
-27.92
-23.77
-17.87
-10.79
-3.23
4.07
10.45
15.39
18.47
19.40
18.05
14.50
9.17
2.82
-3.58
-9.07
-12.88
-14.67
-14.45
-12.59
-9.59
-6.01
-2.34
1.03
3.86
6.05
7.59
8.56
8.99
8.84
7.97
6.07
2.78
-2.16
-8.69
-16.31
-23.96
-30.25
-33.81
-33.73
-29.90
-23.09
-14.71
-6.33
0.76
5.83
8.75
9.86
9.73
8.97
8.18
7.87
8.40
9.89
12.15
14.65
16.71
17.67
17.21
15.45
12.91
10.27
8.11
6.67
5.81
5.19
4.36
3.08
1.29
-0.93
-3.47
-6.24
-9.15
-11.96
-14.14
-15.00
-13.78
-10.11
-4.23
2.94
10.09
15.91
19.62
21.14
20.98
19.86
18.28
16.34
13.83
10.48
6.22
1.31
-3.83
-8.82
-13.41
-17.54
-21.16
-24.11
-26.12
-26.95
-26.56
-25.20
-23.37
-21.58
-20.20
-19.36
-19.01
-19.06
-19.51
-20.37
-21.59
-22.83
-23.44
-22.60
-19.73
-14.73
-8.21
-1.31
4.71
8.91
10.98
11.26
10.37
8.93
7.21
5.15
2.38
-1.42
-6.39
-12.27
-18.51
-24.34
-29.01
-31.99
-33.02
-32.15
-29.67
-26.03
-21.74
-17.31
-13.12
-9.33
-5.84
-2.36
1.33
5.09
8.27
9.83
8.82
4.91
-1.31
-8.37
-14.37
-17.62
-17.10
-12.70
-5.01
4.94
16.05
27.31
37.90
47.18
54.65
59.97
62.97
63.71
62.46
59.73
56.08
52.06
47.95
43.77
39.32
34.34
28.72
22.64
16.47
10.66
5.47
0.92
-3.25
-7.36
-11.73
-16.58
-22.03
-28.10
-34.74
-41.77
-48.80
-55.21
-60.25
-63.30
-64.10
-62.83
-60.07
-56.57
-52.94
-49.35
-45.50
-40.64
-34.02
-25.20
-14.29
-1.97
10.68
22.53
32.64
40.51
46.07
49.54
51.26
51.60
51.04
49.87
48.22
46.12
43.76
41.56
40.15
40.10
41.77
45.40
50.54
56.20
60.99
63.50
62.76
58.65
52.20
45.81
43.12
47.07
58.67
76.33
96.34
114.35
126.67
131.26
128.09
119.23
106.79
92.32
76.50
59.49
41.40
22.24
1.88
-22.60
-50.30
-77.54
-99.62
-113.80
-121.83
-127.42
-134.03
-144.62
-161.56
-183.79
-209.60
-235.86
-258.11
-271.17
-270.31
-253.15
-220.75
-177.42
-129.11
-82.73
-44.37
-18.17
-5.48
-4.68
-11.92
-22.18
-30.62
-33.54
-29.95
-21.42
-11.13
-2.05
4.57
9.63
15.55
24.92
39.47
59.11
82.15
105.97
127.64
144.45
153.98
154.42
144.94
126.25
100.48
70.84
40.67
12.71
-11.41
-31.17
-46.72
-58.49
-66.84
-72.13
-74.75
-75.19
-73.99
-71.61
-68.42
-64.68
-60.68
-56.80
-53.53
-51.35
-50.53
-50.97
-52.26
-53.77
-54.96
-55.59
-55.82
-56.13
-57.09
-59.09
-62.15
-65.81
-69.07
-70.62
-69.08
-63.39
-53.17
-38.91
-21.89
-3.86
13.41
28.53
40.65
49.49
55.13
57.84
57.98
55.95
52.25
47.54
42.59
38.18
34.96
33.32
33.39
35.01
37.80
41.25
44.82
48.00
50.38
51.71
51.82
50.54
47.73
43.17
36.64
28.07
17.53
5.29
-8.30
-22.96
-38.49
-54.63
-70.75
-85.67
-97.81
-105.56
-107.89
-104.55
-96.05
-83.22
-66.81
-47.24
-24.89
-0.43
24.70
48.36
68.26
82.77
91.50
95.37
95.94
94.60
91.92
87.65
81.13
71.93
60.12
46.17
30.57
13.62
-4.43
-23.03
-41.03
-56.77
-68.41
-74.42
-73.76
-65.85
-50.46
-27.58
2.37
38.33
78.49
120.42
161.24
197.93
227.59
247.78
256.96
254.94
242.97
223.49
199.43
173.32
146.79
120.46
94.28
67.98
41.47
15.03
-10.88
-35.78
-59.44
-81.97
-103.98
-126.16
-148.77
-170.70
-189.27
-200.78
-201.93
-191.47
-171.02
-144.65
-117.18
-92.35
-71.69
-54.73
-39.99
-26.04
-12.01
2.56
18.03
34.50
51.30
66.53
77.33
80.99
76.25
63.99
46.98
28.68
12.04
-1.31
-10.84
-16.54
-18.22
-15.56
-8.52
2.07
14.42
26.25
35.59
41.27
43.12
41.50
36.76
28.99
18.20
4.76
-10.32
-25.63
-40.02
-53.00
-64.69
-75.41
-85.44
-95.01
-104.49
-114.41
-125.29
-137.37
-149.83
-160.67
-167.41
-168.23
-163.04
-153.50
-141.89
-130.11
-119.17
-108.62
-96.95
-82.07
-62.00
-35.81
-4.11
31.06
66.39
97.96
121.40
132.95
132.07
122.48
109.92
98.50
89.09
82.03
75.00
67.33
60.26
56.31
58.10
67.02
81.72
100.44
120.85
139.73
153.75
159.64
155.40
141.39
120.21
96.23
74.33
58.07
46.37
37.18
27.22
13.81
-3.40
-22.90
-42.21
-58.78
-70.48
-76.02
-74.45
-66.16
-54.79
-43.55
-36.39
-36.45
-44.30
-56.97
-69.23
-75.64
-73.30
-62.87
-47.66
-32.25
-19.26
-10.43
-5.67
-3.78
-3.23
-3.03
-2.64
-1.58
0.18
2.32
4.23
5.68
7.09
9.78
15.45
25.41
39.95
57.58
75.38
89.59
96.76
94.16
80.48
56.28
23.99
-12.35
-48.14
-79.26
-103.31
-120.00
-131.25
-139.50
-146.25
-151.36
-153.38
-150.69
-142.88
-131.38
-119.05
-109.30
-103.71
-101.26
-99.03
-93.83
-83.75
-68.64
-49.38
-24.37
5.67
37.54
65.76
84.84
92.05
88.76
79.52
69.85
63.41
58.98
53.36
44.11
31.30
17.90
8.27
5.82
11.74
24.50
40.61
57.58
74.96
93.16
112.18
130.50
145.31
154.67
157.23
153.35
145.52
136.69
128.13
119.48
109.97
99.41
89.86
82.25
76.26
70.55
62.17
46.31
18.27
-24.53
-81.21
-145.94
-213.06
-277.62
-335.58
-376.26
-390.53
-375.63
-337.51
-297.95
-264.03
-237.68
-218.92
-203.26
-188.21
-172.81
-156.75
-139.58
-120.04
-94.44
-61.52
-22.05
21.36
64.01
99.96
124.12
134.29
131.82
121.81
108.24
93.44
78.58
63.94
49.75
36.83
26.55
20.58
21.10
28.39
41.66
59.81
81.39
104.75
128.01
149.29
167.16
181.65
193.25
203.37
213.81
225.65
238.65
251.00
260.17
264.31
263.64
259.51
254.22
249.85
247.25
246.12
244.97
241.31
232.10
214.67
186.47
146.92
98.24
45.28
-5.59
-49.05
-83.04
-111.10
-136.44
-162.22
-188.99
-214.60
-238.55
-261.56
-285.32
-311.71
-341.68
-369.99
-391.57
-401.89
-398.49
-381.90
-354.75
-320.71
-283.27
-245.06
-207.55
-172.09
-139.14
-108.24
-78.28
-47.73
-15.63
17.99
52.31
86.75
120.85
154.65
187.80
218.24
242.34
255.90
256.35
244.44
224.43
201.84
181.18
164.10
149.28
134.17
117.04
98.13
79.49
63.63
51.94
44.27
39.40
35.98
33.35
31.64
31.35
32.82
36.06
40.85
47.11
55.04
64.80
75.99
87.30
96.62
101.85
101.81
96.92
88.91
79.88
71.00
61.81
50.58
35.60
16.62
-4.36
-23.69
-37.67
-44.37
-44.43
-40.53
-35.70
-31.70
-28.38
-24.61
-19.91
-16.01
-17.04
-28.31
-54.21
-96.49
-153.43
-220.21
-290.08
-355.59
-409.69
-446.67
-463.14
-458.52
-435.27
-398.42
-354.37
-309.45
-268.48
-233.84
-205.31
-180.74
-157.23
-132.41
-105.43
-77.06
-49.05
-22.87
1.32
24.74
49.25
75.85
103.60
129.66
150.50
163.74
169.56
170.79
171.57
175.40
183.51
194.47
205.35
213.44
217.66
218.77
218.63
218.93
220.20
221.69
222.00
219.97
215.32
208.82
201.87
195.87
191.54
188.47
185.24
180.00
171.41
159.37
145.12
130.50
116.62
102.87
86.93
66.04
38.62
5.40
-31.06
-67.99
-104.46
-142.09
-183.66
-230.53
-280.62
-328.55
-367.96
-394.36
-406.63
-406.16
-394.41
-370.95
-333.69
-281.29
-216.11
-145.46
-80.06
-30.07
-0.98
8.30
4.16
-5.23
-13.66
-18.80
-21.68
-24.61
-28.89
-33.62
-36.15
-33.54
-24.41
-9.56
8.38
26.28
41.89
54.70
65.75
76.88
89.72
104.94
122.20
140.45
158.55
175.90
192.62
209.30
226.54
244.49
262.51
279.30
293.25
302.67
306.11
302.57
291.75
274.14
251.00
224.15
195.59
167.09
140.07
115.40
93.46
74.31
57.82
43.72
31.67
21.25
11.97
3.37
-4.80
-12.52
-19.70
-26.41
-33.07
-40.41
-49.38
-60.63
-74.59
-91.45
-111.57
-135.76
-164.93
-199.36
-237.61
-276.03
-309.29
-331.90
-340.02
-332.56
-311.13
-279.06
-240.47
-199.69
-161.26
-129.66
-108.42
-98.61
-98.41
-103.86
-111.12
-118.27
-125.67
-134.45
-144.08
-151.22
-150.56
-137.57
-111.25
-74.84
-34.52
3.44
34.95
58.83
75.89
87.40
93.80
94.44
88.27
74.81
55.24
32.83
12.63
0.18
-0.09
13.97
42.16
82.75
133.40
191.70
254.62
317.67
374.37
417.06
438.75
435.26
406.65
357.16
294.07
225.76
160.01
102.86
58.16
27.70
11.39
7.31
11.79
19.79
25.84
25.38
16.05
-1.70
-25.14
-50.46
-74.31
-94.67
-110.96
-123.47
-132.72
-139.27
-143.90
-147.74
-152.08
-157.61
-163.79
-168.80
-170.28
-166.34
-156.53
-141.85
-123.97
-104.23
-83.09
-60.38
-36.27
-12.11
9.44
25.32
33.26
32.85
25.70
14.79
3.14
-7.19
-15.32
-20.76
-22.48
-18.58
-7.02
12.81
38.95
66.88
91.10
107.48
115.10
116.30
115.13
114.84
116.23
117.60
116.22
110.15
99.31
85.25
69.95
54.80
40.35
26.60
13.55
1.53
-8.91
-17.37
-23.90
-28.99
-33.42
-37.96
-43.31
-49.94
-58.06
-67.38
-76.95
-85.27
-90.71
-92.11
-89.33
-83.23
-75.40
-67.50
-60.84
-56.05
-53.03
-51.11
-49.22
-46.04
-40.24
-30.84
-17.77
-2.12
14.05
28.53
39.47
45.87
47.62
45.52
40.85
34.92
28.58
21.99
15.04
7.35
-1.64
-11.83
-22.05
-30.36
-35.28
-36.88
-37.10
-38.08
-41.03
-45.32
-48.42
-46.92
-38.29
-22.05
0.15
25.51
52.29
79.42
104.75
123.23
129.19
120.58
100.92
78.73
58.25
41.18
27.22
14.95
3.10
-9.44
-23.15
-38.26
-55.32
-75.35
-98.74
-125.09
-152.76
-177.95
-194.68
-196.39
-179.36
-145.84
-104.65
-67.78
-45.85
-43.39
-56.82
-76.27
-90.18
-90.66
-76.61
-53.31
-28.91
-10.91
-3.80
-8.09
-20.64
-35.78
-46.75
-47.00
-31.71
1.24
50.51
111.36
176.84
239.43
292.89
333.33
359.65
372.81
375.39
370.36
360.29
347.25
332.52
316.62
299.32
279.93
257.78
232.75
205.86
179.36
156.46
140.33
133.03
134.61
142.62
152.82
160.44
162.58
159.80
156.08
156.66
164.90
179.91
196.38
206.80
204.85
188.48
160.37
126.01
90.43
56.31
23.65
-8.92
-42.23
-76.10
-108.96
-138.91
-164.72
-186.48
-205.34
-222.71
-239.36
-255.24
-270.88
-286.30
-301.16
-315.15
-328.31
-341.02
-353.73
-366.38
-379.06
-394.77
-416.01
-443.57
-475.51
-507.70
-535.54
-555.64
-566.45
-569.07
-569.45
-571.44
-575.13
-577.68
-576.57
-571.86
-565.80
-559.74
-553.80
-550.82
-550.92
-552.39
-552.96
-551.54
-548.29
-543.56
-536.03
-490.94
-392.65
-248.65
-86.91
61.79
179.24
262.24
311.87
342.20
363.04
375.05
377.66
372.18
363.08
354.20
348.87
349.02
356.20
369.62
384.67
397.24
405.25
409.22
411.34
414.42
420.97
433.61
453.18
478.96
509.81
544.81
582.97
622.08
657.61
682.41
688.72
670.15
626.15
561.44
484.97
406.14
331.58
263.98
203.14
148.78
89.60
25.23
-37.69
-90.49
-129.45
-157.13
-178.20
-194.98
-206.13
-209.08
-199.03
-177.63
-150.19
-123.61
-103.43
-92.06
-88.75
-91.15
-97.16
-103.75
-110.89
-118.03
-124.39
-128.81
-130.26
-128.49
-124.49
-120.52
-117.31
-114.35
-109.96
-101.72
-87.56
-66.90
-40.53
-10.64
18.82
43.75
59.78
62.06
47.61
16.14
-29.09
-80.95
-126.98
-158.54
-175.05
-179.06
-176.78
-172.43
-166.51
-155.72
-133.60
-94.22
-35.95
37.83
120.38
202.37
277.51
342.27
387.21
402.68
383.38
332.30
260.96
190.86
128.79
76.63
34.00
-2.08
-34.22
-63.24
-88.31
-107.32
-117.66
-119.88
-114.98
-104.87
-93.62
-85.08
-80.91
-80.57
-82.66
-86.06
-92.58
-103.23
-116.72
-131.31
-144.17
-151.44
-150.13
-140.22
-119.10
-89.89
-65.97
-52.66
-46.92
-44.96
-42.94
-38.70
-32.79
-27.08
-24.57
-26.21
-29.75
-33.29
-36.72
-41.05
-44.85
-47.12
-46.09
-41.20
-32.75
-21.29
-8.80
2.23
10.64
16.67
19.78
20.80
19.65
16.37
12.39
9.42
8.81
11.49
17.51
25.53
34.50
42.74
49.12
53.86
58.01
63.20
70.79
81.56
94.63
107.83
117.65
120.91
116.21
104.40
88.00
70.25
54.89
42.61
33.29
26.33
21.26
17.79
15.79
14.97
14.80
14.56
13.43
11.20
8.11
4.83
2.18
0.76
0.62
1.10
1.08
-0.73
-5.05
-12.01
-21.09
-31.51
-42.63
-54.20
-66.49
-79.83
-94.23
-108.85
-122.19
-132.56
-138.73
-140.27
-137.41
-130.70
-120.67
-107.96
-93.54
-79.17
-67.20
-59.93
-58.73
-63.49
-72.77
-84.56
-97.26
-110.04
-122.64
-134.82
-145.76
-154.13
-158.42
-157.64
-151.54
-140.47
-124.85
-104.71
-79.64
-49.07
-12.91
28.23
72.90
119.16
164.90
208.07
246.68
279.00
303.66
319.89
327.61
327.29
319.78
306.31
288.67
269.20
250.40
234.14
220.77
208.94
195.83
178.19
153.64
121.74
84.26
44.56
6.46
-27.03
-54.02
-74.35
-89.26
-100.63
-110.03
-118.01
-124.03
-127.28
-127.58
-125.27
-121.52
-117.52
-113.78
-109.64
-103.49
-93.57
-79.00
-60.42
-39.08
-16.63
5.64
27.39
49.14
72.02
97.07
124.64
149.45
166.21
171.41
164.91
149.25
127.22
100.41
69.44
35.07
-0.65
-34.08
-61.60
-81.15
-93.07
-99.69
-103.91
-107.64
-112.17
-116.54
-118.76
-117.31
-111.95
-103.97
-95.65
-89.19
-85.80
-85.80
-88.69
-93.71
-100.59
-109.54
-120.75
-133.64
-146.52
-154.66
-154.05
-142.04
-118.10
-83.79
-41.95
4.29
52.00
98.48
140.92
175.84
199.99
211.23
209.41
196.61
176.52
153.25
130.28
109.73
91.97
76.27
61.28
45.73
28.96
11.26
-6.21
-21.92
-34.59
-44.04
-50.94
-56.45
-61.56
-66.54
-70.91
-73.92
-74.99
-74.13
-72.04
-69.83
-68.63
-69.11
-71.15
-73.76
-75.48
-75.09
-72.27
-67.87
-63.41
-60.19
-58.49
-57.47
-55.77
-52.57
-48.16
-43.75
-40.61
-39.02
-37.92
-35.36
-29.44
-19.10
-4.39
13.99
35.26
58.95
84.80
112.40
140.75
168.07
192.02
210.24
221.02
223.75
219.15
208.95
195.36
180.45
165.65
151.60
138.37
125.83
113.97
103.01
93.21
84.63
77.02
69.90
62.82
55.62
48.28
40.79
32.77
23.46
11.91
-2.51
-19.71
-38.68
-57.85
-75.54
-90.59
-102.52
-111.56
-118.30
-123.30
-126.94
-129.31
-130.37
-130.16
-128.84
-126.73
-124.20
-121.54
-118.92
-116.51
-114.68
-113.98
-115.06
-118.16
-122.72
-127.26
-129.84
-128.75
-123.29
-113.97
-102.23
-89.76
-77.73
-66.56
-56.04
-45.80
-35.75
-26.23
-17.97
-11.75
-8.15
-7.37
-9.13
-12.70
-17.04
-20.98
-23.51
-23.97
-22.19
-18.59
-14.34
-11.14
-10.79
-14.21
-20.68
-27.54
-30.90
-27.25
-15.18
3.77
25.57
45.52
60.35
69.41
74.50
78.55
83.95
91.60
100.92
110.66
119.66
127.26
133.09
136.64
136.99
133.00
123.93
110.05
92.87
74.74
58.07
44.52
34.50
27.28
21.54
16.04
10.03
3.41
-3.59
-10.69
-17.82
-25.11
-32.75
-40.89
-49.49
-58.30
-66.87
-74.62
-81.02
-85.76
-88.89
-90.86
-92.24
-93.38
-94.12
-93.73
-91.18
-85.59
-76.60
-64.49
-50.01
-34.07
-17.41
-0.51
16.35
32.98
49.07
64.23
77.99
89.95
99.84
107.61
113.46
117.76
121.06
123.98
127.07
130.72
135.03
139.82
144.69
149.08
152.32
153.64
152.09
146.73
136.72
121.63
101.62
77.54
50.74
22.85
-4.58
-30.25
-53.21
-72.75
-88.41
-99.83
-106.82
-109.31
-107.29
-100.76
-89.76
-74.50
-55.48
-33.67
-10.51
12.23
32.74
49.42
61.13
67.29
67.92
63.60
55.43
44.86
33.52
22.92
14.22
8.01
4.35
2.88
3.01
4.04
5.34
6.30
6.50
5.73
4.11
2.09
0.34
-0.48
0.00
1.75
4.34
7.07
9.20
10.14
9.51
7.26
3.72
-0.35
-3.78
-5.28
-3.70
1.58
10.44
22.01
34.87
47.40
58.07
65.67
69.49
69.36
65.59
58.92
50.31
40.79
31.32
22.77
15.78
10.76
7.68
6.06
5.09
3.85
1.63
-1.90
-6.65
-12.32
-18.62
-25.40
-32.60
-40.12
-47.78
-55.29
-62.46
-69.36
-76.42
-84.38
-93.99
-105.54
-118.30
-130.33
-138.66
-140.16
-132.74
-116.36
-93.31
-67.53
-43.28
-23.75
-10.32
-2.72
0.17
-0.52
-4.10
-10.11
-17.85
-26.20
-33.71
-39.08
-41.63
-41.43
-39.12
-35.54
-31.34
-26.91
-22.42
-17.93
-13.51
-9.31
-5.53
-2.47
-0.48
0.15
-0.79
-3.22
-6.72
-10.64
-14.31
-17.28
-19.47
-21.17
-22.91
-25.19
-28.30
-32.19
-36.40
-40.11
-42.27
-41.83
-37.97
-30.43
-19.60
-6.49
7.58
21.27
33.56
43.82
51.78
57.32
60.42
61.16
59.74
56.52
52.00
46.69
41.03
35.32
29.71
24.25
18.90
13.67
8.52
3.57
-0.78
-3.78
-4.89
-3.90
-1.13
2.75
6.89
10.34
12.48
13.13
12.63
11.38
9.63
7.39
4.56
0.87
-4.28
-11.39
-20.54
-30.71
-40.55
-48.38
-52.49
-51.44
-44.63
-33.48
-20.19
-6.96
5.95
18.13
29.28
38.95
47.02
53.28
55.46
51.67
41.15
27.13
11.65
-4.11
-20.13
-36.00
-51.20
-68.29
-89.46
-115.55
-141.89
-166.43
-188.95
-211.23
-234.21
-258.17
-286.84
-322.72
-365.79
-408.36
-445.93
-476.71
-502.14
-523.23
-515.58
-464.01
-366.13
-264.87
-175.88
-103.63
-38.31
22.16
77.74
127.42
166.13
190.22
199.03
200.14
198.44
196.41
193.50
189.67
185.26
178.07
166.93
152.46
140.76
134.88
135.32
139.89
146.74
154.47
160.15
161.57
157.65
151.07
143.24
134.82
125.61
116.15
107.22
98.56
89.69
80.30
71.70
64.63
59.54
56.27
54.52
53.39
51.06
45.78
36.71
25.07
13.08
3.30
-2.44
-3.67
-1.38
2.60
6.47
9.26
10.95
12.16
13.49
15.16
17.06
18.97
20.91
23.17
26.24
30.47
35.94
42.34
49.10
55.57
61.17
65.45
68.12
69.06
68.23
65.70
61.49
55.61
47.96
38.48
27.26
14.71
1.64
-10.83
-21.62
-29.99
-35.83
-39.51
-41.74
-43.24
-44.53
-45.71
-46.42
-45.92
-43.40
-38.20
-29.92
-18.61
-4.85
10.16
24.83
37.64
47.48
53.85
56.82
57.08
55.46
52.67
49.05
44.91
41.20
39.19
40.13
44.19
51.05
59.65
68.62
76.40
81.82
85.05
86.63
86.96
85.11
80.80
74.35
66.67
58.47
50.10
42.67
36.64
31.73
25.65
17.77
9.26
2.84
1.26
6.58
21.09
45.21
77.08
110.96
142.21
167.59
185.51
194.69
184.69
149.05
87.77
20.32
-43.34
-98.05
-144.30
-181.07
-208.24
-226.73
-236.62
-238.34
-232.88
-223.82
-213.25
-202.16
-190.65
-179.22
-168.48
-157.77
-146.43
-134.23
-123.09
-113.86
-106.31
-99.04
-90.49
-79.00
-62.50
-39.85
-11.44
19.73
50.53
78.34
101.62
119.62
132.38
140.74
145.58
147.54
146.59
143.24
138.64
134.27
131.16
129.36
127.94
125.19
119.56
110.27
98.07
84.72
72.04
60.83
50.61
40.08
28.05
14.16
-0.91
-15.91
-29.73
-42.01
-53.28
-64.71
-77.64
-93.03
-110.91
-130.10
-148.24
-162.29
-169.53
-168.47
-159.55
-145.15
-128.83
-114.41
-104.90
-101.93
-105.50
-114.08
-125.01
-135.10
-141.37
-141.82
-135.98
-124.84
-110.12
-93.38
-75.21
-55.08
-31.92
-5.04
25.17
57.21
89.21
119.81
148.74
176.49
203.44
228.92
250.89
266.49
273.07
269.15
254.84
231.51
201.30
166.64
130.09
94.47
62.76
37.67
20.93
12.62
11.18
13.86
17.64
19.95
19.04
14.04
4.73
-8.54
-24.82
-42.58
-59.82
-74.42
-84.67
-89.66
-89.54
-85.34
-78.62
-70.96
-63.67
-57.64
-53.43
-51.39
-51.61
-53.81
-57.15
-60.38
-62.02
-60.97
-56.91
-50.50
-43.20
-36.75
-32.62
-31.66
-33.97
-39.01
-45.72
-52.76
-58.63
-62.00
-62.05
-58.87
-53.53
-47.83
-43.68
-42.47
-44.54
-49.20
-55.13
-60.94
-65.77
-69.45
-72.39
-75.26
-78.65
-82.98
-88.34
-94.67
-101.73
-109.08
-115.96
-121.26
-123.66
-121.94
-115.42
-104.37
-89.99
-74.12
-58.62
-44.87
-33.33
-23.69
-15.18
-6.88
2.01
12.23
24.48
39.41
57.30
77.89
100.15
122.54
143.34
161.20
175.33
185.57
192.08
195.11
194.88
191.64
185.84
178.19
169.56
160.73
152.18
144.14
136.69
130.02
124.48
120.40
117.85
116.41
115.23
113.35
110.08
105.28
99.29
92.66
85.76
78.55
70.63
61.53
51.01
39.23
26.79
14.55
3.42
-5.87
-12.85
-17.36
-19.49
-19.54
-17.89
-15.03
-11.45
-7.64
-4.01
-0.90
1.52
3.19
4.13
4.40
4.05
3.19
2.11
1.30
1.34
2.77
5.79
10.08
14.86
19.12
21.92
22.67
21.31
18.23
14.02
9.21
4.17
-1.00
-6.25
-11.45
-16.26
-20.12
-22.49
-22.98
-21.54
-18.35
-13.62
-7.33
0.79
11.24
24.32
39.87
57.10
74.70
91.19
105.25
116.00
123.13
126.94
128.22
127.87
126.34
123.13
116.80
105.57
88.53
66.51
42.45
20.52
4.55
-3.41
-3.69
1.30
8.08
13.11
13.48
7.42
-5.06
-21.72
-38.14
-49.05
-50.74
-43.54
-32.79
-27.25
-35.33
-61.06
-101.85
-149.58
-194.19
-227.85
-247.59
-255.05
-254.36
-249.51
-242.96
-235.77
-228.55
-222.29
-218.20
-216.84
-217.52
-218.26
-216.66
-210.93
-200.56
-186.22
-169.26
-151.16
-133.16
-116.11
-100.41
-85.87
-71.72
-56.80
-39.99
-20.78
0.46
22.59
44.17
64.11
81.99
98.13
113.11
127.34
140.57
151.76
159.17
160.84
155.10
141.37
120.72
95.96
71.05
49.88
34.80
25.74
20.38
15.53
8.98
0.95
-5.86
-7.54
-1.07
14.30
36.80
63.14
89.80
113.72
132.21
142.47
141.83
128.79
104.32
72.39
38.82
8.97
-14.49
-32.33
-47.50
-62.66
-78.19
-91.82
-100.08
-100.56
-93.41
-81.18
-67.48
-55.22
-45.63
-38.43
-32.79
-28.35
-25.70
-26.03
-30.36
-38.80
-50.12
-62.05
-72.03
-78.13
-79.71
-77.43
-72.73
-66.99
-60.79
-53.75
-44.94
-33.56
-19.60
-4.07
11.30
24.70
34.92
41.80
46.16
49.46
53.16
58.23
64.83
72.49
80.38
87.76
94.20
99.62
104.13
107.89
111.01
113.46
114.78
113.83
108.92
98.30
81.16
58.23
31.92
5.42
-18.46
-38.17
-53.39
-64.43
-71.38
-74.11
-72.71
-68.42
-63.72
-61.54
-63.68
-69.59
-76.29
-79.73
-76.78
-66.90
-52.35
-37.01
-24.52
-16.68
-13.17
-12.47
-13.26
-15.36
-19.65
-27.12
-37.82
-50.42
-62.66
-72.52
-79.06
-82.61
-84.32
-85.20
-85.66
-85.38
-83.84
-80.83
-76.74
-72.42
-68.86
-66.82
-66.61
-67.96
-70.11
-72.02
-72.72
-71.68
-69.02
-65.49
-61.98
-59.05
-56.44
-53.13
-47.67
-38.76
-25.70
-8.65
11.65
34.07
57.47
80.76
102.82
122.52
138.83
151.08
159.09
163.13
163.60
160.72
154.53
145.04
132.62
118.42
104.23
92.04
83.31
78.25
75.88
74.67
73.18
70.65
67.23
63.58
60.20
57.20
54.14
50.70
47.64
46.12
47.39
51.95
59.19
67.56
75.54
82.21
87.84
94.57
104.37
118.45
136.67
157.48
178.42
196.84
210.05
215.70
213.36
203.14
186.28
164.73
140.67
115.99
92.15
69.34
41.20
5.00
-39.06
-87.36
-134.85
-177.69
-215.96
-249.78
-279.34
-305.46
-324.68
-335.61
-338.43
-334.81
-327.79
-321.10
-317.63
-318.70
-323.33
-327.72
-328.39
-323.30
-312.14
-295.28
-272.24
-241.31
-201.41
-154.09
-103.67
-56.70
-18.30
10.48
32.87
53.93
77.16
102.12
125.24
143.21
155.04
163.14
171.45
182.62
196.32
209.60
218.63
221.10
217.62
210.53
202.68
196.07
191.25
187.43
183.04
176.60
167.42
156.68
146.27
138.00
132.90
131.21
132.35
135.23
139.03
143.62
150.67
161.50
176.06
192.77
209.91
226.51
242.39
258.15
274.00
290.52
306.22
317.52
320.02
310.82
289.24
255.83
211.91
153.10
83.07
11.83
-48.76
-94.65
-129.44
-158.13
-185.85
-211.43
-234.44
-253.16
-266.89
-276.64
-284.97
-294.24
-305.83
-320.26
-336.94
-355.09
-372.68
-388.58
-403.38
-419.12
-437.72
-460.44
-488.25
-521.81
-561.63
-606.11
-651.50
-691.90
-719.95
-728.56
-713.34
-674.68
-617.51
-549.59
-478.03
-407.72
-340.95
-278.24
-219.26
-163.52
-110.38
-58.56
-6.16
49.00
108.15
170.72
234.47
296.36
353.84
405.77
452.74
496.68
540.26
585.96
634.96
686.08
735.28
776.01
800.96
804.48
784.85
745.14
692.12
633.60
575.50
520.22
467.06
413.96
359.80
305.42
253.21
205.65
163.84
127.10
93.71
62.20
32.10
4.15
-20.49
-41.17
-58.33
-73.32
-87.87
-103.25
-119.87
-137.34
-154.77
-171.28
-186.27
-199.56
-211.26
-221.49
-230.07
-236.16
-238.76
-237.11
-231.24
-222.10
-211.33
-200.64
-191.20
-183.21
-175.63
-167.35
-157.60
-146.22
-133.33
-118.82
-102.24
-82.92
-60.35
-33.99
-4.36
27.23
59.07
89.80
118.75
145.53
169.58
189.76
205.14
214.08
214.91
206.39
188.48
162.48
130.49
94.57
51.98
3.96
-45.11
-89.03
-122.79
-143.89
-152.28
-149.86
-139.78
-125.75
-110.36
-96.59
-85.07
-76.04
-69.67
-65.99
-64.98
-66.41
-69.75
-73.53
-76.64
-78.56
-79.21
-79.17
-79.10
-79.28
-79.49
-78.97
-76.39
-70.83
-62.09
-50.97
-38.86
-27.14
-16.81
-8.38
-1.91
2.99
6.59
8.94
9.68
8.30
4.46
-1.91
-10.65
-21.30
-33.06
-44.85
-55.33
-63.02
-66.57
-64.91
-57.65
-45.26
-29.03
-10.79
7.48
24.11
37.98
48.55
55.82
60.04
61.55
60.67
57.69
52.99
47.06
40.54
34.02
28.01
22.84
18.65
15.46
13.16
11.51
10.26
9.11
7.85
6.40
4.77
3.10
1.46
-0.11
-1.70
-3.46
-5.54
-8.08
-11.04
-14.12
-16.80
-18.25
-17.55
-14.00
-7.37
1.88
12.72
23.78
33.78
41.66
46.86
49.27
49.02
46.35
41.50
34.67
26.14
16.36
5.76
-5.06
-15.43
-24.75
-32.51
-38.34
-41.99
-43.30
-41.93
-38.19
-32.18
-24.02
-13.93
-2.23
10.55
23.70
36.43
48.54
58.89
67.24
73.73
78.62
82.15
84.62
86.35
87.84
90.61
94.33
99.38
106.03
114.08
122.93
131.76
139.54
145.16
148.44
146.75
138.82
124.31
103.82
79.14
53.08
28.77
1.94
-16.91
-29.58
-37.84
-43.25
-46.88
-48.71
-47.61
-41.87
-29.81
-9.15
19.26
50.13
77.29
94.13
95.72
80.43
49.97
8.65
-36.53
-79.58
-114.16
-135.46
-142.06
-136.08
-122.09
-105.43
-90.55
-79.08
-71.77
-67.23
-62.86
-56.20
-45.72
-31.09
-13.36
4.96
21.54
34.27
42.73
47.98
51.45
52.95
52.44
49.65
43.53
33.21
18.33
-0.58
-22.36
-45.72
-69.32
-91.64
-108.14
-115.11
-111.18
-98.20
-80.00
-60.25
-41.42
-24.75
-12.39
-3.62
1.82
4.13
3.72
1.22
-2.89
-8.73
-15.56
-22.95
-29.79
-34.99
-37.18
-35.07
-28.01
-16.41
-1.71
14.18
29.30
42.43
52.50
58.85
61.33
60.25
56.28
50.17
42.57
33.91
24.83
16.12
9.05
5.12
5.63
11.09
21.03
34.36
49.90
67.19
86.27
107.34
130.03
152.94
173.62
188.99
196.08
192.53
176.98
148.95
108.82
57.88
-1.62
-66.34
-132.14
-194.81
-250.91
-298.24
-335.78
-363.23
-380.50
-387.94
-386.84
-380.05
-371.68
-365.80
-364.92
-369.09
-376.32
-384.02
-390.54
-395.68
-399.74
-401.92
-399.38
-387.64
-362.39
-321.62
-266.65
-201.87
-132.99
-65.27
-2.07
55.22
106.48
151.86
191.17
223.91
249.71
268.85
282.30
291.29
296.59
298.10
295.10
286.94
273.85
257.37
240.16
225.22
214.76
209.38
207.76
206.96
203.62
195.40
182.03
165.42
148.56
133.72
121.29
109.73
96.87
81.73
65.68
52.17
45.17
47.25
58.40
76.20
97.03
117.51
135.38
149.60
159.85
166.06
168.19
166.36
161.01
153.00
143.60
134.12
125.57
118.19
111.45
104.16
95.06
83.33
68.96
52.75
35.99
19.89
5.27
-7.68
-19.16
-29.46
-38.66
-46.55
-52.90
-57.94
-62.49
-67.84
-75.18
-84.84
-96.05
-107.18
-116.55
-123.30
-127.72
-130.85
-133.49
-135.25
-134.44
-128.71
-116.41
-97.62
-74.44
-50.25
-28.41
-10.96
1.83
11.22
19.01
26.54
34.20
41.55
47.93
53.06
57.13
60.58
63.61
65.87
66.57
64.89
60.29
52.72
42.59
30.62
17.74
5.04
-6.47
-16.13
-23.86
-30.30
-36.55
-43.59
-51.69
-59.90
-66.23
-68.32
-64.56
-54.99
-41.41
-26.86
-14.35
-5.79
-1.32
0.33
0.72
0.59
-0.52
-3.66
-9.42
-17.20
-25.40
-31.96
-35.27
-35.08
-32.56
-29.74
-28.44
-29.53
-32.57
-36.11
-37.81
-34.98
-25.95
-11.12
6.85
23.89
35.88
39.93
34.75
21.16
2.04
-18.99
-38.32
-52.55
-58.99
-56.56
-45.19
-29.40
-17.62
-17.15
-29.76
-50.99
-73.29
-90.56
-100.67
-105.17
-107.41
-110.89
-113.56
-111.19
-100.51
-80.84
-54.74
-26.91
-2.04
16.60
27.08
30.21
29.00
26.82
26.20
27.80
30.75
33.93
36.14
36.68
35.63
34.67
32.47
27.40
18.71
7.39
-3.60
-11.09
-13.11
-9.55
-2.56
4.35
8.69
10.35
9.44
9.19
13.18
23.62
40.66
62.41
85.71
107.39
124.77
135.83
139.65
135.86
125.42
111.14
97.37
88.56
87.75
95.18
108.01
121.68
130.71
131.27
122.70
107.47
89.54
72.50
58.19
46.56
36.68
26.74
15.96
5.43
-2.43
-5.51
-3.52
1.64
6.55
7.24
-1.05
-21.85
-55.97
-100.76
-150.85
-199.76
-241.28
-270.85
-279.36
-262.78
-225.65
-179.75
-137.14
-104.09
-80.68
-63.42
-48.41
-33.21
-18.49
-6.10
2.58
7.24
9.72
11.63
13.72
15.89
17.44
16.78
13.08
7.11
1.39
-1.10
1.21
7.84
16.80
24.86
28.57
26.11
18.12
7.14
-3.98
-13.94
-23.28
-33.54
-45.97
-60.55
-75.42
-87.66
-94.73
-95.82
-92.42
-87.19
-82.59
-79.44
-76.39
-70.40
-58.17
-37.70
-9.47
23.72
58.01
89.55
115.55
134.80
147.36
153.83
154.83
150.72
142.14
130.51
117.54
105.07
95.13
89.72
90.19
96.74
107.62
119.74
129.82
134.84
133.21
125.23
112.95
98.93
85.40
73.53
62.24
53.17
49.43
53.47
64.77
79.23
90.14
93.08
83.30
58.68
20.72
-26.95
-80.22
-135.67
-189.22
-237.12
-275.80
-302.63
-315.87
-315.19
-302.86
-283.12
-260.32
-236.88
-212.73
-185.95
-155.13
-121.04
-86.71
-56.62
-34.01
-18.39
-4.02
16.05
46.92
87.60
130.06
162.90
176.64
168.36
143.09
111.48
85.19
72.81
77.11
95.27
121.71
149.85
173.55
187.91
188.90
173.99
143.61
103.52
60.01
21.85
-3.00
-10.84
-3.77
10.42
21.29
19.83
1.29
-32.71
-74.94
-116.38
-149.71
-170.80
-179.87
-180.02
-175.28
-169.35
-165.24
-164.72
-168.68
-178.25
-188.93
-194.39
-187.93
-165.48
-128.54
-84.77
-45.41
-20.94
-16.69
-30.11
-53.61
-77.96
-96.04
-104.75
-104.36
-96.41
-81.90
-61.02
-33.12
0.75
37.78
74.17
106.25
132.01
151.77
168.08
180.80
191.57
201.47
210.70
218.46
223.37
224.09
219.89
210.88
197.79
182.48
166.57
151.40
138.03
127.13
118.97
113.14
108.45
103.08
95.57
84.85
70.73
54.01
36.22
19.12
4.24
-7.39
-15.41
-19.95
-21.91
-22.81
-24.34
-27.85
-33.91
-42.15
-51.52
-60.77
-68.74
-74.72
-78.45
-79.96
-79.57
-77.89
-75.81
-74.39
-74.47
-76.27
-79.33
-82.62
-85.04
-85.84
-84.97
-83.04
-80.93
-79.35
-78.53
-78.07
-77.21
-75.19
-71.67
-66.97
-61.95
-57.69
-55.01
-54.15
-54.75
-56.01
-57.08
-57.26
-56.16
-53.63
-49.85
-45.45
-41.56
-39.61
-40.55
-44.02
-47.79
-48.11
-40.99
-24.07
2.09
33.82
65.54
91.77
108.84
115.75
113.83
105.62
93.86
80.83
68.41
58.09
51.05
47.83
48.10
50.62
53.59
55.28
54.65
51.66
47.12
42.33
38.50
36.44
36.29
37.57
39.36
40.54
40.10
37.47
32.62
26.05
18.54
10.78
3.21
-4.04
-10.93
-17.26
-22.45
-25.73
-26.37
-24.06
-19.10
-12.33
-4.86
2.28
8.34
12.90
15.82
17.07
16.67
14.77
11.64
7.71
3.52
-0.39
-3.64
-6.07
-7.68
-8.55
-8.81
-8.58
-8.00
-7.25
-6.59
-6.30
-6.59
-7.57
-9.18
-11.20
-13.29
-15.14
-16.58
-17.68
-18.70
-20.04
-22.03
-24.74
-27.86
-30.72
-32.45
-32.30
-29.84
-25.07
-18.47
-10.82
-3.00
4.21
10.29
14.98
18.26
20.23
21.02
20.82
19.84
18.36
16.72
15.21
14.03
13.23
12.74
12.43
12.22
12.13
12.21
12.46
12.78
12.92
12.56
11.44
9.44
6.64
3.28
-0.32
-3.96
-7.55
-11.19
-15.05
-19.25
-23.81
-28.62
-33.52
-38.24
-42.42
-45.52
-46.87
-45.81
-41.92
-35.27
-26.53
-16.73
-7.04
1.61
8.69
14.03
17.69
19.82
20.52
19.93
18.25
15.83
13.08
10.42
8.16
6.44
5.27
4.56
4.21
4.11
4.16
4.25
4.26
4.04
3.49
2.58
1.38
-0.03
-1.54
-3.19
-5.05
-7.28
-10.02
-13.33
-17.16
-21.22
-25.06
-28.00
-29.27
-28.20
-24.45
-18.16
-9.95
-0.84
8.08
15.87
21.96
26.13
28.43
29.08
28.31
26.39
23.59
20.20
16.55
13.00
9.83
7.27
5.37
4.06
3.25
2.82
2.65
2.65
2.66
2.51
1.96
0.83
-0.92
-3.17
-5.66
-8.15
-10.55
-12.90
-15.35
-18.08
-21.03
-23.89
-25.97
-26.39
-24.40
-19.61
-12.10
-2.54
7.89
17.76
25.77
31.14
33.69
33.79
32.05
29.44
26.83
24.59
22.65
20.63
18.38
16.07
14.14
13.04
13.47
15.58
18.63
21.08
21.19
18.14
12.44
6.01
1.59
2.61
11.66
29.23
53.27
79.79
104.26
122.56
131.97
127.51
107.72
76.18
41.03
11.86
-4.81
-7.55
0.07
12.00
22.21
27.48
27.75
24.36
19.68
14.05
7.23
-1.49
-12.28
-24.64
-36.60
-45.31
-49.66
-50.48
-50.24
-51.91
-58.83
-72.15
-92.10
-117.07
-143.54
-168.82
-191.15
-209.47
-218.20
-213.18
-193.07
-160.77
-127.58
-98.19
-75.31
-60.57
-52.88
-50.23
-49.66
-47.42
-40.37
-26.66
-5.38
21.79
51.98
82.29
110.23
133.40
150.00
158.92
160.19
155.56
146.67
134.99
121.83
108.16
94.49
81.38
69.53
59.78
53.09
49.27
47.21
45.28
41.85
35.65
26.03
13.05
-2.57
-19.31
-35.30
-48.36
-56.44
-58.36
-54.67
-47.79
-41.26
-38.30
-40.42
-47.09
-56.23
-65.28
-72.23
-76.02
-76.34
-73.49
-68.03
-60.90
-53.50
-47.61
-45.02
-46.99
-53.25
-62.53
-72.75
-81.49
-86.61
-86.88
-82.43
-74.78
-66.18
-59.19
-54.20
-50.45
-46.67
-41.73
-35.31
-27.90
-20.37
-13.14
-6.80
-1.13
4.29
9.68
15.05
20.13
24.49
27.62
29.23
29.11
27.36
24.26
20.48
17.52
17.36
21.77
31.73
47.39
67.61
90.37
113.02
132.66
147.62
157.29
161.81
161.92
159.09
154.59
149.11
142.50
133.44
121.44
106.75
90.20
73.25
58.24
47.16
41.15
40.07
41.97
45.48
49.59
53.56
51.75
40.53
19.25
-8.96
-33.81
-52.82
-66.14
-74.69
-81.06
-86.66
-91.52
-94.99
-95.92
-93.19
-87.07
-77.78
-66.33
-54.57
-44.20
-35.60
-28.11
-20.69
-12.87
-5.93
-1.37
-0.67
-4.81
-13.50
-24.89
-36.30
-45.10
-49.54
-49.54
-45.72
-39.31
-31.84
-24.48
-17.76
-11.68
-5.94
-0.40
4.57
8.44
10.65
10.79
8.98
5.97
2.89
0.76
0.12
0.65
1.56
1.95
1.28
-0.24
-1.70
-1.74
1.06
7.74
18.73
33.66
51.41
70.22
88.02
102.89
113.47
119.28
120.64
118.27
112.90
104.91
94.34
81.29
66.17
49.97
34.00
19.48
7.14
-2.88
-10.86
-17.13
-21.92
-25.41
-27.96
-30.19
-32.90
-36.65
-41.48
-46.79
-51.64
-55.20
-57.08
-57.46
-56.91
-56.06
-55.38
-55.13
-55.49
-56.76
-59.29
-63.42
-69.14
-75.92
-82.65
-87.84
-90.15
-88.75
-83.71
-75.87
-66.61
-57.29
-48.92
-42.04
-36.73
-32.85
-30.14
-28.40
-27.45
-27.20
-27.58
-28.53
-29.97
-31.73
-33.62
-35.42
-36.88
-37.77
-37.85
-36.93
-34.91
-31.82
-27.89
-23.50
-18.96
-14.26
-8.87
-1.77
8.10
21.30
37.39
54.85
71.49
85.10
94.19
98.27
97.84
94.06
88.35
82.10
76.49
72.35
70.10
69.66
70.41
71.34
71.28
69.11
63.94
55.20
42.75
26.90
8.49
-11.14
-30.44
-47.95
-62.72
-74.46
-83.48
-90.42
-95.87
-100.19
-103.51
-105.92
-107.60
-108.85
-109.85
-110.42
-109.88
-107.27
-101.56
-91.95
-78.05
-59.99
-38.48
-14.89
8.84
30.47
48.06
60.71
68.94
74.52
79.70
86.20
94.49
103.71
112.24
118.50
121.53
121.17
117.81
112.20
105.27
98.14
92.09
88.37
87.91
90.98
97.18
105.70
115.70
126.63
138.24
150.39
162.68
174.31
184.15
191.14
194.51
193.99
189.48
180.86
167.80
149.90
127.13
100.23
70.79
40.88
12.37
-13.62
-36.85
-57.66
-76.38
-92.97
-107.01
-118.00
-125.72
-130.31
-132.13
-131.49
-128.63
-123.87
-117.94
-112.02
-107.46
-105.18
-105.19
-106.58
-107.92
-108.03
-106.52
-103.87
-101.06
-98.97
-97.95
-97.73
-97.79
-97.65
-97.16
-96.49
-95.80
-95.00
-93.51
-90.51
-85.16
-77.20
-67.00
-55.62
-44.45
-34.74
-27.15
-21.65
-17.63
-14.23
-10.74
-6.67
-2.03
2.70
6.62
8.59
7.58
2.93
-5.45
-17.27
-31.69
-47.85
-65.02
-82.60
-99.82
-115.57
-128.52
-137.69
-142.99
-144.63
-143.27
-139.74
-134.70
-128.34
-120.47
-110.84
-99.48
-87.10
-73.28
-57.22
-38.20
-16.22
7.65
31.62
53.85
73.12
88.79
102.80
117.89
136.20
158.34
183.41
209.98
236.89
263.71
283.15
289.12
278.52
253.52
220.03
183.88
148.80
116.50
90.89
69.99
52.96
39.31
28.50
19.69
12.13
5.71
0.27
-3.48
-5.64
-5.47
-2.66
2.34
8.25
13.33
16.06
15.74
12.89
8.55
5.37
5.90
11.45
21.47
33.79
45.72
55.02
60.72
62.74
62.35
61.02
59.71
58.59
57.20
55.04
51.96
48.35
44.69
41.66
39.48
37.69
35.26
31.11
24.77
16.67
8.06
0.34
-5.57
-9.55
-12.16
-13.98
-15.07
-14.79
-12.18
-6.58
1.97
12.71
24.61
36.57
47.60
56.65
62.43
63.46
58.31
46.04
26.38
-0.17
-32.38
-68.14
-104.55
-138.14
-165.70
-185.28
-196.85
-202.30
-204.33
-205.12
-205.28
-203.71
-198.49
-188.18
-172.80
-154.06
-134.56
-116.75
-102.15
-91.23
-83.88
-79.90
-79.26
-81.91
-87.41
-94.64
-102.10
-108.40
-112.76
-115.22
-116.30
-116.51
-116.02
-114.59
-111.92
-107.91
-102.78
-96.82
-90.16
-82.56
-73.48
-62.27
-48.41
-31.57
-11.78
10.51
34.42
58.80
82.49
104.78
125.59
145.23
164.00
181.55
196.74
207.93
213.64
213.15
206.66
195.06
179.42
160.84
140.66
120.72
103.20
89.91
81.36
76.30
72.19
66.43
57.66
46.38
34.49
24.10
16.33
11.03
7.28
4.24
1.76
0.25
0.08
1.06
2.49
3.76
5.14
8.04
14.63
26.94
45.92
70.95
100.01
130.19
158.23
180.83
195.07
198.88
191.73
174.97
151.64
125.50
99.71
75.94
54.24
33.73
13.65
-6.05
-24.81
-41.92
-57.04
-70.22
-81.48
-90.38
-95.95
-97.05
-92.96
-83.82
-70.71
-55.48
-40.42
-27.91
-19.91
-17.48
-20.43
-27.23
-35.58
-43.23
-48.86
-52.53
-55.44
-59.19
-65.01
-73.25
-83.54
-95.10
-107.14
-119.04
-130.20
-139.95
-147.58
-152.47
-154.15
-152.33
-146.65
-136.79
-122.67
-104.86
-84.84
-64.91
-47.65
-35.20
-28.68
-27.99
-32.05
-39.37
-48.48
-58.26
-68.04
-77.62
-87.11
-96.78
-106.82
-117.10
-126.96
-135.14
-139.86
-139.15
-131.26
-115.23
-91.22
-60.64
-25.88
10.30
45.37
77.50
105.67
129.43
148.62
163.10
172.78
177.77
178.58
176.26
172.18
167.81
164.37
162.60
162.52
163.56
164.57
164.13
160.85
153.69
142.21
126.76
108.40
88.77
69.72
52.90
39.36
29.30
22.09
16.50
11.26
5.45
-1.23
-8.47
-15.65
-22.10
-27.43
-31.47
-34.21
-35.72
-36.06
-35.38
-34.04
-32.59
-31.66
-31.74
-33.05
-35.43
-38.53
-41.96
-45.54
-49.25
-53.30
-57.88
-63.03
-68.53
-73.84
-78.15
-80.56
-80.23
-76.70
-70.02
-60.83
-50.16
-39.14
-28.71
-19.43
-11.53
-5.11
-0.28
2.76
3.83
3.05
0.89
-1.83
-4.19
-5.47
-5.43
-4.38
-3.08
-2.56
-3.99
-8.44
-16.58
-28.20
-41.82
-54.48
-62.30
-61.57
-50.17
-28.58
0.01
30.72
58.62
80.22
94.20
101.03
102.05
98.49
91.07
80.28
66.89
52.31
38.47
27.24
19.74
15.96
14.86
14.94
14.95
14.41
13.67
13.46
14.36
16.21
18.08
18.55
16.40
11.14
3.25
-6.12
-15.74
-24.93
-33.96
-43.88
-56.03
-71.50
-90.71
-113.22
-137.67
-161.73
-182.15
-195.24
-197.71
-187.85
-166.36
-136.46
-102.89
-70.43
-42.38
-19.95
-2.55
11.08
21.96
30.37
36.10
39.04
39.55
38.49
36.86
35.35
34.16
33.21
32.32
31.47
30.87
30.78
31.39
32.73
34.73
37.25
40.13
43.13
45.86
47.79
48.43
47.50
45.11
41.73
38.07
34.71
31.96
29.75
27.71
25.33
22.17
17.94
12.52
6.05
-0.96
-7.59
-12.52
-14.33
-11.94
-5.11
5.38
17.79
29.93
39.77
45.90
47.72
45.40
39.65
31.55
22.40
13.56
6.28
1.39
-0.85
-0.83
0.71
2.95
5.24
7.20
8.68
9.58
9.80
9.26
8.02
6.30
4.50
2.99
2.01
1.52
1.30
1.01
0.43
-0.52
-1.75
-3.09
-4.38
-5.55
-6.65
-7.80
-9.18
-10.86
-12.88
-15.17
-17.53
-19.64
-21.04
-21.27
-19.94
-16.94
-12.55
-7.41
-2.32
2.06
5.44
7.93
9.86
11.50
12.82
13.59
13.51
12.58
11.18
10.01
9.77
10.85
13.12
16.06
18.99
21.43
23.30
24.80
26.25
27.71
28.86
29.00
27.41
23.64
17.74
10.30
2.12
-6.16
-14.31
-22.70
-32.00
-42.91
-55.76
-70.23
-85.45
-100.20
-113.36
-124.32
-133.13
-140.38
-146.95
-153.60
-160.86
-169.00
-178.18
-188.50
-199.91
-211.95
-223.52
-232.75
-237.29
-234.85
-223.70
-202.93
-172.24
-131.66
-81.73
-24.09
37.83
98.56
151.65
191.51
215.43
224.53
222.95
215.76
206.61
196.49
184.16
167.82
146.77
122.09
95.97
70.45
46.42
23.52
0.89
-21.80
-43.70
-62.81
-76.73
-83.55
-82.52
-74.18
-60.04
-41.92
-21.53
-0.20
20.92
40.66
57.66
70.48
77.85
79.10
74.28
64.13
50.00
33.55
16.55
0.48
-13.68
-25.67
-35.79
-44.57
-52.38
-59.07
-64.04
-66.53
-66.17
-63.16
-58.19
-51.91
-44.83
-37.23
-29.35
-21.52
-14.16
-7.71
-2.30
2.18
6.55
11.56
17.76
25.47
35.03
46.91
61.50
78.94
98.76
120.72
143.92
166.96
188.18
206.23
220.38
230.44
236.93
240.51
243.22
246.52
250.90
255.75
260.08
263.20
264.78
265.23
264.77
264.93
265.92
266.40
263.72
255.47
240.64
219.59
194.09
154.35
96.95
25.38
-50.69
-120.66
-177.61
-218.43
-247.73
-269.85
-287.81
-301.24
-309.47
-310.72
-305.20
-294.65
-281.24
-266.79
-251.33
-233.94
-212.22
-185.19
-154.17
-122.76
-94.89
-73.12
-58.02
-48.08
-41.34
-35.65
-30.21
-25.48
-22.70
-22.65
-24.95
-28.20
-30.25
-29.33
-24.22
-15.07
-3.23
9.10
19.87
27.81
32.66
35.07
35.94
36.07
35.76
34.92
33.26
30.81
27.95
25.24
23.16
21.67
20.25
18.04
14.26
8.51
0.97
-7.54
-15.79
-22.27
-25.47
-24.19
-17.79
-6.30
9.38
27.77
47.00
65.14
80.49
91.70
97.92
98.81
94.54
85.75
73.44
58.75
42.83
26.67
11.02
-3.53
-16.55
-27.72
-36.84
-43.80
-48.70
-51.77
-53.38
-53.97
-53.99
-53.87
-53.97
-54.58
-55.81
-57.63
-59.78
-61.89
-63.58
-64.73
-65.55
-66.61
-68.57
-71.84
-76.28
-81.04
-84.73
-85.93
-83.64
-77.76
-69.09
-59.14
-49.58
-41.80
-36.55
-33.98
-33.80
-35.59
-39.05
-44.00
-50.41
-58.10
-66.69
-75.47
-83.52
-89.86
-93.67
-94.51
-92.41
-87.84
-81.56
-74.48
-67.43
-61.03
-55.58
-50.97
-46.75
-42.19
-36.46
-28.83
-18.81
-6.19
8.97
26.34
45.41
65.52
85.90
105.72
124.27
141.23
156.76
171.37
185.53
199.34
212.36
223.86
233.28
240.57
246.23
250.99
255.56
260.39
265.89
272.40
280.19
289.00
297.73
304.59
307.73
306.15
300.24
291.77
283.04
275.91
271.08
267.91
265.05
261.22
255.89
249.47
242.76
236.25
229.51
221.12
209.22
192.42
170.55
144.86
117.43
90.21
64.15
38.95
13.47
-13.56
-43.06
-75.38
-110.31
-146.84
-182.91
-215.21
-239.66
-252.60
-252.16
-239.32
-217.79
-192.82
-169.36
-150.55
-137.21
-128.23
-121.63
-115.42
-108.22
-99.41
-89.24
-78.66
-69.21
-62.51
-59.61
-60.48
-63.95
-68.07
-70.80
-70.89
-67.98
-62.63
-56.18
-50.51
-47.95
-50.70
-60.30
-76.77
-98.32
-121.38
-141.59
-155.30
-160.88
-159.11
-152.53
-144.02
-135.39
-127.28
-119.00
-109.44
-98.02
-85.21
-72.39
-61.07
-52.70
-48.24
-49.63
-57.87
-72.44
-91.11
-110.58
-127.79
-140.57
-149.15
-155.28
-163.98
-178.73
-199.82
-224.35
-248.17
-268.31
-283.23
-294.62
-305.04
-321.23
-347.32
-383.20
-424.46
-464.66
-498.11
-520.05
-530.24
-530.58
-530.03
-535.89
-550.68
-571.05
-590.39
-602.75
-603.54
-594.14
-541.57
-432.47
-275.53
-98.60
68.13
206.41
302.12
367.66
414.08
449.33
473.35
486.32
489.35
484.77
474.92
460.96
445.32
429.06
415.25
403.83
395.40
391.03
391.72
397.07
404.59
411.81
414.81
411.55
399.51
378.62
351.10
320.75
291.17
264.39
241.44
220.89
200.98
179.28
155.26
131.10
111.24
100.24
100.24
109.91
124.04
136.46
142.30
140.16
131.95
121.01
109.81
98.62
86.16
70.81
52.25
31.85
11.84
-5.87
-20.37
-31.68
-40.24
-46.36
-50.06
-51.04
-49.06
-44.25
-37.28
-29.31
-21.95
-16.80
-15.11
-17.36
-23.19
-31.68
-41.91
-53.22
-65.41
-78.53
-92.54
-107.17
-122.07
-137.02
-151.96
-166.76
-180.57
-191.55
-197.21
-195.26
-184.82
-167.08
-145.08
-122.58
-102.75
-87.16
-75.85
-68.05
-63.04
-60.74
-61.41
-65.13
-71.25
-78.45
-85.28
-90.86
-95.26
-99.24
-103.63
-108.63
-113.50
-116.89
-117.50
-114.92
-109.99
-104.70
-101.39
-101.83
-106.42
-114.05
-122.67
-130.24
-135.48
-138.33
-139.55
-139.92
-139.90
-139.45
-138.56
-137.56
-136.63
-135.10
-130.74
-120.33
-101.45
-74.33
-42.41
-10.85
16.30
38.43
58.55
81.16
109.06
141.36
173.82
201.38
221.05
233.28
241.17
248.02
255.24
261.71
265.00
263.44
257.85
251.73
249.83
256.13
271.48
292.73
313.36
325.77
324.19
306.93
277.17
241.76
208.88
185.17
173.69
172.91
177.26
179.03
171.05
149.16
113.72
69.53
23.95
-15.69
-44.70
-62.41
-71.88
-78.46
-87.89
-104.96
-132.66
-171.43
-218.44
-267.31
-308.99
-334.01
-335.56
-311.97
-267.36
-209.87
-148.53
-90.40
-39.28
3.69
38.35
64.25
80.70
87.71
86.96
81.78
76.24
73.76
76.32
84.64
98.72
118.43
143.16
170.82
197.07
215.52
219.35
203.69
167.68
115.06
53.14
-9.44
-65.03
-108.41
-137.27
-151.68
-153.37
-145.03
-129.86
-111.13
-91.87
-74.43
-60.38
-50.48
-44.86
-43.08
-44.32
-47.52
-51.55
-55.41
-58.32
-59.66
-58.82
-55.16
-48.02
-37.08
-22.59
-5.63
11.99
28.04
40.55
48.33
51.29
50.37
47.12
43.18
39.77
37.43
36.05
35.17
34.31
33.30
32.42
32.37
34.18
38.88
47.13
58.96
73.70
90.08
106.58
121.75
134.43
144.27
151.38
156.11
158.79
159.55
158.36
155.12
149.67
141.80
131.85
120.15
106.51
90.17
69.91
44.84
15.25
-17.14
-49.52
-77.96
-99.29
-112.68
-119.63
-123.34
-126.96
-131.97
-137.71
-142.01
-141.10
-131.71
-112.61
-84.39
-49.06
-9.07
33.40
76.28
109.43
123.39
113.66
84.35
47.53
16.19
-1.99
-6.44
-2.07
3.82
6.40
7.61
8.32
9.92
12.89
16.01
17.05
13.72
4.20
-11.14
-30.05
-50.67
-72.00
-93.15
-114.11
-135.03
-153.15
-164.79
-166.88
-159.31
-147.07
-137.20
-134.91
-140.95
-150.80
-157.18
-154.51
-144.83
-130.49
-115.90
-105.12
-99.56
-98.42
-99.17
-99.55
-99.28
-99.48
-100.60
-100.81
-98.41
-91.71
-80.49
-65.06
-46.79
-28.53
-13.94
-5.77
-5.91
-14.31
-28.15
-43.56
-54.84
-57.03
-48.11
-29.04
-2.09
29.77
63.94
98.99
132.78
164.86
195.23
223.42
242.31
245.50
229.41
195.64
159.51
126.53
98.20
74.40
51.11
27.33
4.49
-14.90
-28.31
-34.14
-33.88
-29.14
-21.92
-14.66
-9.06
-5.72
-4.47
-4.75
-6.13
-9.65
-15.25
-22.16
-29.35
-35.39
-39.33
-41.28
-42.21
-43.33
-46.10
-50.10
-53.83
-55.75
-54.37
-49.39
-41.60
-32.56
-23.97
-17.65
-14.22
-13.22
-12.95
-9.68
0.59
20.61
50.37
86.54
123.05
153.66
173.51
180.55
176.74
165.91
151.97
137.57
123.67
109.78
95.26
79.21
55.38
21.26
-21.45
-67.09
-108.99
-141.17
-163.65
-177.26
-182.89
-181.73
-174.19
-161.94
-147.73
-134.38
-123.50
-114.75
-105.40
-92.21
-73.05
-47.32
-17.14
13.47
39.89
58.66
68.42
70.47
67.40
61.85
56.08
50.97
46.27
41.23
35.51
29.65
25.27
24.09
27.01
34.01
43.97
55.47
67.47
79.69
92.26
105.44
119.08
132.65
145.63
157.67
168.39
177.01
182.12
181.93
175.04
161.16
141.35
117.60
91.97
65.94
40.18
15.02
-8.99
-30.82
-49.30
-63.85
-75.00
-84.30
-93.72
-104.68
-117.26
-130.11
-140.86
-147.09
-147.11
-140.26
-126.78
-107.21
-81.97
-51.39
-16.27
21.55
58.77
90.98
113.76
124.02
120.98
106.45
84.22
58.98
35.03
15.20
0.36
-10.55
-19.77
-29.66
-41.64
-55.59
-69.98
-82.61
-91.49
-95.46
-94.38
-88.69
-79.09
-66.30
-51.26
-35.28
-19.96
-6.86
3.12
9.85
13.88
15.91
16.38
15.28
12.33
7.28
0.12
-8.91
-19.48
-31.32
-44.31
-58.30
-73.01
-87.93
-102.37
-115.72
-127.56
-137.69
-145.85
-151.51
-153.80
-151.75
-144.83
-133.39
-118.86
-103.36
-89.08
-77.50
-69.00
-62.88
-57.92
-52.94
-47.32
-41.12
-34.76
-28.64
-22.89
-17.31
-11.59
-5.59
0.64
6.88
12.95
18.83
24.61
30.36
35.99
41.24
45.78
49.34
51.80
53.19
53.63
53.26
52.26
50.86
49.26
47.62
45.99
44.41
42.95
41.78
41.19
41.44
42.69
44.87
47.67
50.74
53.79
56.74
59.72
62.95
66.63
70.82
75.39
80.01
84.23
87.50
89.28
89.10
86.59
81.66
74.45
65.35
54.91
43.69
32.17
20.75
9.87
0.02
-8.28
-14.49
-18.25
-19.48
-18.36
-15.36
-11.10
-6.30
-1.67
2.19
4.90
6.34
6.60
5.79
3.88
0.61
-4.36
-11.24
-19.82
-29.48
-39.31
-48.41
-56.15
-62.19
-66.50
-69.21
-70.59
-71.08
-71.29
-71.78
-72.75
-73.66
-73.22
-69.70
-61.68
-48.70
-31.66
-12.69
5.55
20.67
31.16
36.52
36.99
33.17
25.65
15.01
1.96
-12.57
-27.45
-41.49
-53.75
-63.71
-71.27
-76.74
-80.59
-83.30
-85.21
-86.41
-86.77
-85.98
-83.75
-79.89
-74.46
-67.62
-59.53
-50.06
-38.69
-24.59
-6.90
14.81
40.24
68.32
97.35
125.39
150.63
171.65
187.46
197.53
201.80
200.73
195.27
186.61
175.90
163.95
151.10
137.42
123.12
108.69
94.88
82.23
70.64
59.19
46.45
31.07
12.40
-9.20
-32.45
-55.65
-77.16
-95.84
-111.11
-122.92
-131.48
-137.12
-140.09
-140.67
-139.14
-135.89
-131.32
-125.67
-118.85
-110.48
-100.13
-87.76
-74.03
-60.24
-47.97
-38.40
-31.85
-27.68
-24.63
-21.42
-17.24
-12.04
-6.27
-0.57
4.68
9.48
14.17
19.11
24.42
29.95
35.40
40.42
44.92
48.97
52.68
56.29
60.08
64.59
70.64
79.25
91.44
108.05
129.63
156.13
186.62
218.88
249.37
273.59
287.20
287.14
272.62
245.03
207.21
162.25
112.75
60.68
7.86
-43.58
-91.33
-133.43
-168.89
-197.65
-219.89
-235.29
-242.75
-241.04
-230.08
-211.77
-189.87
-168.70
-151.30
-138.26
-127.78
-116.93
-103.38
-86.38
-66.79
-46.17
-25.79
-6.13
12.80
30.94
47.81
62.66
74.86
84.42
92.00
98.48
104.44
109.80
113.91
115.94
115.31
111.87
105.86
97.63
87.65
76.41
64.53
52.56
40.70
28.61
15.49
0.57
-16.29
-34.27
-51.63
-66.36
-76.88
-82.66
-84.23
-82.87
-79.98
-76.60
-73.25
-70.02
-66.77
-63.31
-59.40
-54.76
-49.16
-42.68
-36.16
-31.36
-30.61
-35.86
-47.37
-63.12
-79.10
-90.88
-95.45
-92.45
-84.09
-73.81
-64.51
-57.45
-52.23
-47.73
-43.25
-39.01
-35.91
-34.76
-35.70
-38.07
-40.93
-43.70
-46.54
-50.16
-55.34
-62.26
-70.19
-77.56
-82.55
-83.68
-80.30
-72.56
-61.12
-46.74
-29.91
-10.82
10.53
34.00
59.13
84.91
109.71
131.44
147.81
156.93
157.80
150.82
137.68
120.89
102.96
85.62
69.52
54.41
39.68
24.95
10.27
-3.97
-17.32
-29.42
-40.01
-48.65
-54.74
-57.55
-56.64
-52.19
-44.98
-36.17
-26.93
-18.06
-9.95
-2.72
3.65
9.16
13.88
17.89
21.19
23.60
24.67
23.82
20.55
14.82
7.15
-1.41
-9.58
-16.12
-20.13
-21.13
-19.08
-14.39
-7.83
-0.38
7.06
13.80
19.53
24.21
27.87
30.53
32.21
33.16
33.92
35.38
38.57
44.36
53.21
65.09
79.44
95.43
112.08
128.54
144.09
158.14
170.13
179.35
184.99
186.14
182.15
172.80
158.43
139.78
117.76
93.17
66.66
38.93
10.82
-16.51
-41.83
-64.02
-82.39
-96.74
-107.31
-114.52
-118.87
-120.76
-120.55
-118.57
-115.24
-111.00
-106.31
-101.66
-97.41
-93.78
-90.73
-87.90
-84.69
-80.38
-74.43
-66.66
-57.35
-47.19
-37.02
-27.49
-18.85
-10.89
-3.07
5.28
14.67
25.23
36.70
48.38
59.32
68.49
75.00
78.27
78.17
74.99
69.43
62.39
54.86
47.64
41.26
35.97
31.70
28.27
25.46
23.17
21.50
20.66
20.97
22.60
25.59
29.70
34.53
39.50
43.97
47.23
48.58
47.43
43.45
36.77
28.07
18.44
9.05
0.56
-7.19
-15.13
-24.49
-36.15
-50.00
-64.92
-79.09
-90.73
-98.62
-102.38
-102.27
-98.86
-92.73
-84.37
-74.31
-63.23
-51.99
-41.44
-32.22
-24.62
-18.62
-14.12
-11.00
-9.25
-8.88
-9.78
-11.67
-14.10
-16.58
-18.76
-20.48
-21.78
-22.87
-23.94
-25.13
-26.45
-27.80
-29.02
-30.01
-30.71
-31.16
-31.43
-31.48
-31.19
-30.39
-29.00
-27.09
-24.95
-22.96
-21.50
-20.81
-20.94
-21.77
-22.90
-23.50
-22.27
-17.54
-7.66
8.44
30.67
57.60
86.75
115.14
140.09
159.64
172.76
179.17
179.08
172.89
161.17
144.65
124.27
101.15
76.47
51.31
26.52
2.66
-19.95
-41.04
-60.25
-77.01
-90.62
-100.43
-106.09
-107.72
-105.84
-101.17
-94.36
-85.91
-76.17
-65.56
-54.69
-44.42
-35.55
-28.67
-23.90
-21.05
-19.75
-19.68
-20.62
-22.36
-24.54
-26.61
-27.89
-27.75
-25.86
-22.30
-17.49
-12.05
-6.66
-1.82
2.13
5.08
7.12
8.47
9.34
9.92
10.26
10.40
10.35
10.23
10.20
10.52
11.30
12.43
13.62
14.54
14.99
14.99
14.69
14.16
13.68
13.36
13.19
12.99
12.54
11.68
10.34
8.52
6.16
3.78
1.88
0.68
-0.08
-1.03
-2.89
-6.06
-10.57
-16.11
-21.17
-24.18
-24.11
-21.04
-16.08
-10.76
-6.24
-2.77
0.45
6.39
18.58
39.76
70.63
109.47
153.04
197.80
240.93
272.15
282.85
268.24
230.15
176.43
117.13
60.82
13.00
-23.91
-50.05
-66.27
-74.47
-77.08
-76.71
-75.60
-75.06
-75.37
-76.25
-77.28
-77.41
-75.93
-72.69
-68.04
-62.73
-57.41
-52.41
-47.93
-44.13
-40.66
-37.12
-33.06
-28.31
-23.08
-18.00
-13.27
-9.72
-7.61
-6.47
-5.60
-4.47
-3.07
-1.82
-1.19
-1.28
-1.76
-1.98
-1.41
-0.11
1.27
1.77
0.63
-2.45
-7.05
-12.48
-17.88
-22.52
-25.92
-27.82
-28.17
-27.10
-25.00
-22.30
-19.33
-16.20
-12.82
-9.10
-5.19
-1.54
1.58
3.65
4.39
4.11
3.63
4.01
6.04
9.71
14.15
17.93
19.70
18.97
16.47
13.90
13.32
16.26
23.11
33.11
44.73
56.25
66.31
74.09
79.13
81.20
80.21
76.27
69.80
61.45
51.83
41.37
30.17
18.09
4.94
-9.40
-24.87
-41.29
-58.33
-75.44
-91.84
-106.50
-118.49
-127.34
-133.28
-137.23
-140.33
-143.44
-146.57
-148.94
-149.36
-146.93
-141.55
-134.10
-126.03
-118.75
-113.06
-108.95
-105.70
-102.26
-97.59
-90.64
-80.26
-65.11
-44.02
-16.63
15.97
51.02
84.64
113.00
133.47
145.36
149.74
148.78
144.69
139.01
132.43
125.07
116.94
108.27
99.54
91.29
83.76
76.73
69.64
61.85
52.98
43.18
32.96
22.92
13.36
4.12
-5.21
-14.88
-24.62
-33.52
-40.32
-43.90
-43.67
-39.77
-32.96
-24.30
-14.83
-5.32
3.83
12.60
21.21
29.92
38.93
48.23
57.76
67.50
77.51
87.91
98.67
109.41
119.30
127.26
132.22
133.53
131.13
125.54
117.56
107.98
97.31
85.69
73.06
59.41
44.95
30.21
15.89
2.62
-9.27
-19.85
-29.40
-38.22
-46.41
-53.83
-60.21
-65.37
-69.38
-72.59
-75.51
-78.55
-81.86
-85.27
-88.34
-90.59
-91.67
-91.51
-90.28
-88.44
-86.58
-85.44
-85.76
-88.18
-92.97
-99.77
-107.47
-114.44
-119.03
-120.13
-117.60
-112.15
-104.91
-96.88
-88.59
-80.26
-72.07
-64.52
-58.36
-54.26
-52.30
-51.83
-51.65
-50.62
-48.25
-44.90
-41.43
-38.65
-36.71
-35.01
-32.56
-28.60
-23.07
-16.58
-10.07
-4.18
1.03
6.02
11.38
17.40
23.86
30.14
35.60
39.83
42.79
44.68
45.70
45.94
45.32
43.75
41.33
38.43
35.70
33.85
33.49
34.84
37.73
41.58
45.61
49.11
51.60
52.93
53.24
52.79
51.82
50.37
48.33
45.54
41.95
37.75
33.42
29.55
26.62
24.75
23.64
22.69
21.24
18.79
15.17
10.52
5.09
-0.93
-7.42
-14.29
-21.21
-27.52
-32.41
-35.17
-35.67
-34.54
-32.99
-32.30
-33.29
-35.98
-39.64
-43.18
-45.62
-46.44
-45.58
-43.36
-40.18
-36.39
-32.26
-27.95
-23.56
-19.08
-14.40
-9.19
-3.00
4.64
14.00
25.08
37.54
50.75
64.05
76.90
88.99
100.30
110.91
120.91
130.31
139.07
147.15
154.50
161.06
166.53
170.30
171.58
169.55
163.77
154.43
142.35
128.74
114.75
101.11
87.95
74.89
61.33
46.76
31.00
14.29
-2.69
-19.03
-33.77
-46.13
-55.71
-62.53
-66.99
-69.71
-71.37
-72.61
-73.97
-75.93
-78.89
-83.01
-88.22
-94.04
-99.75
-104.57
-107.91
-109.44
-109.08
-106.89
-102.94
-97.32
-90.26
-82.15
-73.48
-64.60
-55.54
-45.95
-35.45
-24.01
-12.29
-1.57
6.69
11.52
12.78
11.08
7.35
2.35
-3.60
-10.49
-18.17
-26.15
-33.57
-39.57
-43.72
-46.21
-47.75
-49.12
-50.65
-51.99
-52.19
-50.12
-44.97
-36.67
-25.94
-14.10
-2.61
7.29
14.84
19.85
22.49
23.18
22.34
20.34
17.42
13.73
9.38
4.41
-1.10
-7.13
-13.65
-20.64
-28.05
-35.78
-43.64
-51.39
-58.68
-65.15
-70.44
-74.25
-76.38
-76.75
-75.33
-72.19
-67.40
-61.04
-53.31
-44.48
-34.94
-25.12
-15.50
-6.45
1.78
9.10
15.62
21.66
27.76
34.49
42.25
51.05
60.39
69.40
77.08
82.63
85.60
85.89
83.64
79.05
72.33
63.75
53.76
42.97
32.07
21.68
12.18
3.69
-3.78
-10.17
-15.25
-18.67
-20.16
-19.71
-17.74
-15.01
-12.41
-10.69
-10.36
-11.58
-14.30
-18.26
-22.99
-27.80
-31.82
-34.24
-34.48
-32.44
-28.52
-23.43
-17.82
-12.02
-5.96
0.71
8.28
16.78
25.86
34.91
43.24
50.28
55.65
59.09
60.50
59.81
57.00
52.20
45.75
38.20
30.30
22.83
16.42
11.34
7.52
4.55
1.91
-0.81
-3.84
-7.17
-10.69
-14.21
-17.53
-20.47
-22.80
-24.31
-24.83
-24.37
-23.10
-21.40
-19.66
-18.19
-17.07
-16.21
-15.40
-14.54
-13.62
-12.68
-11.67
-10.34
-8.26
-5.03
-0.49
5.14
11.21
16.91
21.50
24.51
25.79
25.38
23.37
19.89
15.07
9.13
2.44
-4.53
-11.24
-17.18
-21.85
-24.82
-25.75
-24.56
-21.44
-16.87
-11.39
-5.34
1.36
9.11
18.42
29.59
42.42
56.14
69.47
80.80
88.42
90.85
87.29
77.89
63.96
47.62
31.15
16.29
3.74
-6.67
-15.56
-23.20
-29.33
-33.57
-35.50
-34.87
-31.92
-27.10
-20.88
-13.52
-5.17
3.87
12.67
20.10
25.18
27.22
26.05
21.96
15.58
8.01
0.25
-7.44
-14.76
-21.18
-26.31
-30.02
-32.45
-34.00
-34.38
-33.56
-33.35
-34.94
-38.28
-43.06
-48.68
-54.29
-58.83
-59.42
-53.77
-44.01
-32.15
-18.93
-5.63
6.56
16.98
25.85
36.85
53.24
71.54
88.88
104.91
118.94
130.64
140.50
149.95
164.70
189.78
221.55
257.17
296.67
338.33
378.83
413.64
414.95
364.81
298.07
232.18
162.67
92.11
23.96
-38.49
-92.80
-137.78
-169.84
-187.16
-196.74
-204.00
-209.92
-215.18
-220.10
-224.69
-228.73
-228.88
-222.07
-211.25
-198.10
-181.72
-162.35
-141.36
-120.79
-102.63
-86.25
-70.24
-56.14
-44.21
-32.98
-21.79
-10.82
-0.76
7.64
14.78
21.15
25.53
27.15
26.31
23.47
19.34
14.87
10.98
8.67
8.41
9.57
11.28
12.84
13.45
12.41
9.20
3.65
-3.98
-13.04
-22.64
-31.88
-40.06
-46.84
-52.14
-56.13
-59.07
-61.30
-63.13
-64.86
-66.66
-68.49
-70.02
-70.70
-69.97
-67.49
-63.36
-58.08
-52.34
-46.69
-41.42
-36.50
-31.78
-27.14
-22.63
-18.42
-14.74
-11.72
-9.33
-7.47
-6.02
-4.95
-4.21
-3.76
-3.52
-3.37
-3.21
-3.00
-2.90
-3.25
-4.49
-6.78
-9.93
-13.38
-16.48
-18.54
-18.99
-17.46
-13.75
-7.83
0.58
11.80
25.89
42.42
60.52
79.00
96.40
111.02
121.06
125.54
124.21
117.50
106.22
91.66
75.56
59.76
45.65
33.92
25.34
20.67
20.58
25.29
34.73
48.50
65.67
84.62
99.15
103.38
94.91
76.57
53.35
28.98
5.04
-17.91
-39.09
-57.11
-69.63
-74.89
-72.71
-65.16
-55.62
-47.21
-41.70
-39.23
-38.74
-38.26
-36.96
-33.86
-29.26
-24.06
-19.00
-14.34
-10.00
-5.99
-2.22
0.88
3.07
4.31
5.10
6.06
7.82
10.71
14.53
18.72
21.79
22.64
21.78
20.17
18.17
15.87
13.14
9.75
5.49
-0.77
-9.35
-19.43
-29.05
-37.53
-44.89
-51.55
-58.02
-64.97
-74.39
-87.27
-102.73
-117.66
-130.07
-138.50
-141.99
-140.10
-124.93
-95.26
-57.33
-26.08
-3.07
12.95
24.01
30.33
32.23
30.43
24.68
15.54
4.67
-4.94
-12.03
-15.84
-15.56
-10.22
0.45
14.52
29.43
42.93
54.20
62.00
65.77
65.74
62.77
57.69
50.39
40.98
30.27
20.04
11.27
4.40
-0.71
-4.52
-7.66
-10.91
-14.48
-17.91
-20.14
-20.70
-19.67
-17.56
-15.08
-12.92
-11.66
-11.49
-12.19
-13.22
-14.20
-14.89
-15.34
-15.71
-16.34
-17.56
-19.66
-22.79
-26.86
-31.60
-36.49
-40.90
-44.27
-46.29
-47.11
-47.33
-47.87
-49.74
-53.74
-60.22
-68.90
-78.90
-88.77
-96.73
-101.00
-100.18
-93.50
-80.96
-63.20
-41.28
-16.42
10.00
36.51
61.55
83.56
101.30
114.13
122.10
125.84
126.22
124.06
119.95
114.24
107.24
99.34
90.99
82.62
74.46
66.46
58.30
49.58
40.06
29.81
19.24
9.02
-0.18
-7.81
-13.50
-17.06
-18.37
-17.32
-13.94
-8.39
-1.13
7.17
15.72
23.75
30.55
35.50
38.14
38.22
35.99
32.24
28.33
25.74
25.63
28.47
33.78
40.24
46.19
50.29
51.89
51.07
48.31
44.20
39.16
33.34
26.72
19.37
11.70
4.44
-1.51
-5.45
-7.09
-6.42
-4.04
-0.98
1.55
2.64
1.90
-0.49
-4.04
-8.14
-11.66
-14.09
-15.78
-17.77
-20.99
-25.74
-31.48
-37.27
-41.86
-42.78
-38.58
-29.62
-17.97
-6.09
4.24
12.51
19.18
25.70
36.12
53.34
77.84
107.61
139.74
171.53
201.01
226.30
246.25
263.10
278.72
293.43
306.10
315.82
322.62
327.72
332.20
316.44
269.60
194.73
107.69
24.87
-45.55
-103.16
-148.37
-186.36
-218.08
-238.86
-244.73
-235.60
-216.27
-190.30
-163.50
-140.96
-126.22
-119.69
-117.28
-114.59
-109.06
-100.80
-91.42
-83.02
-76.62
-72.40
-69.17
-64.04
-54.98
-41.93
-26.90
-12.75
-2.24
3.37
4.38
2.77
1.86
4.27
10.83
20.08
28.88
33.17
29.20
14.26
-12.36
-48.67
-90.10
-129.98
-160.91
-176.68
-174.41
-155.60
-125.88
-93.12
-64.74
-45.27
-35.28
-31.96
-30.95
-28.52
-22.89
-14.31
-4.21
6.07
15.89
25.33
34.39
42.30
47.27
47.20
40.71
28.00
10.84
-8.13
-26.63
-43.57
-59.26
-74.79
-91.07
-108.17
-125.10
-140.29
-152.18
-159.95
-163.69
-164.33
-163.09
-160.96
-158.32
-154.93
-150.12
-143.22
-133.99
-122.76
-110.35
-97.72
-85.65
-74.51
-64.26
-54.63
-45.28
-35.97
-26.57
-17.00
-7.15
3.06
13.60
24.28
34.87
45.27
55.54
65.92
76.66
87.87
99.31
110.12
118.94
124.57
126.56
125.59
123.22
121.34
121.58
124.67
130.15
136.68
142.85
147.68
150.59
150.85
147.40
139.14
125.45
106.49
83.20
57.42
31.42
7.08
-14.74
-34.07
-51.31
-64.50
-70.80
-69.44
-63.11
-56.25
-52.24
-52.07
-54.42
-56.54
-56.75
-53.64
-47.60
-40.29
-33.46
-28.18
-24.48
-21.57
-18.36
-14.14
-9.11
-4.44
-1.34
-0.26
-0.71
-1.64
-2.06
-1.45
0.03
1.71
2.76
2.80
2.06
1.14
0.46
-0.05
-0.82
-2.34
-4.81
-7.77
-10.25
-11.05
-9.31
-4.98
1.11
7.49
12.82
16.18
17.82
18.78
20.33
23.28
27.69
32.83
37.56
41.18
43.23
44.49
46.30
49.82
55.40
62.34
69.22
74.26
76.40
74.73
69.96
63.66
57.76
53.63
51.79
51.57
50.90
46.96
30.35
-5.50
-61.02
-129.11
-198.27
-256.71
-294.59
-310.72
-304.29
-276.95
-232.20
-175.14
-110.73
-42.42
26.75
92.82
151.46
198.42
228.78
239.99
233.58
215.39
193.15
173.38
159.12
149.57
141.95
132.24
118.35
100.98
82.61
65.77
51.80
41.36
34.77
32.23
31.89
30.37
23.73
8.90
-15.01
-45.95
-78.75
-107.33
-122.93
-120.87
-104.34
-81.76
-60.44
-43.24
-29.58
-17.73
-7.21
0.90
4.30
1.68
-5.91
-15.29
-22.28
-25.55
-25.43
-23.59
-22.16
-23.22
-27.68
-34.80
-42.54
-48.84
-52.73
-54.40
-55.08
-56.41
-60.00
-66.06
-73.61
-80.66
-85.06
-85.50
-81.61
-74.20
-64.71
-54.86
-45.89
-38.26
-31.55
-25.08
-18.41
-11.52
-4.81
1.26
6.40
10.81
15.04
19.78
25.52
32.31
39.83
47.54
54.80
60.95
65.37
67.53
67.09
64.05
58.78
51.98
44.46
37.00
30.18
24.39
19.80
16.46
14.23
12.85
11.92
10.97
9.47
6.91
2.89
-2.83
-10.12
-18.39
-26.54
-33.22
-37.22
-37.94
-35.67
-31.52
-27.01
-23.51
-21.74
-21.63
-22.46
-23.25
-23.22
-22.02
-19.77
-16.85
-13.68
-10.50
-7.34
-4.16
-0.90
2.35
5.40
7.96
9.74
10.50
10.03
8.16
4.77
-0.03
-5.91
-12.21
-18.13
-23.00
-26.60
-29.27
-31.88
-35.46
-40.78
-47.94
-56.24
-64.37
-70.80
-74.24
-73.96
-69.90
-62.53
-52.60
-40.89
-28.06
-14.55
-0.69
13.38
27.59
41.95
56.49
71.10
85.45
98.89
110.54
119.49
125.03
126.77
124.70
119.15
110.72
100.28
88.94
77.85
67.94
59.63
52.76
46.74
40.85
34.63
28.07
21.51
15.45
10.30
6.26
3.30
1.23
-0.28
-1.68
-3.43
-5.96
-9.44
-13.77
-18.47
-22.84
-26.15
-27.80
-27.51
-25.38
-21.83
-17.43
-12.74
-8.19
-4.06
-0.55
2.13
3.80
4.32
3.71
2.19
0.11
-2.22
-4.69
-7.38
-10.57
-14.53
-19.39
-25.12
-31.47
-38.08
-44.37
-49.53
-52.66
-53.00
-50.36
-45.34
-39.27
-33.65
-29.45
-26.54
-23.74
-19.52
-12.99
-4.58
3.95
10.33
12.81
10.94
5.70
-1.07
-7.22
-10.80
-10.24
-4.55
6.45
22.02
40.55
60.30
80.22
100.62
123.05
149.41
180.76
216.24
252.90
286.31
311.72
325.29
324.93
310.52
283.65
246.92
203.13
154.39
101.62
44.73
-16.38
-80.46
-143.91
-200.91
-244.95
-271.06
-277.80
-267.88
-246.96
-221.48
-196.38
-174.04
-154.62
-137.36
-121.78
-107.97
-96.24
-86.32
-77.11
-67.07
-55.11
-41.18
-26.48
-12.88
-2.10
5.10
9.13
11.30
13.07
15.26
17.67
19.27
18.72
15.18
8.67
0.15
-8.94
-17.15
-23.42
-27.22
-28.45
-27.37
-24.41
-20.11
-14.89
-8.82
-1.72
6.62
16.15
26.31
36.16
44.66
51.10
55.36
57.82
58.99
59.09
57.85
54.66
48.98
40.63
29.79
17.11
3.63
-9.50
-21.29
-31.04
-38.50
-43.75
-47.25
-50.13
-53.35
-57.31
-61.91
-66.73
-71.16
-74.64
-76.54
-76.44
-75.30
-74.17
-73.43
-73.06
-72.62
-71.59
-69.66
-66.50
-62.13
-58.38
-56.91
-57.98
-61.23
-65.71
-69.94
-72.03
-69.04
-57.93
-38.51
-11.89
20.37
55.62
90.81
123.36
146.81
155.17
156.46
156.48
153.95
148.91
141.74
133.29
124.71
117.01
111.51
108.91
106.89
102.32
93.14
77.90
56.29
29.20
-1.69
-33.36
-62.37
-87.20
-106.98
-120.69
-127.90
-128.79
-124.16
-115.51
-103.91
-90.00
-74.99
-59.63
-43.58
-25.95
-5.83
17.89
42.41
62.49
73.53
73.74
64.61
49.71
32.87
16.97
3.46
-7.72
-16.78
-23.62
-27.96
-29.66
-28.77
-25.68
-21.00
-15.25
-8.87
-1.87
5.74
13.71
21.27
27.24
30.45
29.96
25.78
18.41
9.02
-1.23
-11.23
-20.11
-27.52
-33.39
-37.87
-41.11
-43.51
-45.65
-48.55
-52.66
-57.21
-60.65
-61.28
-58.43
-52.69
-46.00
-40.78
-39.41
-42.61
-48.82
-55.43
-58.36
-56.42
-50.62
-43.21
-33.75
-23.95
-18.60
-17.08
-15.66
-12.18
-6.69
-0.32
6.03
12.50
19.39
27.54
38.42
54.51
77.45
106.69
139.60
172.56
201.82
223.66
235.75
226.79
192.65
141.05
86.44
39.37
2.61
-25.88
-49.46
-70.40
-90.37
-108.38
-123.09
-134.49
-143.50
-150.71
-156.07
-159.82
-163.16
-163.74
-160.56
-153.24
-142.17
-128.10
-111.35
-91.95
-70.44
-47.98
-25.79
-4.44
15.99
35.13
52.53
68.68
84.90
102.42
121.61
141.66
160.67
176.14
185.34
186.49
180.07
168.39
154.15
139.64
126.56
115.55
105.87
94.56
77.43
51.63
17.33
-21.82
-59.07
-86.44
-97.93
-90.30
-66.45
-37.56
-15.05
-2.38
3.99
8.67
12.89
13.62
6.51
-11.03
-37.31
-66.20
-90.16
-104.32
-107.59
-101.61
-89.09
-72.76
-55.80
-41.72
-33.23
-30.84
-33.50
-38.86
-43.77
-45.89
-44.78
-42.46
-41.59
-43.07
-44.84
-43.68
-37.15
-25.09
-9.88
4.92
15.71
20.58
20.23
18.05
17.78
22.26
32.91
47.39
63.86
80.02
93.57
102.83
107.91
109.30
107.41
102.26
93.84
82.59
68.89
53.14
30.67
1.29
-30.69
-58.64
-77.89
-88.04
-92.03
-94.55
-98.79
-105.29
-111.67
-115.12
-114.21
-109.56
-102.93
-96.41
-91.45
-88.01
-84.45
-77.81
-65.95
-48.80
-28.44
-8.02
9.69
23.32
33.32
41.47
49.94
59.65
69.76
78.44
84.25
87.15
88.59
90.65
95.11
102.39
111.20
119.19
124.33
125.78
123.82
119.22
112.39
103.58
92.35
77.74
59.06
36.80
12.91
-9.89
-29.14
-43.47
-51.82
-54.44
-52.94
-49.82
-47.13
-45.81
-45.65
-45.60
-44.20
-38.31
-25.20
-3.89
24.30
56.44
88.90
118.03
140.99
147.84
134.07
103.96
68.17
35.85
10.44
-8.69
-22.97
-32.79
-37.98
-37.53
-32.34
-26.08
-23.30
-27.35
-38.23
-52.93
-67.10
-77.59
-82.52
-82.55
-80.53
-79.71
-81.73
-85.98
-90.75
-92.96
-92.08
-89.10
-86.48
-86.92
-91.76
-99.91
-108.14
-112.64
-110.86
-102.76
-89.77
-74.02
-57.38
-40.78
-24.26
-7.70
8.28
22.05
31.36
34.88
32.92
27.40
21.27
17.70
18.77
24.80
34.47
45.50
55.91
64.46
70.68
74.69
77.50
80.10
82.83
85.00
85.19
81.94
74.16
61.59
45.17
28.05
13.79
4.70
0.59
-0.48
-0.80
-1.71
-3.09
-3.51
0.40
11.46
30.45
55.44
83.43
111.95
139.47
164.86
177.77
169.64
139.14
94.06
45.20
0.98
-33.91
-57.74
-71.05
-75.96
-73.93
-67.27
-57.05
-45.05
-33.04
-22.13
-12.88
-5.66
-0.90
2.18
4.55
6.76
8.30
8.50
7.23
4.85
1.92
-0.99
-2.72
-2.25
0.91
6.25
12.82
19.67
25.98
30.88
33.58
33.91
32.23
29.17
25.18
20.41
14.76
8.02
0.31
-7.56
-14.06
-17.60
-17.32
-13.69
-8.44
-3.75
-1.33
-1.82
-4.70
-8.89
-13.54
-18.63
-25.18
-34.84
-49.16
-68.90
-93.59
-121.79
-151.61
-181.33
-209.49
-234.48
-253.97
-264.83
-263.75
-248.58
-219.55
-179.64
-133.70
-86.91
-43.16
-4.19
30.11
60.64
88.00
111.85
130.83
143.24
147.74
144.04
133.20
117.34
98.78
79.18
59.04
37.96
15.68
-7.07
-28.29
-45.36
-56.29
-60.78
-60.59
-58.81
-58.51
-61.39
-67.09
-73.55
-77.89
-77.57
-71.21
-58.97
-42.21
-22.73
-1.71
20.38
43.22
65.93
86.79
103.60
114.42
118.30
115.63
108.61
99.80
90.79
81.42
70.44
56.62
39.78
21.06
2.43
