1698853506.00
64.000000
-0.00
-0.00
-0.00
-0.00
-0.00
-0.00
-0.00
-0.00
-0.00
-0.00
0.00
0.01
0.01
-0.00
-0.03
-0.05
-0.05
0.00
0.13
0.36
0.66
1.01
1.37
1.72
2.06
2.40
2.79
3.24
3.80
4.42
5.06
5.66
6.20
6.68
7.15
7.68
8.31
9.14
10.09
11.04
11.88
12.56
13.14
13.76
14.65
15.96
17.91
20.32
22.90
25.38
27.58
29.57
31.68
34.32
37.81
42.54
48.15
54.10
59.83
64.97
69.58
74.14
79.34
85.71
93.76
103.00
112.62
121.73
129.77
136.75
143.30
150.75
157.77
166.64
177.95
191.79
206.97
220.57
228.25
225.36
208.53
176.87
132.76
80.05
23.07
-34.94
-92.44
-149.16
-205.23
-260.37
-313.74
-363.87
-409.83
-450.91
-486.50
-515.74
-537.23
-549.22
-549.96
-538.37
-514.21
-478.67
-433.88
-382.45
-327.02
-269.84
-212.63
-156.66
-102.95
-52.37
-5.90
35.58
71.43
101.35
125.50
144.38
158.69
169.15
176.37
180.75
182.57
182.07
179.51
175.23
169.65
163.18
156.15
148.81
141.30
133.69
126.02
118.33
110.69
103.16
95.80
88.68
81.83
75.25
68.95
62.95
57.25
51.86
46.78
42.03
37.59
33.45
29.61
26.07
22.81
19.83
17.11
14.67
12.48
10.54
8.83
7.35
6.07
4.97
4.05
3.27
2.62
2.09
1.65
1.30
1.01
0.79
0.61
0.48
0.37
0.29
0.23
0.18
0.14
0.11
0.09
0.07
0.06
0.06
0.07
0.09
0.09
0.06
-0.01
-0.13
-0.26
-0.37
-0.44
-0.45
-0.41
-0.36
-0.34
-0.39
-0.50
-0.64
-0.76
-0.81
-0.77
-0.64
-0.51
-0.45
-0.52
-0.73
-1.02
-1.28
-1.38
-1.27
-1.00
-0.74
-0.70
-1.02
-1.70
-2.58
-3.33
-3.69
-3.51
-2.95
-2.36
-2.21
-2.82
-4.19
-5.96
-7.53
-8.31
-8.03
-6.90
-5.58
-4.89
-5.45
-7.30
-9.90
-12.30
-13.63
-13.38
-11.74
-9.49
-7.62
-7.04
-8.32
-11.60
-16.36
-21.29
-24.21
-22.57
-14.39
0.67
20.69
41.75
59.29
69.94
72.87
70.01
64.84
60.70
59.16
59.66
60.36
59.44
56.06
50.10
42.01
32.33
21.63
10.70
0.39
-8.37
-15.25
-20.56
-25.06
-29.30
-33.05
-35.52
-36.03
-34.68
-32.51
-30.92
-30.66
-31.34
-31.53
-29.69
-25.19
-18.67
-11.56
-5.43
-1.34
0.38
-0.08
-2.53
-6.94
-13.24
-21.04
-29.17
-35.80
-38.98
-37.39
-31.17
-22.11
-12.99
-6.34
-3.23
-2.84
-2.86
-0.79
4.71
13.07
21.92
28.47
30.85
28.93
24.08
18.16
12.50
7.34
2.10
-4.07
-11.34
-19.13
-26.63
-33.72
-41.25
-50.84
-63.98
-79.45
-94.99
-107.43
-113.96
-113.26
-105.84
-93.48
-78.04
-60.59
-41.06
-19.13
5.13
30.42
54.35
74.17
87.82
94.62
95.31
91.55
85.14
77.87
71.36
67.14
66.31
68.89
73.36
76.58
74.81
65.06
46.62
21.42
-6.75
-33.85
-57.09
-75.52
-89.65
-100.41
-108.48
-113.91
-116.38
-115.70
-111.92
-105.28
-95.74
-82.65
-64.67
-40.05
-7.36
33.53
80.77
130.28
176.47
213.83
238.63
250.24
251.27
246.52
241.19
239.09
241.49
247.08
252.68
254.39
248.84
234.08
210.04
178.49
142.48
105.45
70.34
38.75
10.70
-15.12
-40.56
-67.04
-94.84
-122.86
-149.16
-171.84
-189.93
-203.77
-214.67
-224.14
-233.01
-241.15
-247.83
-252.45
-255.14
-256.78
-258.49
-260.90
-263.82
-266.32
-267.29
-265.82
-261.50
-254.26
-244.06
-230.64
-213.46
-191.94
-165.71
-134.96
-100.60
-64.25
-28.04
5.79
35.20
58.65
75.32
85.15
88.85
87.75
83.46
77.38
70.14
61.20
48.98
31.59
7.83
-21.81
-54.74
-86.63
-112.54
-128.28
-131.72
-123.30
-105.55
-81.79
-54.58
-24.40
10.52
53.48
107.56
173.79
249.79
329.53
404.39
465.23
504.81
519.55
510.01
480.21
435.82
382.32
323.73
262.08
197.65
129.88
58.60
-14.52
-85.01
-145.81
-188.91
-208.29
-202.59
-176.28
-138.31
-99.00
-66.74
-46.16
-38.37
-42.40
-56.56
-78.69
-105.63
-132.85
-155.20
-168.52
-171.03
-163.74
-149.16
-129.74
-106.70
-80.11
-49.84
-16.56
18.06
52.00
83.67
112.42
138.39
161.86
182.66
200.00
212.62
219.28
219.12
211.81
197.43
176.15
148.07
113.23
72.05
25.84
-22.91
-70.92
-115.05
-153.38
-185.73
-213.12
-236.59
-255.80
-268.63
-271.88
-262.84
-240.65
-206.82
-164.61
-117.53
-68.13
-17.41
35.06
90.53
150.48
215.80
285.34
354.94
417.66
465.39
491.40
493.02
472.65
437.02
394.70
352.83
315.07
281.89
251.97
223.94
197.28
171.71
146.78
121.76
95.21
65.53
32.24
-3.90
-41.41
-79.26
-118.64
-161.85
-209.43
-260.64
-312.69
-359.99
-395.80
-414.58
-413.84
-396.29
-366.95
-328.31
-283.50
-236.80
-191.60
-150.28
-113.81
-81.37
-53.09
-28.02
-0.51
31.12
62.78
89.19
105.98
111.35
106.51
91.10
65.63
37.11
9.45
-17.98
-45.22
-71.23
-94.30
-91.40
-48.97
-2.54
29.95
53.41
67.80
73.45
71.10
61.44
44.87
18.32
-20.07
-63.41
-105.18
-142.11
-171.11
-190.38
-199.93
-201.20
-198.94
-197.16
-193.58
-187.05
-179.65
-173.58
-170.77
-172.17
-177.37
-186.36
-198.25
-208.75
-215.23
-217.86
-217.17
-213.41
-206.01
-193.52
-174.71
-148.43
-112.86
-68.47
-18.76
31.28
76.28
111.89
135.65
147.03
147.37
139.62
126.96
112.21
98.16
87.43
82.12
83.27
90.37
101.43
113.41
123.24
128.62
128.51
123.15
113.63
101.49
88.15
74.72
61.96
50.26
39.78
30.52
22.28
14.64
6.95
-1.54
-11.48
-23.03
-35.70
-48.30
-59.13
-66.46
-69.02
-66.37
-59.15
-49.02
-38.16
-28.67
-21.83
-17.76
-15.53
-13.77
-11.48
-8.40
-5.09
-2.39
-0.91
-0.67
-1.14
-1.66
-1.79
-1.46
-0.88
-0.21
0.61
1.93
4.16
7.60
12.16
17.35
22.36
26.27
28.38
28.34
26.26
22.56
17.80
12.54
7.26
2.51
-1.04
-2.63
-1.62
2.18
8.30
15.66
22.85
28.62
32.22
33.47
32.66
30.26
26.67
22.26
17.39
12.55
8.29
5.19
3.54
3.25
3.87
4.75
5.29
5.10
4.14
2.66
1.07
-0.21
-0.93
-1.10
-1.04
-1.27
-2.36
-4.67
-8.21
-12.53
-16.72
-19.72
-20.51
-18.52
-13.77
-6.86
1.13
9.08
16.00
21.35
24.91
26.73
26.79
25.06
21.51
16.33
9.99
3.26
-3.08
-8.43
-12.59
-15.77
-18.34
-20.66
-22.80
-24.49
-25.19
-24.31
-21.64
-17.62
-13.33
-10.40
-10.41
-14.49
-23.01
-35.60
-51.35
-68.97
-87.00
-103.71
-117.34
-126.30
-129.52
-126.81
-118.72
-106.35
-90.88
-73.38
-54.69
-35.62
-17.01
0.28
15.51
28.15
37.77
44.06
46.86
46.40
43.40
39.09
34.81
31.52
29.40
27.79
25.57
21.67
15.37
6.44
-5.17
-19.57
-36.95
-57.18
-79.36
-101.46
-120.37
-132.52
-134.71
-124.95
-102.99
-70.35
-29.73
15.72
63.29
111.24
158.94
206.74
255.82
307.77
364.12
425.40
490.37
555.46
615.10
662.76
692.67
701.37
688.59
656.86
610.57
554.50
492.85
428.68
364.33
301.18
239.77
179.81
121.03
62.90
4.76
-53.84
-112.42
-168.70
-219.11
-260.08
-289.70
-308.11
-317.91
-323.13
-327.41
-332.06
-335.26
-334.28
-327.86
-317.86
-307.16
-298.93
-295.27
-296.79
-302.54
-309.20
-315.18
-321.64
-332.55
-347.59
-363.12
-373.53
-374.16
-361.98
-332.38
-285.30
-225.53
-163.44
-101.78
-39.07
27.70
99.72
178.06
269.49
376.32
493.22
603.56
698.97
775.52
832.25
867.82
884.83
895.63
908.90
925.14
931.09
924.54
907.30
881.36
843.49
733.35
530.09
265.32
43.03
-124.83
-250.45
-354.41
-442.44
-518.16
-578.40
-612.47
-615.58
-593.37
-568.86
-553.33
-549.81
-541.62
-542.39
-543.76
-533.56
-504.67
-457.67
-409.26
-369.39
-343.93
-335.09
-346.31
-374.61
-412.54
-452.70
-470.84
-454.97
-403.42
-331.25
-259.17
-203.33
-165.21
-137.31
-115.73
-91.40
-67.11
-48.23
-39.67
-42.76
-56.35
-75.04
-90.45
-98.21
-96.76
-91.79
-89.00
-90.88
-95.02
-96.55
-89.92
-73.18
-48.52
-19.75
6.63
25.88
36.96
42.44
46.19
51.57
59.66
69.26
78.81
85.76
88.59
87.62
84.86
82.95
84.09
89.36
98.43
110.38
123.19
134.86
143.94
149.95
153.18
154.38
154.36
153.61
152.52
151.19
149.72
148.24
146.77
145.06
142.43
137.83
130.15
118.79
104.09
87.46
71.07
57.07
46.81
40.35
36.61
33.97
31.15
27.64
23.80
20.35
17.67
15.64
13.56
10.67
6.53
1.16
-5.05
-11.72
-18.63
-25.81
-33.29
-41.06
-48.91
-56.53
-63.56
-69.68
-74.53
-77.67
-78.62
-76.94
-72.45
-65.31
-56.05
-45.41
-34.21
-23.20
-13.02
-4.24
2.67
7.33
9.62
9.73
8.25
6.01
3.97
2.87
3.13
4.64
6.89
9.16
10.77
11.39
11.08
10.26
9.45
8.97
8.85
8.83
8.60
7.98
7.08
6.17
5.50
5.07
4.50
3.07
-0.06
-5.55
-13.66
-24.12
-36.13
-48.63
-60.49
-70.86
-79.33
-86.03
-91.62
-96.99
-103.02
-110.33
-119.07
-129.07
-139.95
-151.52
-164.08
-178.61
-196.44
-218.68
-245.22
-274.11
-301.41
-322.03
-331.14
-325.69
-305.35
-272.29
-230.18
-182.71
-132.53
-80.92
-28.23
25.61
80.64
136.65
193.02
248.21
299.43
342.57
373.07
387.34
384.22
365.69
336.28
301.61
266.69
234.89
207.78
185.78
168.85
156.78
149.15
145.12
143.32
142.24
140.64
137.86
133.91
129.25
124.40
119.59
114.63
108.94
101.85
92.96
82.37
70.69
58.82
47.44
36.86
26.80
16.81
6.50
-4.03
-14.22
-23.22
-30.26
-34.88
-37.12
-37.34
-36.02
-33.62
-30.41
-26.54
-22.03
-16.88
-11.00
-4.36
3.07
11.21
19.77
28.23
35.86
41.95
45.94
47.60
47.07
44.72
41.09
36.68
31.94
27.35
23.31
20.23
18.37
17.79
18.33
19.67
21.50
23.65
26.11
28.93
32.11
35.45
38.57
41.00
42.43
42.86
42.67
42.43
42.76
44.14
46.69
50.25
54.41
58.63
62.39
65.31
67.16
67.92
67.64
66.37
63.98
60.13
54.30
45.98
34.89
21.21
5.56
-11.15
-27.97
-44.27
-59.77
-74.45
-88.31
-101.12
-112.40
-121.52
-127.97
-131.48
-132.17
-130.36
-126.47
-120.83
-113.73
-105.41
-96.15
-86.31
-76.24
-66.17
-56.19
-46.12
-35.69
-24.71
-13.18
-1.38
10.14
20.76
29.85
36.91
41.66
44.00
44.09
42.28
39.11
35.11
30.70
26.06
21.06
15.43
8.95
1.59
-6.34
-14.22
-21.26
-26.66
-29.86
-30.65
-29.22
-26.16
-22.26
-18.42
-15.40
-13.71
-13.52
-14.69
-16.89
-19.73
-22.94
-26.39
-30.06
-33.97
-38.03
-42.03
-45.65
-48.64
-50.86
-52.36
-53.33
-53.99
-54.60
-55.48
-56.99
-59.54
-63.48
-68.96
-75.84
-83.68
-91.90
-99.98
-107.67
-114.82
-121.55
-128.08
-134.42
-140.19
-144.78
-147.66
-148.79
-148.77
-148.55
-149.34
-152.13
-157.23
-164.02
-171.03
-176.41
-178.61
-176.78
-170.46
-160.14
-146.93
-131.93
-115.64
-97.96
-78.43
-56.60
-32.50
-5.71
22.31
47.90
66.24
73.46
68.68
54.89
38.39
26.65
27.87
44.68
73.05
104.88
132.62
152.40
164.72
173.47
184.16
206.27
245.58
302.28
371.85
447.34
520.72
583.56
628.63
651.83
658.12
652.39
636.07
607.61
565.53
510.32
444.24
370.55
261.26
114.13
-48.69
-195.89
-307.71
-380.43
-419.26
-432.61
-429.42
-417.37
-396.35
-366.36
-329.66
-289.39
-248.05
-207.37
-170.78
-141.41
-122.71
-113.26
-111.88
-118.64
-132.15
-148.86
-162.76
-169.04
-167.48
-160.55
-148.85
-133.74
-119.68
-109.75
-106.51
-110.11
-118.88
-129.02
-134.37
-127.68
-105.09
-69.01
-24.46
22.66
68.25
109.91
139.82
152.24
146.55
136.14
127.32
123.86
123.15
124.14
124.85
122.88
117.58
109.76
100.99
91.35
81.51
71.72
62.29
52.64
41.94
30.56
19.43
9.49
-0.04
-9.55
-19.43
-29.45
-39.49
-49.22
-57.46
-62.81
-64.22
-62.04
-56.73
-49.01
-39.49
-29.06
-18.74
-9.23
-1.12
5.23
9.50
12.32
15.15
19.86
27.72
38.81
51.93
65.00
76.02
83.73
88.37
91.12
93.32
95.50
97.12
96.93
93.60
86.42
75.33
60.76
43.29
23.54
2.17
-20.09
-42.51
-64.62
-86.46
-108.53
-131.41
-155.14
-178.80
-200.51
-217.91
-228.76
-231.88
-227.59
-217.55
-203.95
-188.44
-171.19
-150.53
-123.61
-87.71
-42.64
7.97
56.97
95.62
116.40
115.31
92.89
53.70
5.14
-45.25
-91.55
-130.30
-160.66
-184.34
-204.95
-226.96
-254.14
-286.56
-321.80
-355.44
-382.01
-395.94
-393.30
-373.22
-338.53
-295.14
-247.15
-199.15
-155.06
-116.81
-83.38
-51.64
-18.53
17.63
56.74
102.89
157.92
220.71
288.29
357.97
428.18
497.42
564.08
625.55
684.40
738.43
779.98
799.59
792.32
761.19
715.34
667.00
589.38
476.47
341.65
209.43
98.56
15.59
-42.01
-83.35
-116.40
-154.25
-197.55
-242.43
-283.71
-317.24
-340.80
-347.58
-336.57
-313.35
-287.33
-261.12
-235.49
-211.34
-190.64
-175.30
-166.13
-164.62
-170.17
-181.65
-194.14
-204.44
-212.44
-220.52
-231.52
-247.09
-268.30
-294.78
-321.27
-341.44
-350.86
-348.51
-336.59
-318.81
-298.53
-278.33
-258.84
-239.12
-217.20
-191.50
-161.82
-129.45
-96.64
-65.81
-39.13
-17.52
-0.40
13.90
27.87
43.87
63.53
87.54
115.89
147.89
182.21
216.76
248.73
275.61
295.98
310.09
319.75
327.53
335.47
344.15
352.38
358.47
361.81
363.70
366.91
374.37
387.73
406.24
426.35
442.15
447.85
439.99
418.20
384.80
344.10
302.24
266.28
242.54
233.63
239.24
256.56
280.25
302.63
315.18
311.56
289.43
249.93
194.72
127.97
56.47
-12.35
-73.58
-126.64
-173.33
-216.26
-258.56
-305.79
-360.77
-421.03
-479.45
-527.08
-555.60
-556.84
-524.64
-442.88
-316.98
-178.40
-66.27
-1.45
23.39
23.86
11.66
-6.37
-28.23
-58.02
-96.08
-138.04
-176.78
-206.87
-227.61
-241.04
-250.12
-257.87
-268.28
-282.05
-295.64
-303.05
-299.74
-285.40
-262.47
-234.48
-205.09
-178.16
-154.94
-133.68
-111.07
-84.83
-55.38
-24.76
4.54
30.19
50.25
64.68
75.83
87.73
104.37
128.14
159.70
198.04
240.79
284.57
325.95
361.98
390.35
409.39
418.14
416.75
406.55
389.66
368.32
344.42
319.15
293.13
266.78
240.53
214.89
190.37
167.46
146.57
127.98
111.93
98.41
87.12
77.41
68.48
59.64
50.54
41.25
32.00
22.86
13.40
2.78
-9.89
-25.00
-41.99
-59.44
-75.52
-88.63
-97.96
-103.57
-106.10
-106.32
-104.78
-101.76
-97.44
-92.15
-86.38
-80.65
-75.26
-70.14
-64.96
-59.31
-52.98
-46.04
-38.76
-31.43
-24.16
-16.80
-8.99
-0.32
9.39
19.91
30.64
40.71
49.44
56.61
62.65
68.47
75.02
82.82
91.58
100.11
106.70
109.58
107.52
100.15
88.03
72.34
54.48
35.70
16.94
-1.19
-18.17
-33.55
-46.99
-58.43
-68.31
-77.52
-87.24
-98.73
-113.05
-130.94
-152.50
-177.13
-203.45
-229.71
-254.23
-276.03
-295.04
-311.96
-327.84
-343.53
-359.41
-375.36
-390.86
-405.13
-417.23
-426.27
-431.62
-433.13
-431.11
-425.95
-417.80
-406.23
-390.25
-368.85
-341.60
-309.05
-272.70
-234.48
-196.08
-158.58
-122.63
-88.96
-58.53
-32.23
-10.01
9.66
29.46
51.99
78.15
106.26
132.42
152.16
162.40
162.83
155.82
145.12
134.38
125.92
120.54
117.69
116.15
114.50
111.69
107.31
101.55
94.93
87.63
79.18
68.62
55.33
39.72
23.40
8.53
-3.25
-11.62
-17.49
-22.07
-25.77
-27.67
-25.85
-18.59
-5.48
12.08
31.27
48.87
62.38
70.65
73.95
73.47
70.76
67.20
63.71
60.58
57.55
54.00
49.35
43.14
35.30
25.94
15.26
3.45
-9.17
-22.02
-34.23
-44.95
-53.74
-60.88
-67.25
-73.83
-81.18
-89.18
-97.13
-104.25
-110.05
-114.39
-117.06
-117.40
-114.07
-105.57
-90.91
-70.30
-45.17
-17.65
10.22
37.16
62.76
87.33
111.45
135.66
160.35
185.71
211.53
237.04
260.89
281.53
298.01
310.61
320.93
331.15
343.00
356.89
371.96
386.99
401.30
415.17
429.16
442.93
454.46
460.34
457.18
443.30
419.69
389.57
356.96
324.86
294.49
265.53
237.27
209.65
183.72
160.95
142.04
126.25
111.19
93.74
71.60
44.34
13.84
-16.30
-41.72
-58.22
-62.63
-53.62
-32.49
-3.39
27.15
51.89
64.96
63.79
49.40
25.39
-4.29
-37.22
-73.06
-112.55
-155.69
-200.20
-241.62
-274.63
-295.27
-302.47
-298.27
-286.84
-272.89
-259.84
-249.25
-240.96
-233.94
-227.06
-219.54
-210.85
-200.52
-188.16
-173.74
-157.97
-142.33
-128.91
-119.84
-116.65
-119.69
-127.78
-138.30
-147.65
-152.41
-150.59
-142.55
-130.93
-119.44
-111.12
-107.03
-106.12
-106.61
-107.80
-111.39
-121.52
-143.30
-180.60
-234.05
-299.99
-370.78
-436.47
-487.46
-517.18
-523.71
-509.86
-481.63
-445.74
-407.42
-369.43
-332.46
-296.52
-262.02
-229.95
-201.03
-174.66
-148.41
-118.61
-81.60
-35.11
20.92
84.17
150.53
214.98
272.60
319.41
353.11
373.44
382.14
382.50
378.53
373.83
370.53
368.74
366.88
362.63
354.28
341.74
326.56
310.92
296.47
283.48
270.80
256.71
240.28
222.11
204.06
188.21
175.54
165.63
157.01
147.84
136.57
122.38
105.35
86.18
65.69
44.27
22.29
0.60
-19.54
-36.83
-50.09
-58.70
-62.84
-63.82
-64.04
-65.80
-70.19
-76.80
-84.03
-89.57
-91.01
-86.63
-74.29
-55.40
-35.45
-20.23
-11.96
-9.41
-10.04
-11.71
-13.53
-15.62
-18.65
-22.59
-26.17
-27.57
-25.49
-19.73
-11.26
-2.25
4.28
5.17
-1.40
-14.48
-30.36
-44.05
-51.09
-48.84
-37.60
-20.43
-2.05
13.07
22.35
25.36
23.10
17.09
8.70
-1.13
-11.69
-22.38
-32.52
-41.23
-47.70
-51.63
-53.24
-53.07
-51.70
-49.50
-45.59
-39.44
-30.80
-20.08
-8.38
2.77
11.88
18.01
20.99
21.50
20.65
19.92
20.76
24.30
31.08
40.96
53.04
65.83
77.48
85.92
89.39
86.64
77.38
62.42
43.70
23.86
5.42
-9.96
-22.13
-32.15
-41.70
-52.17
-64.04
-76.80
-89.31
-100.35
-108.84
-113.95
-114.89
-110.91
-101.48
-86.73
-67.68
-46.23
-24.60
-4.74
12.23
26.24
37.91
48.11
57.47
66.06
73.57
79.62
84.03
86.98
88.93
90.32
91.44
92.33
92.84
92.69
91.50
88.88
84.44
77.92
69.38
59.18
47.94
36.32
24.69
13.19
1.69
-9.99
-21.79
-33.39
-44.11
-53.05
-59.19
-61.75
-60.53
-56.18
-50.22
-44.69
-41.43
-41.43
-44.35
-48.70
-52.38
-53.41
-50.58
-43.65
-33.21
-20.25
-5.77
9.54
25.34
41.58
58.28
75.36
92.48
109.10
124.52
138.16
149.55
158.47
164.85
168.75
170.25
169.39
166.25
160.81
153.05
142.97
130.63
116.20
99.99
82.43
63.96
45.10
26.43
8.63
-7.38
-20.65
-30.40
-36.32
-38.83
-39.16
-39.07
-40.54
-45.31
-54.72
-69.57
-90.09
-115.80
-145.33
-176.25
-205.19
-228.47
-242.99
-247.13
-241.20
-227.19
-207.95
-186.15
-163.63
-141.35
-119.80
-99.64
-81.93
-67.80
-57.91
-51.88
-48.30
-45.24
-41.06
-35.07
-27.73
-20.09
-13.17
-7.27
-1.78
4.43
12.41
22.51
34.19
46.24
57.25
66.18
72.64
76.82
79.21
80.17
79.76
77.74
73.79
67.91
60.51
52.34
44.24
36.86
30.49
25.07
20.36
16.20
12.54
9.51
7.17
5.37
3.68
1.43
-2.01
-7.04
-13.60
-21.24
-29.30
-37.15
-44.52
-51.40
-57.96
-64.27
-70.07
-74.69
-77.27
-77.00
-73.38
-66.42
-56.62
-44.86
-32.21
-19.67
-8.13
1.79
9.69
15.48
19.22
21.21
21.88
21.74
21.27
20.78
20.42
20.16
19.93
19.67
19.43
19.39
19.72
20.55
21.86
23.53
25.33
26.95
28.06
28.36
27.71
26.17
23.97
21.52
19.24
17.47
16.38
15.88
15.80
15.94
16.24
16.82
17.98
19.97
22.85
26.32
29.80
32.61
34.18
34.29
33.07
30.91
28.32
25.79
23.77
22.61
22.57
23.68
25.63
27.81
29.39
29.58
27.88
24.26
19.05
12.90
6.54
0.56
-4.65
-9.01
-12.67
-15.95
-19.18
-22.54
-26.02
-29.42
-32.50
-35.12
-37.31
-39.23
-41.09
-42.97
-44.91
-46.89
-48.96
-51.22
-53.67
-56.12
-58.09
-58.98
-58.25
-55.77
-51.82
-47.18
-42.82
-39.66
-38.37
-39.19
-41.95
-46.17
-51.23
-56.44
-61.30
-65.51
-69.02
-71.97
-74.60
-77.13
-79.62
-81.81
-83.04
-82.40
-79.13
-72.98
-64.69
-55.85
-48.38
-43.62
-41.67
-41.15
-39.78
-35.23
-25.91
-11.29
8.16
31.39
56.88
82.65
106.25
124.96
136.44
139.41
133.95
121.46
104.08
83.97
62.88
42.21
23.21
7.32
-3.89
-9.01
-7.36
0.65
13.36
28.24
42.62
54.50
63.22
69.47
74.76
80.55
87.48
95.18
102.53
108.35
111.87
112.82
111.12
106.62
99.01
88.16
74.57
59.66
45.39
33.67
25.40
20.11
16.13
11.43
4.47
-5.10
-16.40
-27.79
-37.60
-44.71
-48.85
-50.50
-50.54
-49.89
-49.28
-49.11
-49.51
-50.31
-51.08
-51.20
-49.96
-46.83
-41.59
-34.48
-26.20
-17.70
-9.93
-3.49
1.43
5.07
7.86
10.23
12.37
14.25
15.67
16.37
16.26
15.39
13.99
12.42
11.02
10.12
10.00
10.80
12.47
14.61
16.49
17.14
15.62
11.46
4.92
-2.93
-10.53
-16.47
-20.01
-21.35
-21.49
-21.67
-22.87
-25.48
-29.30
-33.76
-38.28
-42.44
-46.06
-49.13
-51.74
-54.03
-56.00
-57.43
-57.74
-56.03
-51.35
-43.08
-31.25
-16.68
-0.76
14.90
28.86
40.10
48.13
52.92
54.76
54.16
51.77
48.29
44.38
40.59
37.23
34.39
31.87
29.33
26.43
22.95
18.94
14.71
10.70
7.26
4.54
2.42
0.55
-1.44
-3.83
-6.79
-10.38
-14.63
-19.54
-25.08
-31.12
-37.44
-43.61
-49.12
-53.27
-55.25
-54.26
-49.72
-41.47
-30.00
-16.43
-2.24
11.04
22.28
30.93
37.04
41.03
43.46
44.79
45.27
45.09
44.38
43.27
41.94
40.53
39.12
37.77
36.60
35.83
35.73
36.59
38.39
40.84
43.34
45.16
45.69
44.61
41.92
37.90
32.91
27.32
21.47
15.62
9.95
4.55
-0.54
-5.26
-9.53
-13.20
-16.24
-18.86
-21.50
-24.66
-28.53
-32.77
-36.38
-38.10
-36.89
-32.50
-25.67
-17.87
-10.88
-6.11
-4.28
-5.27
-8.36
-12.52
-16.69
-20.02
-21.83
-21.73
-19.53
-15.33
-9.50
-2.72
4.20
10.46
15.47
18.95
20.86
21.32
20.52
18.69
16.07
12.95
9.62
6.28
2.97
-0.37
-3.88
-7.66
-11.72
-16.02
-20.45
-24.92
-29.31
-33.52
-37.37
-40.66
-43.26
-45.09
-46.14
-46.45
-46.03
-44.86
-42.84
-39.80
-35.51
-29.83
-22.83
-14.83
-6.39
1.73
8.83
14.35
18.04
19.90
20.15
19.11
17.14
14.58
11.64
8.49
5.20
1.81
-1.62
-5.03
-8.38
-11.80
-15.50
-19.76
-24.69
-30.13
-35.60
-40.43
-44.04
-46.08
-46.50
-45.39
-42.84
-38.76
-33.02
-25.66
-17.15
-8.41
-0.67
4.98
7.99
8.56
7.51
5.90
4.58
3.87
3.46
2.68
0.83
-2.48
-7.19
-12.86
-18.99
-25.21
-31.46
-37.81
-44.29
-50.66
-56.38
-60.77
-63.25
-63.47
-61.42
-57.25
-51.16
-43.37
-34.22
-24.29
-14.41
-5.33
2.76
10.50
19.16
29.98
43.21
57.46
70.12
78.40
80.49
76.30
67.37
56.05
44.68
34.88
27.38
22.52
20.54
21.60
25.40
31.02
37.01
42.18
45.62
46.98
46.48
44.78
42.74
41.02
40.05
40.03
41.77
45.40
50.18
55.13
59.81
64.71
70.76
78.85
89.24
103.06
119.66
136.50
150.59
160.12
165.00
166.24
165.21
163.22
163.86
168.64
176.30
183.97
189.50
192.19
192.28
190.50
187.74
188.16
193.13
200.02
203.75
200.16
187.44
165.93
137.39
82.69
1.12
-89.92
-167.29
-218.49
-243.75
-249.88
-245.12
-236.85
-230.39
-225.04
-219.83
-214.95
-211.63
-210.10
-209.39
-208.27
-205.67
-200.74
-190.13
-173.63
-152.27
-129.34
-107.83
-89.33
-74.20
-62.06
-52.13
-42.03
-30.79
-19.39
-10.12
-4.67
-3.32
-5.15
-8.51
-11.69
-12.67
-10.74
-6.70
-2.10
1.52
3.38
3.52
2.59
1.48
1.24
2.32
4.65
7.59
10.53
13.08
15.10
16.57
17.50
17.98
18.09
17.99
17.74
17.29
16.58
15.56
14.20
12.50
10.49
8.23
5.82
3.44
1.31
-0.27
-1.08
-1.05
-0.33
0.80
2.05
3.21
4.23
5.06
5.72
6.09
6.07
5.63
4.86
4.05
3.53
3.56
4.13
4.97
5.57
5.46
4.38
2.43
0.01
-2.36
-4.16
-5.10
-5.09
-4.25
-2.81
-1.03
0.83
2.50
3.72
4.25
3.96
2.96
1.55
0.16
-0.85
-1.35
-1.47
-1.56
-1.93
-2.72
-3.79
-4.83
-5.48
-5.51
-4.84
-3.50
-1.56
0.91
3.81
7.03
10.50
14.23
18.32
22.88
27.88
33.04
37.77
41.42
43.39
43.39
41.47
37.95
33.26
27.80
21.79
15.38
8.61
1.51
-5.82
-13.18
-20.33
-26.97
-32.90
-38.03
-42.45
-46.36
-49.98
-53.47
-56.84
-59.96
-62.54
-64.25
-64.73
-63.73
-61.24
-57.49
-53.01
-48.45
-44.48
-41.54
-39.80
-39.04
-38.82
-38.58
-37.81
-36.17
-33.63
-30.38
-26.79
-23.26
-20.16
-17.69
-15.91
-14.73
-13.97
-13.42
-12.89
-12.28
-11.62
-10.99
-10.54
-10.36
-10.49
-10.91
-11.61
-12.61
-13.94
-15.64
-17.67
-19.87
-21.99
-23.66
-24.56
-24.50
-23.53
-21.96
-20.29
-19.02
-18.54
-18.96
-20.10
-21.58
-22.89
-23.48
-22.90
-20.85
-17.26
-12.41
-6.79
-1.04
4.30
8.97
13.02
16.60
19.75
22.22
23.55
23.28
21.32
18.16
14.71
12.11
11.18
12.29
15.16
19.14
23.40
27.25
30.18
31.88
32.24
31.38
29.86
28.72
29.37
33.19
41.03
52.74
67.04
81.88
95.12
105.25
111.80
115.31
116.95
117.95
119.20
121.06
123.45
125.87
127.57
127.68
125.37
120.11
111.82
100.93
88.25
74.73
61.20
48.25
36.27
25.46
15.94
7.67
0.34
-6.65
-14.08
-22.75
-33.11
-45.13
-58.23
-71.54
-84.09
-95.12
-104.08
-110.60
-114.48
-115.59
-114.04
-110.23
-104.85
-98.72
-92.50
-86.49
-80.62
-74.64
-68.35
-61.74
-54.93
-47.99
-40.68
-32.52
-23.07
-12.34
-1.00
9.74
18.49
24.19
26.48
25.77
22.89
18.80
14.24
9.76
5.78
2.75
1.27
1.98
5.36
11.46
19.70
28.92
37.61
44.30
48.10
48.87
47.28
44.54
41.93
40.39
40.25
41.38
43.36
45.91
49.00
52.76
57.13
61.61
65.16
66.53
64.73
59.52
51.46
41.60
30.99
20.29
9.71
-0.65
-10.64
-19.85
-27.79
-34.16
-38.95
-42.37
-44.63
-45.79
-45.70
-44.25
-41.51
-37.87
-33.94
-30.40
-27.83
-26.53
-26.48
-27.30
-28.40
-29.17
-29.11
-28.02
-25.90
-22.78
-18.73
-13.81
-8.35
-3.02
1.24
3.61
3.71
1.93
-0.89
-3.71
-5.78
-6.71
-6.33
-4.55
-1.29
3.29
8.49
13.08
15.48
14.40
9.36
0.88
-9.60
-20.24
-29.22
-35.15
-37.29
-35.64
-30.90
-24.39
-17.66
-12.17
-8.88
-8.06
-9.45
-12.56
-16.96
-22.53
-29.26
-37.02
-45.34
-53.41
-60.39
-65.78
-69.67
-72.62
-75.36
-78.38
-81.57
-84.37
-85.94
-85.61
-83.07
-78.39
-71.75
-63.30
-53.09
-41.22
-28.10
-14.59
-1.90
8.81
16.80
21.98
24.81
26.00
26.13
25.43
23.91
21.55
18.60
15.64
13.41
12.53
13.19
15.11
17.60
19.94
21.61
22.56
23.20
24.30
26.62
30.67
36.42
43.38
50.62
57.09
61.80
64.01
63.31
59.71
53.63
45.79
37.17
28.68
21.07
14.72
9.73
6.07
3.70
2.70
3.10
4.82
7.53
10.76
13.94
16.58
18.31
18.93
18.36
16.63
13.96
10.71
7.35
4.30
1.78
-0.24
-1.95
-3.56
-5.11
-6.55
-7.81
-8.93
-10.11
-11.51
-13.11
-14.63
-15.54
-15.40
-14.06
-11.82
-9.38
-7.56
-7.04
-8.14
-10.82
-14.66
-19.06
-23.31
-26.68
-28.65
-29.05
-28.19
-26.80
-25.74
-25.64
-26.53
-27.85
-28.64
-27.95
-25.27
-20.71
-14.84
-8.45
-2.26
3.22
7.68
10.85
12.43
12.24
10.23
6.75
2.45
-1.84
-5.35
-7.54
-8.21
-7.49
-5.77
-3.73
-2.20
-2.09
-4.17
-8.86
-16.10
-25.16
-34.76
-43.13
-48.47
-49.47
-45.90
-38.84
-30.35
-22.77
-17.64
-15.18
-14.35
-13.64
-11.97
-9.23
-6.28
-4.30
-4.16
-6.18
-10.25
-16.25
-24.19
-34.14
-45.82
-58.44
-70.62
-80.84
-87.85
-91.17
-91.22
-89.16
-86.50
-84.52
-83.91
-84.64
-86.01
-86.97
-86.36
-83.17
-76.57
-66.09
-51.70
-33.96
-13.95
6.93
27.34
46.19
62.68
76.12
85.82
91.17
92.07
89.28
84.44
79.70
76.98
77.23
80.13
84.34
88.10
89.88
88.87
85.15
79.44
72.84
66.45
61.10
57.22
54.85
53.71
53.28
52.92
51.93
49.71
45.90
40.47
33.79
26.51
19.43
13.23
8.41
5.22
3.70
3.74
5.11
7.42
10.18
12.83
14.93
16.24
16.85
17.16
17.65
18.71
20.34
22.08
23.13
22.64
20.12
15.68
10.09
4.53
0.12
-2.43
-3.00
-2.03
-0.16
2.05
4.27
6.36
8.12
9.09
8.57
5.82
0.47
-7.21
-16.25
-25.32
-33.21
-39.35
-43.84
-47.29
-50.25
-52.92
-55.01
-56.07
-55.91
-54.81
-53.31
-51.65
-49.42
-45.56
-38.92
-29.09
-16.81
-3.81
7.97
17.23
23.77
28.28
31.75
34.82
37.56
39.69
41.03
41.68
42.05
42.46
42.96
43.28
43.10
42.30
41.10
39.91
39.07
38.61
38.14
37.08
34.88
31.31
26.52
21.01
15.40
10.19
5.71
2.09
-0.71
-2.87
-4.77
-7.01
-10.41
-15.78
-23.65
-34.02
-46.24
-59.33
-72.27
-84.38
-95.27
-104.70
-112.29
-117.50
-119.85
-119.22
-116.05
-111.24
-105.67
-99.88
-93.84
-87.18
-79.67
-71.61
-63.89
-57.67
-53.94
-53.01
-54.50
-57.28
-59.87
-60.61
-58.09
-51.48
-40.78
-26.93
-11.74
2.54
13.84
20.90
23.59
22.95
20.64
18.39
17.29
17.65
19.07
20.85
22.38
23.30
23.53
23.08
21.94
20.17
17.89
15.40
13.04
11.00
9.14
7.08
4.33
0.60
-4.02
-9.09
-14.12
-18.78
-23.14
-27.66
-33.07
-40.00
-48.60
-58.28
-67.65
-74.72
-77.51
-74.60
-65.64
-51.48
-33.94
-15.30
2.32
17.38
29.10
37.39
42.57
45.20
45.74
44.52
41.69
37.39
31.81
25.43
18.97
13.31
9.25
7.23
7.15
8.38
9.95
10.89
10.59
8.86
5.93
2.21
-1.92
-6.26
-10.66
-15.05
-19.27
-23.13
-26.52
-29.42
-31.88
-33.93
-35.51
-36.48
-36.72
-36.24
-35.25
-34.11
-33.25
-32.95
-33.23
-33.83
-34.16
-33.44
-30.91
-26.00
-18.62
-9.19
1.36
11.88
21.32
29.08
35.20
40.30
45.42
51.59
59.82
71.01
86.09
105.97
131.16
161.27
194.60
228.27
258.94
283.86
301.66
312.47
317.29
317.03
311.89
301.32
284.69
262.06
234.53
204.07
172.73
142.02
112.59
84.44
57.50
32.00
8.59
-11.94
-29.14
-43.14
-54.66
-64.69
-74.03
-83.03
-91.52
-99.09
-105.44
-110.59
-114.79
-118.21
-120.52
-120.85
-117.94
-110.72
-98.87
-83.11
-65.03
-46.67
-29.80
-15.57
-4.27
4.44
11.22
16.78
21.72
26.47
31.34
36.50
41.93
47.40
52.41
56.40
58.89
59.79
59.49
58.78
58.64
59.90
62.93
67.67
73.76
80.80
88.36
95.84
102.19
105.83
104.88
97.89
84.51
65.90
44.64
24.02
7.09
-4.14
-9.10
-8.55
-4.14
2.15
8.47
13.33
15.80
15.55
12.79
8.20
2.75
-2.52
-6.60
-8.74
-8.56
-6.17
-2.19
2.34
6.31
8.81
9.47
8.47
6.41
3.94
1.45
-1.05
-3.85
-7.26
-11.40
-16.08
-20.89
-25.39
-29.28
-32.43
-34.88
-36.74
-38.13
-39.20
-40.21
-41.41
-43.08
-45.31
-47.97
-50.68
-52.99
-54.63
-55.56
-56.06
-56.44
-56.96
-57.62
-58.28
-58.72
-58.82
-58.58
-58.08
-57.51
-57.04
-56.87
-57.15
-57.88
-58.75
-59.13
-58.24
-55.39
-50.34
-43.46
-35.63
-27.91
-21.07
-15.34
-10.50
-6.04
-1.55
3.22
8.37
14.03
20.40
27.68
35.79
44.23
52.12
58.55
62.99
65.46
66.51
66.88
67.24
67.99
69.37
71.59
74.83
78.96
83.33
86.69
87.56
84.81
78.34
69.25
59.43
50.79
44.52
40.59
37.97
35.13
30.64
23.73
14.33
3.12
-8.81
-20.11
-29.48
-35.90
-38.86
-38.55
-35.86
-32.21
-29.18
-28.18
-30.01
-34.72
-41.58
-49.26
-56.15
-60.80
-62.30
-60.48
-55.95
-49.86
-43.52
-38.04
-34.00
-31.48
-30.09
-29.31
-28.67
-27.81
-26.50
-24.56
-22.00
-19.01
-16.12
-14.07
-13.59
-14.97
-17.94
-21.67
-25.12
-27.50
-28.48
-28.20
-26.96
-25.00
-22.45
-19.47
-16.52
-14.37
-13.84
-15.27
-18.26
-21.62
-23.88
-23.84
-21.08
-15.95
-9.34
-2.22
4.58
10.40
14.61
16.50
15.45
11.12
3.84
-5.30
-14.63
-22.33
-26.98
-28.01
-25.85
-21.77
-17.34
-13.86
-11.98
-11.64
-12.24
-13.11
-13.67
-13.60
-12.76
-11.08
-8.52
-5.24
-1.63
1.72
4.14
5.11
4.46
2.30
-1.04
-5.20
-9.83
-14.56
-18.96
-22.53
-24.82
-25.59
-24.90
-23.11
-20.68
-18.05
-15.53
-13.25
-11.35
-10.03
-9.48
-9.83
-10.91
-12.28
-13.28
-13.30
-11.98
-9.36
-5.74
-1.50
3.06
7.72
12.23
16.21
19.09
20.34
19.64
17.11
13.24
8.62
3.67
-1.55
-7.21
-13.46
-20.15
-26.68
-32.16
-35.77
-37.11
-36.28
-33.86
-30.56
-26.98
-23.48
-20.12
-16.90
-13.83
-11.07
-8.91
-7.62
-7.41
-8.29
-10.02
-12.25
-14.57
-16.62
-18.19
-19.18
-19.62
-19.65
-19.51
-19.56
-20.20
-21.77
-24.44
-27.98
-31.82
-35.11
-36.86
-36.18
-32.45
-25.54
-15.84
-4.35
7.54
18.33
26.87
32.71
36.22
38.35
40.19
42.47
45.34
48.40
50.97
52.45
52.54
51.26
48.88
45.76
42.31
38.88
35.70
32.87
30.25
27.52
24.24
19.99
14.46
7.56
-0.45
-8.93
-16.83
-22.95
-26.28
-26.44
-23.90
-19.91
-16.02
-13.52
-13.02
-14.34
-16.78
-19.55
-22.07
-24.14
-25.82
-27.24
-28.53
-29.73
-30.83
-31.92
-33.15
-34.73
-36.73
-38.99
-41.05
-42.34
-42.47
-41.45
-39.71
-37.92
-36.62
-35.94
-35.56
-34.91
-33.53
-31.25
-28.22
-24.73
-21.01
-17.16
-13.21
-9.21
-5.24
-1.39
2.30
5.83
9.17
12.28
15.12
17.84
20.95
25.25
31.48
39.97
50.29
61.27
71.42
79.47
84.83
87.71
88.80
88.88
88.43
87.58
86.23
84.28
81.70
78.49
74.56
69.66
63.49
55.95
47.27
38.04
28.98
20.61
13.05
5.96
-1.14
-8.58
-16.29
-23.87
-30.75
-36.43
-40.66
-43.34
-44.46
-44.03
-42.07
-38.78
-34.59
-30.24
-26.53
-24.13
-23.28
-23.79
-25.07
-26.48
-27.58
-28.25
-28.56
-28.55
-28.04
-26.65
-24.07
-20.39
-16.24
-12.57
-10.23
-9.49
-9.88
-10.58
-10.85
-10.61
-10.42
-11.13
-13.33
-16.95
-21.34
-25.64
-29.29
-32.28
-35.16
-38.68
-43.41
-49.52
-56.70
-64.49
-72.54
-80.82
-89.61
-99.32
-110.28
-122.63
-136.37
-151.37
-167.37
-183.55
-198.28
-208.99
-212.63
-206.52
-189.30
-161.27
-124.04
-79.69
-30.17
22.69
76.48
127.65
171.64
204.00
222.04
225.94
218.66
204.72
188.28
171.86
156.09
140.45
124.49
108.60
93.97
81.92
73.09
67.11
62.80
58.89
54.65
50.24
46.57
44.77
45.56
48.91
54.02
59.61
64.32
67.03
67.10
64.39
59.31
52.74
45.89
40.08
36.50
35.90
38.36
43.20
49.08
54.27
57.10
56.49
52.29
45.29
36.94
28.75
21.79
16.35
12.12
8.55
5.33
2.63
0.95
0.76
2.08
4.37
6.66
8.13
8.38
7.66
6.60
5.85
5.69
5.92
6.09
5.77
4.78
3.31
1.75
0.50
-0.23
-0.51
-0.70
-1.28
-2.72
-5.22
-8.60
-12.36
-15.78
-18.27
-19.58
-19.96
-20.08
-20.70
-22.44
-25.52
-29.65
-34.18
-38.36
-41.58
-43.64
-44.76
-45.53
-46.70
-49.04
-53.23
-59.66
-68.21
-77.97
-87.19
-93.55
-94.87
-89.99
-79.30
-64.69
-48.75
-33.81
-21.26
-11.38
-3.85
1.62
4.86
5.46
3.22
-1.35
-6.92
-11.81
-14.60
-14.71
-12.49
-8.97
-5.22
-1.87
1.07
4.02
7.34
10.97
14.31
16.46
16.62
14.51
10.51
5.48
0.40
-3.90
-6.98
-8.71
-9.25
-8.90
-8.19
-7.84
-8.71
-11.49
-16.40
-22.96
-30.11
-36.63
-41.68
-45.19
-47.73
-50.20
-53.22
-56.88
-60.72
-64.20
-67.11
-69.81
-73.09
-77.85
-84.71
-93.83
-105.03
-117.89
-131.81
-145.93
-158.99
-169.40
-175.61
-176.55
-172.02
-162.71
-149.72
-134.11
-116.63
-97.81
-78.41
-59.63
-43.11
-30.32
-21.91
-17.29
-14.87
-12.71
-9.27
-4.01
2.68
9.84
16.50
22.12
26.76
30.91
35.19
39.89
44.87
49.52
53.09
55.11
55.69
55.54
55.61
56.69
58.83
61.30
62.72
61.66
57.19
49.31
39.02
28.05
18.46
12.07
10.07
12.78
19.66
29.44
40.39
50.66
58.56
62.88
63.13
59.63
53.40
45.86
38.47
32.21
27.58
24.63
23.18
23.12
24.37
26.73
29.72
32.41
33.69
32.68
29.08
23.44
17.01
11.45
8.48
9.68
16.27
28.99
47.91
72.19
99.92
128.29
153.93
173.40
183.77
183.04
170.40
146.50
113.42
74.44
33.52
-5.41
-39.16
-65.71
-84.23
-94.78
-98.03
-94.89
-86.48
-73.90
-58.25
-40.49
-21.46
-1.89
17.47
35.91
52.95
68.62
83.49
98.48
114.31
131.01
147.63
162.52
173.89
180.42
181.61
177.70
169.30
157.05
141.43
122.96
102.43
81.14
60.77
43.09
29.38
20.03
14.33
10.71
7.30
2.67
-3.57
-10.74
-17.34
-21.87
-23.42
-22.03
-18.56
-14.25
-10.22
-7.26
-5.81
-6.10
-8.30
-12.36
-17.97
-24.44
-30.90
-36.52
-40.79
-43.64
-45.27
-45.91
-45.62
-44.22
-41.40
-36.98
-31.04
-23.93
-16.14
-8.11
-0.34
6.67
12.24
15.63
16.33
14.42
10.67
6.35
2.72
0.51
-0.40
-0.73
-1.41
-3.00
-5.40
-7.99
-10.00
-10.87
-10.57
-9.61
-8.75
-8.68
-9.75
-11.92
-14.88
-18.25
-21.82
-25.50
-29.19
-32.53
-34.87
-35.42
-33.67
-29.68
-24.15
-18.21
-12.98
-9.14
-6.77
-5.48
-4.78
-4.35
-4.25
-4.79
-6.42
-9.35
-13.45
-18.23
-23.10
-27.46
-31.00
-33.70
-35.68
-36.95
-37.29
-36.25
-33.45
-28.92
-23.20
-17.20
-11.79
-7.43
-3.94
-0.76
2.72
6.69
10.88
14.71
17.57
19.24
19.87
19.86
19.54
18.94
17.79
15.69
12.28
7.47
1.56
-4.87
-11.12
-16.50
-20.53
-22.96
-23.79
-23.28
-21.93
-20.35
-19.17
-18.85
-19.49
-20.81
-22.35
-23.62
-24.36
-24.56
-24.28
-23.42
-21.60
-18.27
-13.06
-6.08
1.91
9.76
16.34
20.82
22.92
22.74
20.58
16.80
11.74
5.88
-0.11
-5.35
-8.97
-10.36
-9.33
-6.23
-1.92
2.41
5.47
6.13
3.83
-1.27
-8.30
-15.87
-22.50
-27.07
-29.04
-28.55
-26.22
-22.91
-19.42
-16.31
-13.77
-11.61
-9.36
-6.45
-2.40
2.89
9.07
15.41
21.08
25.43
28.27
29.83
30.55
30.76
30.51
29.63
28.01
25.86
23.79
22.63
22.92
24.67
27.18
29.41
30.43
29.82
27.87
25.33
23.07
21.61
20.90
20.24
18.52
14.51
7.29
-3.46
-17.27
-32.86
-48.47
-62.21
-72.56
-78.88
-81.61
-82.21
-82.67
-84.69
-88.85
-94.14
-97.94
-96.89
-88.01
-69.84
-42.90
-9.53
26.95
63.31
97.02
126.39
150.18
167.04
175.20
172.85
158.96
134.25
101.62
65.80
32.24
5.59
-11.64
-19.50
-20.14
-16.77
-12.37
-8.98
-7.49
-8.08
-10.70
-15.47
-22.64
-32.33
-44.16
-57.10
-69.60
-80.01
-87.05
-90.11
-89.34
-85.45
-79.40
-72.25
-64.98
-58.58
-53.96
-51.89
-52.80
-56.58
-62.50
-69.33
-75.65
-80.23
-82.41
-82.33
-80.80
-79.00
-78.04
-78.56
-80.54
-83.37
-86.13
-88.00
-88.65
-88.36
-87.97
-88.62
-91.24
-96.06
-102.05
-106.84
-107.24
-100.26
-84.40
-60.58
-32.02
-3.27
21.40
39.30
49.80
53.84
52.92
48.26
40.54
30.23
18.26
6.27
-3.54
-8.86
-7.97
-0.09
14.45
34.26
57.09
80.29
101.32
118.30
130.29
137.35
140.24
139.96
137.51
133.83
129.92
126.97
126.12
128.12
132.78
138.73
143.65
144.85
140.15
128.57
110.62
88.19
64.01
40.92
21.38
7.03
-1.37
-3.86
-1.22
5.23
13.73
22.26
28.87
31.96
30.54
24.46
14.39
1.78
-11.39
-23.02
-31.28
-35.16
-34.77
-31.50
-27.68
-26.02
-28.73
-36.72
-49.12
-63.28
-75.31
-81.07
-77.49
-63.39
-40.08
-10.98
19.24
45.80
64.81
73.83
72.01
59.96
39.66
14.21
-12.42
-35.99
-52.88
-60.95
-60.00
-51.66
-38.62
-23.59
-8.57
5.51
18.46
30.36
41.08
50.17
56.98
61.00
62.10
60.59
57.11
52.42
47.09
41.49
35.81
30.23
25.09
20.85
17.94
16.51
16.34
16.90
17.61
18.09
18.22
18.16
18.07
18.00
17.87
17.58
17.18
16.90
17.05
17.78
19.00
20.35
21.34
21.53
20.58
18.28
14.51
9.23
2.64
-4.76
-12.19
-18.67
-23.32
-25.65
-25.72
-24.21
-22.08
-20.39
-19.88
-20.91
-23.33
-26.66
-30.22
-33.39
-35.76
-37.22
-37.94
-38.29
-38.59
-38.99
-39.41
-39.59
-39.26
-38.30
-36.73
-34.68
-32.23
-29.43
-26.26
-22.81
-19.35
-16.22
-13.64
-11.57
-9.64
-7.38
-4.53
-1.17
2.25
5.20
7.39
8.89
10.10
11.44
13.06
14.80
16.28
17.10
17.05
16.15
14.53
12.36
9.79
7.11
4.73
3.13
2.66
3.28
4.46
5.39
5.37
4.20
2.46
1.33
2.22
6.26
13.80
24.22
36.04
47.37
56.44
62.12
64.08
62.83
59.29
54.53
49.40
44.48
40.11
36.43
33.47
31.09
29.06
27.08
24.88
22.30
19.29
15.93
12.37
8.80
5.43
2.45
-0.10
-2.30
-4.29
-6.21
-8.02
-9.51
-10.43
-10.64
-10.25
-9.62
-9.20
-9.36
-10.28
-11.85
-13.89
-16.18
-18.57
-20.96
-23.30
-25.52
-27.52
-29.15
-30.31
-30.90
-30.86
-30.25
-29.20
-27.95
-26.82
-26.10
-25.99
-26.55
-27.65
-29.10
-30.56
-31.75
-32.37
-32.18
-31.07
-29.07
-26.35
-23.20
-20.01
-17.19
-15.09
-13.97
-13.92
-14.84
-16.39
-18.21
-19.95
-21.42
-22.66
-23.77
-24.85
-25.93
-27.01
-28.10
-29.30
-30.67
-32.15
-33.51
-34.39
-34.52
-33.86
-32.67
-31.36
-30.26
-29.51
-29.00
-28.57
-28.12
-27.70
-27.46
-27.51
-27.83
-28.28
-28.64
-28.70
-28.25
-27.12
-25.16
-22.38
-18.94
-15.18
-11.52
-8.19
-5.08
-1.83
2.03
6.75
12.20
17.92
23.33
27.99
31.76
34.66
36.71
37.87
37.98
37.06
35.36
33.43
31.91
31.25
31.48
32.16
32.56
31.99
30.03
26.65
22.16
17.00
11.57
6.15
0.94
-3.87
-7.96
-11.00
-12.72
-13.11
-12.50
-11.56
-11.10
-11.90
-14.49
-18.91
-24.81
-31.58
-38.65
-45.85
-53.54
-62.49
-73.36
-86.20
-100.09
-113.29
-123.72
-129.80
-130.90
-127.50
-120.72
-111.66
-100.94
-88.51
-74.02
-57.26
-38.49
-18.42
2.00
22.04
41.24
59.35
75.86
89.83
99.89
104.69
103.54
96.82
85.86
72.27
57.14
40.59
22.11
1.51
-20.11
-40.05
-54.76
-61.35
-58.90
-48.90
-34.40
-18.35
-2.09
15.07
34.88
58.46
84.76
110.38
130.70
141.83
142.28
133.51
119.04
102.87
87.82
74.95
63.88
53.83
44.46
36.11
29.34
24.24
20.03
15.35
8.85
0.01
-10.76
-22.35
-33.75
-44.73
-55.99
-68.72
-83.74
-100.62
-117.29
-130.43
-136.55
-133.26
-120.32
-99.98
-76.65
-55.69
-42.13
-39.35
-48.26
-67.04
-91.59
-116.45
-136.15
-146.45
-145.48
-133.96
-114.90
-92.56
-71.28
-54.45
-44.03
-40.57
-43.58
-51.96
-64.34
-79.18
-94.79
-109.39
-121.11
-128.24
-129.37
-123.65
-110.93
-91.84
-67.79
-40.79
-13.28
12.36
34.06
50.51
61.34
67.09
69.08
69.07
68.83
69.83
72.94
78.31
85.42
93.23
100.42
105.73
108.23
107.46
103.43
96.48
87.09
75.70
62.78
48.85
34.73
21.63
11.07
4.70
3.83
9.04
19.79
34.42
50.51
65.48
77.29
84.89
88.29
88.15
85.34
80.47
73.87
65.78
56.67
47.37
39.00
32.54
28.56
27.03
27.43
29.12
31.49
34.09
36.56
38.54
39.66
39.61
38.28
35.77
32.41
28.55
24.47
20.30
16.02
11.56
6.90
2.09
-2.75
-7.43
-11.76
-15.58
-18.77
-21.37
-23.64
-26.07
-29.18
-33.37
-38.53
-43.84
-47.80
-48.64
-44.90
-36.01
-22.56
-6.17
11.04
27.05
40.36
50.19
56.38
59.09
58.71
55.73
50.80
44.73
38.50
33.07
29.20
27.27
27.16
28.31
29.94
31.31
31.95
31.76
30.89
29.63
28.12
26.37
24.19
21.42
17.95
13.81
9.16
4.21
-0.87
-5.91
-10.79
-15.39
-19.60
-23.39
-26.89
-30.37
-34.22
-38.73
-43.74
-48.49
-51.59
-51.36
-46.41
-36.11
-20.85
-1.99
18.54
38.75
56.90
71.71
82.41
88.72
90.83
89.29
84.95
78.80
71.68
64.17
56.56
48.97
41.47
34.30
27.91
22.96
20.10
19.79
22.07
26.44
31.94
37.32
41.35
43.14
42.34
39.15
34.21
28.31
22.20
16.36
11.01
6.13
1.70
-2.33
-5.96
-9.21
-12.16
-14.99
-17.89
-21.10
-24.82
-29.16
-34.07
-39.16
-43.63
-46.31
-46.04
-41.99
-34.08
-23.02
-10.11
3.15
15.51
26.11
34.45
40.29
43.44
43.88
41.80
37.69
32.36
26.69
21.48
17.21
14.04
11.88
10.55
9.88
9.79
10.23
11.11
12.22
13.23
13.74
13.30
11.53
8.24
3.50
-2.30
-8.51
-14.46
-19.68
-24.02
-27.64
-30.83
-33.78
-36.49
-38.87
-40.95
-43.03
-45.66
-49.40
-54.51
-60.64
-66.78
-71.50
-73.40
-71.52
-65.72
-56.69
-45.75
-34.53
-24.50
-16.62
-11.22
-7.92
-5.85
-3.92
-1.16
3.03
8.78
15.77
23.48
31.35
39.03
46.38
53.47
60.37
66.99
72.98
77.80
80.80
81.44
79.55
75.38
69.56
62.89
56.06
49.43
42.93
36.22
28.95
20.99
12.50
3.88
-4.36
-11.87
-18.53
-24.49
-30.15
-35.96
-42.28
-49.24
-56.63
-63.84
-69.92
-73.76
-74.31
-70.99
-63.89
-53.91
-42.49
-31.18
-21.13
-12.75
-5.70
0.69
6.95
13.03
18.40
22.39
24.71
25.73
26.36
27.58
29.88
33.00
36.08
38.12
38.48
37.15
34.66
31.74
29.03
26.80
25.04
23.59
22.20
20.69
18.85
16.51
13.55
10.03
6.15
2.21
-1.50
-4.89
-8.05
-11.18
-14.45
-17.76
-20.69
-22.62
-22.90
-21.13
-17.36
-12.06
-6.08
-0.34
4.34
7.43
8.62
7.78
4.91
0.11
-6.31
-13.76
-21.35
-28.11
-33.22
-36.30
-37.51
-37.44
-36.97
-36.82
-37.41
-38.74
-40.54
-42.45
-44.20
-45.62
-46.59
-46.97
-46.56
-45.20
-42.85
-39.59
-35.54
-30.70
-24.94
-18.05
-9.95
-0.77
9.09
19.06
28.58
37.18
44.45
50.04
53.76
55.73
56.54
57.23
59.02
62.87
69.04
76.99
85.53
93.26
99.01
102.11
102.35
99.84
94.84
87.71
78.93
69.19
59.38
50.39
42.93
37.26
33.22
30.36
28.14
26.22
24.45
22.84
21.31
19.60
17.21
13.60
8.39
1.60
-6.36
-14.80
-22.94
-30.22
-36.36
-41.45
-45.78
-49.71
-53.49
-57.24
-60.87
-64.19
-66.98
-69.07
-70.43
-71.15
-71.47
-71.73
-72.26
-73.21
-74.45
-75.49
-75.59
-73.97
-70.06
-63.72
-55.28
-45.45
-35.16
-25.38
-17.01
-10.69
-6.78
-5.27
-5.84
-7.90
-10.78
-13.82
-16.52
-18.48
-19.47
-19.36
-18.13
-15.93
-13.05
-9.85
-6.69
-3.91
-1.76
-0.45
-0.19
-1.11
-3.23
-6.31
-9.85
-13.19
-15.69
-16.92
-16.84
-15.69
-13.89
-11.84
-9.81
-7.96
-6.43
-5.46
-5.41
-6.55
-8.97
-12.45
-16.54
-20.70
-24.48
-27.53
-29.55
-30.22
-29.17
-26.15
-21.22
-14.90
-8.09
-1.93
2.59
4.90
4.94
3.20
0.43
-2.49
-4.83
-6.04
-5.86
-4.24
-1.30
2.67
7.23
11.73
15.36
17.30
17.00
14.31
9.59
3.58
-2.84
-8.87
-13.82
-17.18
-18.49
-17.43
-13.96
-8.53
-2.16
3.71
7.72
8.95
7.26
3.31
-1.85
-7.16
-12.00
-16.28
-20.21
-24.01
-27.53
-30.18
-31.04
-29.30
-24.58
-17.17
-7.99
1.64
10.33
16.96
20.86
21.88
20.28
16.58
11.37
5.28
-1.11
-7.18
-12.28
-15.78
-17.22
-16.42
-13.54
-9.06
-3.60
2.29
8.21
13.96
19.39
24.34
28.58
31.81
33.80
34.48
33.98
32.62
30.73
28.59
26.36
24.01
21.43
18.50
15.16
11.51
7.82
4.43
1.66
-0.25
-1.28
-1.52
-1.07
0.08
2.18
5.61
10.77
17.83
26.60
36.45
46.45
55.58
62.95
68.03
70.68
71.12
69.85
67.55
64.90
62.47
60.53
59.05
57.62
55.61
52.34
47.27
40.24
31.45
21.44
10.93
0.62
-8.88
-17.14
-23.93
-29.09
-32.60
-34.50
-34.96
-34.32
-32.96
-31.32
-29.75
-28.43
-27.39
-26.59
-25.99
-25.64
-25.65
-26.21
-27.50
-29.68
-32.75
-36.54
-40.60
-44.16
-46.28
-46.04
-42.83
-36.65
-28.08
-18.19
-8.22
0.73
7.92
13.05
16.10
17.29
16.88
15.15
12.43
9.12
5.74
2.85
0.89
0.08
0.30
1.16
2.15
2.82
2.95
2.57
1.82
0.75
-0.72
-2.87
-5.95
-10.02
-14.82
-19.87
-24.67
-28.92
-32.60
-35.94
-39.28
-42.91
-46.95
-51.37
-55.92
-60.11
-63.29
-64.74
-63.85
-60.36
-54.52
-47.06
-39.01
-31.43
-25.17
-20.68
-17.99
-16.74
-16.39
-16.22
-15.53
-13.76
-10.66
-6.27
-0.94
4.80
10.47
15.70
20.33
24.33
27.74
30.56
32.73
34.17
34.85
34.80
34.09
32.84
31.18
29.34
27.62
26.45
26.21
27.14
29.24
32.22
35.63
38.98
41.79
43.69
44.35
43.51
40.97
36.79
31.35
25.38
19.74
15.16
11.89
9.61
7.56
4.87
0.94
-4.28
-10.37
-16.64
-22.42
-27.28
-31.04
-33.67
-35.22
-35.66
-34.99
-33.29
-30.72
-27.56
-24.13
-20.76
-17.65
-14.98
-12.87
-11.49
-11.02
-11.64
-13.44
-16.34
-20.00
-23.90
-27.38
-29.92
-31.23
-31.44
-31.02
-30.55
-30.48
-30.85
-31.21
-30.75
-28.66
-24.45
-18.12
-10.25
-1.70
6.58
13.83
19.58
23.62
26.00
26.90
26.63
25.53
23.96
22.26
20.77
19.76
19.38
19.68
20.52
21.64
22.72
23.49
23.78
23.59
22.99
22.07
20.91
19.56
18.04
16.37
14.60
12.75
10.91
9.20
7.76
6.68
5.88
5.02
3.61
1.18
-2.54
-7.41
-12.84
-17.90
-21.60
-23.15
-22.25
-19.18
-14.72
-9.88
-5.61
-2.57
-0.94
-0.60
-1.29
-2.72
-4.67
-6.89
-8.99
-10.45
-10.72
-9.44
-6.57
-2.39
2.59
7.87
13.00
17.69
21.70
24.83
26.94
27.96
27.95
27.08
25.50
23.40
20.92
18.31
15.87
13.95
12.85
12.60
12.99
13.58
13.93
13.83
13.41
13.10
13.46
14.95
17.65
21.26
25.14
28.55
30.85
31.70
31.00
28.86
25.41
20.76
15.08
8.65
1.99
-4.22
-9.24
-12.52
-13.89
-13.53
-12.00
-9.99
-8.13
-6.85
-6.31
-6.38
-6.87
-7.55
-8.32
-9.15
-10.05
-11.05
-12.13
-13.18
-14.08
-14.75
-15.23
-15.72
-16.50
-17.85
-19.94
-22.72
-25.87
-28.90
-31.16
-32.06
-31.06
-27.87
-22.43
-15.05
-6.42
2.54
10.82
17.58
22.31
24.90
25.54
24.61
22.51
19.63
16.31
12.87
9.60
6.75
4.50
2.97
2.20
2.14
2.65
3.47
4.33
4.91
4.98
4.43
3.23
1.48
-0.64
-2.98
-5.38
-7.73
-10.01
-12.22
-14.38
-16.43
-18.30
-19.89
-21.23
-22.47
-23.86
-25.63
-27.94
-30.75
-33.83
-36.84
-39.28
-40.58
-40.18
-37.59
-32.60
-25.41
-16.67
-7.36
1.38
8.62
13.78
16.76
17.81
17.36
15.88
13.77
11.33
8.83
6.55
4.79
3.79
3.69
4.50
6.02
7.97
10.04
11.98
13.62
14.82
15.50
15.56
14.96
13.76
12.12
10.26
8.42
6.72
5.19
3.84
2.62
1.56
0.68
-0.01
-0.62
-1.33
-2.42
-4.15
-6.65
-9.85
-13.43
-16.81
-19.25
-19.95
-18.31
-14.11
-7.61
0.40
8.83
16.52
22.53
26.35
27.96
27.68
26.01
23.41
20.24
16.76
13.31
10.21
7.84
6.42
5.95
6.21
6.83
7.48
7.92
8.03
7.76
7.09
5.99
4.48
2.61
0.53
-1.63
-3.82
-6.08
-8.46
-10.96
-13.52
-15.98
-18.25
-20.29
-22.15
-23.93
-25.76
-27.71
-29.86
-32.15
-34.39
-36.11
-36.63
-35.21
-31.30
-24.80
-16.27
-6.77
2.40
10.09
15.61
18.82
20.02
19.72
18.41
16.40
13.90
11.09
8.27
5.84
4.19
3.58
3.97
5.09
6.55
8.02
9.29
10.24
10.76
10.70
9.90
8.29
5.94
3.07
-0.01
-3.05
-5.92
-8.62
-11.26
-13.92
-16.61
-19.28
-21.85
-24.18
-26.22
-27.94
-29.38
-30.66
-31.95
-33.52
-35.59
-38.29
-41.52
-44.85
-47.49
-48.49
-47.01
-42.67
-35.74
-27.07
-17.93
-9.51
-2.67
2.25
5.35
6.96
7.43
7.04
6.03
4.73
3.55
2.96
3.32
4.76
7.11
9.98
12.95
15.71
18.11
20.13
21.84
23.22
24.22
24.74
24.74
24.21
23.26
21.98
20.51
18.93
17.28
15.58
13.80
11.98
10.15
8.40
6.87
5.70
4.98
4.68
4.65
4.58
4.12
2.97
0.97
-1.77
-4.91
-7.83
-9.82
-10.13
-8.27
-4.19
1.69
8.49
15.18
20.85
24.98
27.44
28.38
27.99
26.45
23.91
20.58
16.86
13.29
10.40
8.56
7.89
8.27
9.42
11.03
12.82
14.53
15.95
16.85
17.08
16.59
15.46
13.94
12.32
10.92
9.90
9.28
8.90
8.53
7.91
6.94
5.65
4.21
2.85
1.75
0.95
0.35
-0.34
-1.43
-3.20
-5.76
-8.92
-12.13
-14.59
-15.47
-14.12
-10.43
-4.82
1.69
7.84
12.37
14.38
13.52
10.00
4.49
-2.13
-8.89
-14.96
-19.74
-22.89
-24.35
-24.24
-22.76
-20.07
-16.26
-11.37
-5.56
0.85
7.24
12.85
16.91
18.90
18.74
16.79
13.79
10.66
8.24
7.09
7.22
8.07
8.64
7.83
4.91
-0.15
-6.58
-13.02
-18.14
-21.12
-22.06
-21.94
-22.13
-23.80
-27.34
-32.15
-36.92
-40.07
-40.43
-37.55
-31.75
-23.88
-14.94
-5.78
3.07
11.41
19.21
26.51
33.17
38.83
42.86
44.57
43.53
39.94
34.70
29.28
25.24
23.70
24.91
28.31
32.79
37.31
41.21
44.42
47.15
49.56
51.50
52.48
51.92
49.46
45.18
39.54
33.00
25.85
18.02
9.24
-0.69
-11.58
-22.81
-33.41
-42.45
-49.32
-53.91
-56.64
-58.18
-59.19
-60.00
-60.44
-59.85
-57.24
-51.61
-42.36
-29.55
-14.06
2.51
18.22
31.27
40.49
45.59
47.16
46.42
44.89
44.04
45.18
49.22
56.52
66.77
78.83
90.86
100.67
106.22
106.19
100.33
89.54
75.59
60.68
46.86
35.58
27.44
22.17
18.80
16.05
12.64
7.58
0.35
-8.98
-19.66
-30.44
-39.74
-46.02
-48.20
-46.04
-40.26
-32.27
-23.80
-16.36
-10.84
-7.36
-5.45
-4.23
-2.79
-0.47
3.02
7.56
12.64
17.55
21.46
23.77
24.13
22.67
19.74
15.88
11.51
6.85
2.00
-2.94
-7.77
-12.12
-15.61
-18.04
-19.51
-20.39
-21.17
-22.25
-23.78
-25.65
-27.59
-29.33
-30.69
-31.69
-32.50
-33.34
-34.46
-35.91
-37.60
-39.33
-40.86
-42.11
-43.12
-44.15
-45.45
-47.08
-48.86
-50.33
-50.91
-50.14
-47.88
-44.28
-39.74
-34.76
-29.84
-25.43
-21.97
-19.92
-19.63
-21.26
-24.65
-29.35
-34.76
-40.30
-45.61
-50.45
-54.65
-57.96
-60.07
-60.70
-59.76
-57.44
-54.11
-50.22
-46.06
-41.75
-37.29
-32.62
-27.68
-22.46
-16.98
-11.31
-5.64
-0.33
4.13
7.24
8.63
8.13
5.76
1.63
-4.19
-11.73
-21.08
-32.14
-44.37
-56.65
-67.24
-74.14
-75.59
-70.63
-59.51
-43.63
-25.22
-6.73
9.53
21.73
28.57
29.34
24.09
13.87
0.69
-12.64
-23.19
-28.67
-28.00
-21.55
-10.83
2.13
15.42
27.67
38.28
47.10
54.23
59.65
63.14
64.34
62.98
59.13
53.14
45.49
36.42
25.79
13.09
-2.19
-20.13
-40.08
-60.69
-80.37
-97.78
-112.28
-124.02
-133.61
-141.74
-148.72
-154.31
-157.75
-157.96
-153.73
-143.98
-127.91
-105.38
-77.08
-44.69
-10.67
22.14
51.17
74.65
91.85
102.98
108.81
110.32
108.50
104.31
98.78
92.95
87.78
83.91
81.52
80.39
80.14
80.54
81.72
84.05
87.89
93.16
99.12
104.35
107.12
105.80
99.30
87.34
70.51
50.22
28.50
7.72
-9.79
-22.31
-29.22
-31.35
-30.78
-30.25
-32.24
-38.22
-48.24
-61.09
-74.74
-86.84
-95.14
-97.74
-93.34
-81.47
-62.79
-39.16
-13.33
11.54
32.58
47.82
56.39
58.37
54.55
46.17
34.78
22.17
10.31
1.17
-3.60
-3.01
2.95
13.34
26.53
40.62
54.03
65.81
75.70
83.92
90.86
96.74
101.58
105.21
107.51
108.53
108.48
107.58
105.94
103.41
99.77
94.84
88.66
81.45
73.54
65.14
56.20
46.55
36.03
24.81
13.46
2.85
-6.20
-13.30
-18.71
-23.32
-28.21
-34.22
-41.58
-49.86
-58.24
-65.92
-72.41
-77.57
-81.42
-83.85
-84.52
-82.94
-78.81
-72.29
-64.06
-55.20
-46.75
-39.29
-32.81
-26.65
-19.85
-11.54
-1.25
10.91
24.42
38.42
51.98
64.23
74.38
81.83
86.20
87.50
86.12
82.85
78.57
73.99
69.41
64.62
59.18
52.65
44.94
36.35
27.41
18.66
10.42
2.64
-4.94
-12.67
-20.72
-28.97
-37.09
-44.60
-51.12
-56.40
-60.38
-63.12
-64.68
-65.04
-64.13
-61.88
-58.37
-53.86
-48.81
-43.75
-39.17
-35.44
-32.73
-31.13
-30.65
-31.24
-32.79
-35.06
-37.70
-40.22
-42.21
-43.42
-43.85
-43.78
-43.71
-44.26
-46.04
-49.45
-54.52
-60.95
-68.23
-75.92
-83.89
-92.44
-102.06
-113.04
-125.14
-137.21
-147.51
-154.09
-155.45
-150.95
-140.89
-126.23
-108.20
-88.01
-66.63
-44.89
-23.56
-3.45
14.61
29.72
41.18
48.60
52.11
52.49
51.12
49.68
49.65
51.80
55.87
60.72
64.70
66.27
64.43
59.00
50.62
40.69
31.25
24.73
23.36
28.49
39.93
55.78
73.02
88.37
99.40
105.16
106.11
103.56
98.84
92.76
85.48
76.68
65.97
53.26
38.99
24.17
10.19
-1.51
-9.87
-14.54
-15.80
-14.29
-10.58
-5.07
1.85
9.29
15.61
18.56
15.94
6.62
-8.82
-28.07
-47.82
-64.89
-77.28
-84.53
-87.49
-87.57
-86.03
-83.56
-80.37
-76.49
-72.09
-67.61
-63.49
-60.02
-57.25
-55.01
-53.23
-52.05
-51.71
-52.42
-54.07
-56.16
-58.02
-59.17
-59.56
-59.60
-59.96
-61.02
-62.56
-63.66
-63.06
-59.70
-53.18
-43.96
-33.19
-22.32
-12.65
-5.16
-0.46
1.00
-0.92
-6.06
-13.58
-21.98
-29.23
-33.35
-32.92
-27.55
-17.85
-5.16
8.86
22.65
34.90
44.62
51.15
54.24
54.14
51.55
47.43
42.71
38.05
33.70
29.63
25.75
22.08
18.80
16.17
14.35
13.29
12.75
12.38
11.80
10.74
8.90
6.08
2.22
-2.41
-7.00
-10.25
-10.67
-7.15
0.48
11.18
22.99
33.64
41.42
45.68
46.88
46.14
44.51
42.50
39.93
36.33
31.31
24.96
17.85
10.77
4.39
-0.92
-5.06
-8.04
-9.82
-10.35
-9.68
-8.17
-6.44
-5.28
-5.32
-6.76
-9.33
-12.41
-15.34
-17.76
-19.69
-21.48
-23.55
-26.04
-28.68
-30.85
-31.84
-31.20
-29.04
-25.94
-22.85
-20.61
-19.65
-19.74
-19.98
-19.02
-15.44
-8.14
3.25
18.28
35.72
53.88
71.00
85.58
96.59
103.48
106.08
104.59
99.54
91.90
83.03
74.52
67.90
64.21
63.77
66.09
70.15
74.72
78.83
81.98
84.07
85.31
85.87
85.75
84.76
82.58
78.98
73.94
67.77
61.01
54.27
48.00
42.28
36.85
31.19
24.71
17.03
8.13
-1.54
-11.13
-19.50
-25.40
-27.69
-25.69
-19.37
-9.46
2.63
15.10
26.20
34.57
39.48
40.79
38.75
33.83
26.64
17.84
8.28
-1.06
-9.21
-15.41
-19.32
-21.06
-21.12
-20.13
-18.66
-17.13
-15.79
-14.86
-14.57
-15.09
-16.47
-18.54
-20.86
-22.86
-24.00
-23.91
-22.52
-20.08
-17.08
-14.17
-12.00
-11.03
-11.35
-12.49
-13.45
-12.94
-9.80
-3.48
5.61
16.20
26.47
34.70
39.74
41.29
39.70
35.67
29.92
23.02
15.50
7.94
1.06
-4.44
-8.04
-9.62
-9.54
-8.41
-6.85
-5.19
-3.41
-1.26
1.47
4.75
8.26
11.58
14.32
16.34
17.65
18.30
18.13
16.77
13.66
8.27
0.33
-10.08
-22.54
-36.27
-50.17
-62.80
-72.54
-77.78
-77.42
-71.20
-60.01
-45.70
-30.61
-16.93
-6.11
1.39
5.97
8.41
9.43
9.36
8.22
5.92
2.72
-0.76
-3.75
-5.61
-6.08
-5.29
-3.67
-1.77
-0.01
1.59
3.19
4.90
6.62
8.06
8.85
8.72
7.51
5.24
2.38
-0.57
-3.37
-6.12
-9.09
-12.61
-17.02
-22.69
-29.96
-37.96
-45.58
-51.91
-56.52
-59.04
-58.91
-55.45
-48.30
-37.62
-22.13
-1.36
23.33
48.71
71.06
87.66
97.31
100.15
97.16
93.26
93.02
98.61
108.90
121.06
132.63
142.27
149.58
154.94
163.77
181.27
209.75
247.36
290.14
334.53
378.25
419.71
430.43
391.49
303.19
186.85
69.09
-32.84
-112.74
-170.77
-209.70
-233.19
-240.79
-232.74
-211.97
-184.52
-157.16
-134.69
-119.21
-111.14
-109.88
-110.87
-109.61
-103.84
-94.86
-85.50
-78.00
-73.15
-71.03
-71.51
-72.34
-71.31
-67.59
-62.94
-59.64
-58.74
-59.27
-60.58
-62.33
-63.73
-64.13
-63.53
-63.71
-65.90
-69.70
-72.48
-73.39
-72.85
-72.20
-72.61
-74.96
-81.33
-92.67
-107.95
-123.29
-136.48
-146.08
-151.96
-154.21
-143.48
-117.08
-80.48
-52.23
-34.87
-26.74
-22.74
-21.13
-20.82
-21.10
-23.08
-27.46
-33.63
-38.76
-41.96
-39.20
-28.64
-10.33
13.15
36.69
55.94
68.92
77.45
83.13
86.83
88.34
87.94
86.33
83.90
79.97
75.22
71.18
68.03
65.22
61.56
56.36
49.56
41.33
32.41
24.27
18.89
17.48
20.55
27.54
37.29
48.19
58.48
66.78
72.63
76.31
78.18
78.45
76.81
72.73
65.82
56.42
45.84
36.33
30.30
29.32
33.52
41.39
50.39
57.93
62.18
62.48
59.14
52.94
44.67
35.02
24.76
14.84
6.33
0.13
-3.38
-4.46
-3.95
-2.97
-2.39
-2.67
-3.54
-4.07
-2.85
1.70
10.74
24.66
42.74
63.33
84.35
103.87
120.58
133.80
143.38
149.26
151.36
149.56
144.05
135.47
124.78
112.96
100.69
88.29
75.80
63.16
50.08
36.04
20.07
0.92
-22.63
-51.25
-84.51
-120.92
-158.31
-194.48
-227.67
-256.94
-282.33
-304.76
-325.72
-345.98
-365.05
-381.13
-391.71
-394.35
-387.67
-372.27
-350.68
-327.23
-305.53
-287.51
-273.38
-262.29
-252.61
-242.71
-231.62
-219.19
-206.66
-194.41
-181.95
-168.65
-154.78
-140.75
-127.13
-114.41
-102.71
-92.33
-81.15
-65.08
-39.83
-3.34
44.53
101.36
162.72
228.79
290.88
338.14
365.68
377.44
380.75
381.77
382.58
382.03
377.82
367.07
349.34
326.31
303.55
280.60
257.48
235.14
215.28
199.66
188.45
181.51
178.38
177.79
177.24
175.12
170.56
162.79
152.74
141.46
130.55
121.62
115.45
111.33
108.38
105.55
101.81
96.63
89.59
80.92
71.25
61.26
51.22
41.62
32.90
25.10
18.05
11.10
3.62
-4.66
-13.28
-21.17
-26.76
-29.03
-28.78
-28.06
-29.51
-35.28
-46.27
-61.83
-80.24
-99.42
-117.88
-136.32
-155.55
-175.51
-195.20
-213.44
-229.70
-244.25
-257.85
-271.21
-286.88
-305.12
-323.19
-336.70
-342.34
-339.32
-329.04
-313.94
-296.67
-283.95
-280.66
-287.94
-303.62
-323.80
-344.13
-360.28
-368.71
-367.91
-364.32
-363.13
-364.55
-364.30
-356.86
-338.81
-309.40
-269.57
-188.18
-57.69
102.63
258.31
383.37
470.43
524.10
552.72
563.91
562.98
547.15
515.58
475.34
433.95
399.36
376.19
364.76
362.09
363.70
359.56
344.52
321.02
296.21
276.84
265.98
262.53
262.80
262.55
252.34
227.67
190.93
148.35
105.38
63.91
23.22
-17.74
-58.64
-104.79
-157.24
-211.38
-260.47
-300.51
-331.96
-357.82
-381.52
-405.17
-437.75
-483.28
-538.16
-593.80
-641.97
-677.29
-697.15
-701.68
-647.25
-522.88
-354.72
-185.99
-45.42
59.87
133.81
181.42
203.55
206.95
192.01
164.59
136.84
121.71
125.79
148.40
185.70
229.96
269.72
289.31
283.84
262.05
239.12
226.28
226.84
236.31
246.11
248.89
237.74
212.52
179.06
147.66
120.85
98.61
79.42
61.45
44.06
26.02
7.71
-9.28
-24.15
-36.23
-45.66
-53.53
-60.97
-68.01
-74.06
-78.41
-79.59
-77.94
-75.80
-75.87
-80.00
-88.22
-98.57
-107.92
-113.29
-112.97
-107.34
-97.34
-85.05
-72.41
-60.55
-49.36
-37.44
-22.52
-2.14
25.24
59.47
98.22
137.24
171.38
196.05
208.73
209.66
201.69
189.01
175.81
165.02
158.08
155.19
155.91
159.61
165.58
172.91
180.31
186.30
189.57
189.64
187.01
182.94
178.95
176.37
176.08
178.39
182.84
187.80
190.19
185.70
169.79
139.55
95.40
41.58
-14.99
-67.07
-109.41
-139.91
-159.47
-170.51
-175.57
-176.53
-174.72
-171.44
-168.47
-167.77
-170.88
-178.51
-190.39
-205.42
-221.95
-238.01
-251.59
-261.19
-265.58
-263.95
-256.30
-243.51
-227.20
-208.91
-189.92
-171.07
-153.79
-138.92
-126.60
-116.47
-108.00
-100.74
-93.95
-86.86
-79.02
-71.67
-65.68
-61.13
-57.81
-55.68
-55.26
-56.66
-59.50
-62.98
-67.65
-72.90
-76.92
-77.66
-73.74
-64.82
-50.64
-31.32
1.20
45.00
90.37
126.76
148.59
159.87
164.60
165.23
161.04
150.64
131.88
105.80
76.90
50.92
32.24
22.85
22.76
30.91
45.88
65.33
88.05
113.45
140.21
160.54
166.13
153.65
127.57
96.52
67.48
44.55
28.85
18.66
10.24
1.78
-9.18
-23.46
-40.41
-58.32
-74.36
-85.73
-90.96
-90.22
-83.26
-69.93
-51.05
-28.61
-5.16
17.05
36.42
52.01
63.63
73.46
83.72
95.79
109.34
123.12
135.80
146.46
154.78
152.98
137.62
110.30
76.96
43.18
12.43
-13.73
-34.37
-48.72
-56.54
-57.37
-52.48
-43.81
-35.32
-29.65
-27.78
-29.47
-34.03
-41.16
-50.07
-60.41
-71.53
-84.03
-97.43
-110.35
-121.00
-127.60
-128.50
-121.60
-105.60
-80.31
-49.58
-17.99
9.71
30.43
44.00
53.08
62.09
69.79
83.44
99.94
115.90
128.52
136.74
141.32
143.81
145.28
145.36
143.24
136.39
124.51
109.09
92.71
77.65
64.68
52.84
40.24
26.12
10.01
-6.24
-20.17
-30.05
-35.73
-38.58
-40.71
-43.94
-48.77
-55.36
-62.58
-68.82
-72.25
-71.03
-63.68
-49.55
-29.39
-5.25
19.27
40.47
55.30
61.82
59.34
48.13
29.15
4.15
-24.25
-52.84
-78.20
-97.63
-109.88
-115.37
-115.91
-113.79
-111.02
-108.84
-107.65
-107.40
-107.95
-109.16
-110.86
-112.61
-113.77
-113.64
-111.73
-108.01
-102.86
-96.85
-90.40
-83.66
-76.51
-68.84
-60.76
-52.71
-45.05
-37.66
-29.72
-19.87
-6.87
9.83
29.74
51.42
72.92
92.38
108.43
120.48
128.62
133.40
135.60
135.99
135.20
133.71
131.81
129.75
127.71
125.83
124.13
122.39
120.12
116.71
111.62
104.63
95.89
85.82
74.84
63.19
50.87
37.70
23.61
8.82
-6.03
-20.00
-32.20
-42.05
-49.57
-55.32
-60.21
-65.05
-70.30
-75.81
-80.94
-84.73
-86.17
-84.44
-79.15
-70.34
-58.58
-44.93
-30.78
-17.60
-6.55
1.63
6.76
9.06
8.91
6.74
3.02
-1.64
-6.42
-10.40
-12.75
-13.08
-11.48
-8.53
-5.00
-1.61
1.19
3.21
4.40
4.79
4.40
3.31
1.69
-0.28
-2.40
-4.65
-7.09
-9.85
-12.93
-16.20
-19.35
-22.13
-24.43
-26.40
-28.40
-30.83
-34.00
-37.97
-42.53
-47.21
-51.28
-53.86
-54.04
-51.11
-44.75
-35.26
-23.54
-10.91
1.13
11.32
18.87
23.53
25.48
25.17
23.11
19.83
15.83
11.72
8.15
5.75
4.92
5.69
7.72
10.41
13.05
15.11
16.22
16.23
15.15
13.03
10.03
6.34
2.25
-1.98
-6.08
-9.91
-13.30
-16.14
-18.29
-19.61
-20.03
-19.58
-18.51
-17.20
-16.08
-15.57
-15.87
-16.89
-18.17
-18.87
-17.92
-14.32
-7.41
2.83
15.72
30.02
44.23
57.01
67.41
75.12
80.33
83.62
85.63
86.87
87.60
87.87
87.64
86.92
85.91
84.95
84.37
84.34
84.72
85.08
84.90
83.63
80.86
76.31
69.83
61.36
51.06
39.30
26.71
14.09
2.22
-8.26
-17.01
-23.99
-29.49
-34.06
-38.39
-43.11
-48.66
-55.06
-61.93
-68.53
-73.93
-77.39
-78.48
-77.21
-74.07
-69.85
-65.55
-62.20
-60.62
-61.25
-63.92
-67.88
-71.99
-75.14
-76.60
-76.29
-74.63
-72.30
-69.69
-66.68
-62.65
-56.84
-48.88
-38.99
-28.00
-17.05
-7.07
1.43
8.43
14.19
18.95
22.76
25.47
26.91
27.03
25.98
24.01
21.31
17.88
13.52
8.05
1.39
-6.31
-14.73
-23.39
-31.73
-39.04
-44.46
-46.97
-45.58
-39.68
-29.31
-15.30
0.85
17.32
32.32
44.37
52.51
56.25
55.59
50.93
43.03
32.98
22.00
11.38
2.25
-4.55
-8.59
-9.87
-8.82
-6.09
-2.46
1.39
4.90
7.67
9.37
9.81
8.85
6.56
3.16
-0.98
-5.46
-9.94
-14.21
-18.16
-21.71
-24.76
-27.17
-28.87
-29.91
-30.56
-31.27
-32.57
-34.93
-38.45
-42.74
-46.86
-49.51
-49.33
-45.38
-37.41
-26.04
-12.59
1.32
14.15
24.80
32.76
38.01
40.81
41.55
40.63
38.46
35.52
32.34
29.43
27.21
25.94
25.64
26.19
27.34
28.81
30.29
31.54
32.35
32.63
32.33
31.46
30.07
28.18
25.79
22.89
19.54
15.84
11.99
8.24
4.77
1.65
-1.19
-3.88
-6.59
-9.37
-12.27
-15.31
-18.61
-22.25
-26.17
-30.01
-32.96
-33.96
-31.99
-26.47
-17.55
-6.12
6.41
18.49
28.79
36.51
41.35
43.46
43.24
41.23
38.01
34.10
30.04
26.31
23.34
21.45
20.78
21.23
22.49
24.06
25.44
26.27
26.41
25.92
24.89
23.39
21.38
18.84
15.88
12.75
9.78
7.22
5.09
3.20
1.29
-0.78
-2.99
-5.01
-6.53
-7.45
-7.92
-8.25
-8.77
-9.60
-10.59
-11.27
-10.86
-8.49
-3.45
4.55
15.25
27.76
40.57
51.87
59.93
63.69
62.73
57.28
48.03
35.88
21.61
5.75
-11.46
-29.84
-48.44
-66.25
-82.25
-95.74
-106.45
-114.62
-121.01
-126.62
-132.24
-137.10
-140.22
-140.82
-138.41
-132.60
-123.05
-109.63
-92.68
-72.97
-49.85
-23.55
4.99
34.34
63.17
90.58
115.79
138.18
157.49
176.18
195.66
215.76
234.29
248.31
255.69
256.23
252.27
234.57
202.18
161.12
121.44
89.72
66.86
50.60
37.99
26.33
13.26
1.25
-10.48
-21.79
-31.31
-37.14
-38.14
-35.27
-31.74
-31.89
-37.98
-52.41
-75.44
-104.75
-136.10
-164.94
-187.91
-203.99
-214.32
-212.87
-198.08
-172.53
-141.50
-110.11
-81.75
-57.93
-39.21
-25.50
-15.59
-9.26
-7.25
-8.57
-12.77
-20.38
-31.62
-45.82
-61.05
-74.28
-83.69
-88.53
-89.48
-85.19
-77.54
-69.05
-61.75
-56.33
-52.28
-49.14
-46.38
-43.45
-40.13
-36.82
-33.58
-30.23
-26.48
-22.28
-18.26
-15.29
-14.11
-15.06
-18.26
-22.97
-28.10
-32.78
-37.00
-41.85
-49.05
-60.02
-75.17
-93.68
-113.05
-129.84
-140.50
-142.26
-133.70
-114.74
-86.52
-50.94
-10.41
32.84
77.07
121.11
164.36
206.44
246.97
285.19
319.85
349.05
370.35
380.94
378.13
360.05
326.45
279.31
222.84
162.61
104.11
51.33
6.00
-32.14
-64.31
-91.63
-114.56
-133.08
-147.18
-157.06
-163.03
-164.98
-162.21
-153.64
-138.64
-117.63
-92.18
-64.49
-36.53
-9.46
16.26
40.28
61.72
79.02
90.60
95.75
95.22
91.09
85.84
81.34
78.18
75.74
73.01
69.17
64.02
57.84
51.14
44.33
37.52
30.70
23.91
17.52
12.11
8.21
6.04
5.47
6.04
6.92
7.22
6.19
3.80
0.64
-2.51
-5.15
-7.23
-9.29
-12.45
-17.71
-25.70
-35.31
-44.70
-52.48
-58.33
-62.81
-66.77
-71.41
-77.31
-84.89
-92.43
-97.87
-100.22
-99.66
-96.23
-88.89
-77.02
-59.82
-38.73
-14.37
11.33
34.10
48.48
50.84
41.70
24.20
5.14
-9.02
-9.46
10.38
51.76
110.57
180.57
256.74
334.21
411.06
459.25
455.78
399.66
313.89
225.01
147.74
94.42
54.70
21.40
-9.44
-35.26
-52.20
-60.70
-63.72
-65.87
-70.73
-81.39
-97.12
-116.58
-135.44
-149.83
-158.91
-165.11
-171.97
-181.40
-194.40
-208.74
-221.72
-228.77
-225.91
-211.87
-188.67
-160.45
-131.33
-104.92
-82.50
-64.17
-48.36
-33.55
-19.47
-7.20
1.93
7.73
11.01
13.14
15.07
17.31
19.44
20.39
19.31
16.45
13.38
11.87
12.05
12.76
12.47
10.06
5.40
-0.74
-7.14
-12.72
-17.07
-21.77
-28.27
-36.67
-46.11
-55.52
-64.65
-74.21
-85.10
-89.78
-83.92
-68.75
-49.65
-31.60
-16.57
-4.51
5.01
12.80
19.52
24.40
26.05
25.48
24.24
23.81
25.05
27.47
30.95
35.03
38.47
40.65
42.20
44.35
48.51
55.60
65.03
76.47
88.52
99.54
108.91
116.84
122.90
125.94
126.99
123.46
115.76
105.04
93.13
81.70
71.55
61.18
49.93
37.48
22.64
7.10
-8.56
-24.09
-39.74
-55.62
-71.82
-87.21
-93.67
-99.40
-103.43
-106.46
-108.53
-108.46
-104.16
-94.80
-80.68
-63.92
-49.29
-39.62
-37.22
-41.65
-50.54
-60.57
-69.88
-76.40
-77.73
-72.46
-58.66
-36.05
-4.93
33.72
82.69
136.89
186.48
222.60
244.47
255.06
256.80
252.77
242.89
229.15
212.45
193.60
173.33
151.96
129.69
106.90
84.70
64.23
46.58
31.17
17.23
4.28
-8.24
-21.28
-35.64
-51.42
-68.08
-84.28
-99.15
-111.72
-121.10
-126.90
-129.72
-130.65
-130.74
-130.99
-131.97
-134.30
-138.11
-142.94
-148.03
-152.73
-156.59
-159.35
-161.01
-161.59
-161.19
-159.75
-157.10
-153.07
-147.76
-141.38
-134.12
-126.09
-117.31
-107.90
-98.20
-88.71
-79.83
-71.63
-63.69
-55.41
-46.33
-36.54
-26.64
-17.46
-9.57
-2.92
3.00
8.77
14.52
19.68
23.21
24.09
21.94
17.38
11.94
7.46
5.51
6.85
11.35
18.31
26.94
36.59
46.85
57.31
67.34
76.11
82.67
86.27
86.38
82.67
74.99
63.48
48.98
33.37
19.60
11.09
10.61
19.28
35.92
57.36
79.46
98.42
111.85
119.16
121.15
119.29
114.93
108.94
101.70
93.39
84.38
75.39
67.42
61.37
57.56
55.56
54.31
52.41
48.61
42.17
32.94
21.20
7.41
-8.08
-24.62
-40.96
-55.33
-65.92
-71.53
-72.24
-69.40
-65.23
-62.43
-62.72
-66.50
-72.94
-80.90
-89.35
-97.75
-105.69
-112.77
-119.11
-124.55
-128.70
-131.04
-131.41
-129.86
-126.64
-121.69
-114.92
-107.18
-99.10
-90.92
-82.13
-72.34
-61.22
-48.84
-35.08
-15.63
9.52
36.72
61.20
80.35
93.04
101.46
106.43
108.79
109.97
111.23
114.46
118.51
123.45
128.90
134.57
140.66
148.42
159.37
173.58
189.72
205.28
217.72
224.81
225.69
220.92
212.31
201.74
189.94
176.93
162.50
147.13
131.66
117.09
104.02
92.41
81.54
70.13
57.10
42.10
25.66
8.49
-8.85
-26.12
-43.12
-59.47
-74.57
-87.52
-97.31
-102.88
-103.57
-99.26
-90.68
-79.25
-67.00
-56.00
-47.73
-42.49
-39.30
-36.45
-32.32
-26.11
-18.14
-9.71
-2.55
1.62
1.38
-4.17
-15.11
-30.69
-49.33
-69.08
-88.59
-107.79
-128.35
-153.19
-185.27
-225.93
-273.59
-323.37
-368.07
-400.25
-414.47
-408.90
-385.58
-349.20
-305.04
-257.20
-207.44
-155.26
-98.78
-36.21
32.47
104.35
173.33
231.04
268.81
280.39
264.25
224.77
171.40
116.13
70.46
42.80
37.26
53.73
88.70
136.24
189.02
239.27
279.93
305.98
315.29
308.74
289.39
261.34
228.32
193.02
157.08
121.41
86.75
53.80
23.37
-3.52
-25.82
-42.95
-55.53
-65.93
-77.97
-95.17
-118.36
-144.07
-165.23
-174.64
-169.34
-153.50
-137.93
-136.00
-158.06
-206.94
-276.69
-354.72
-426.12
-478.01
-502.41
-496.98
-464.12
-409.26
-338.97
-259.48
-175.64
-90.48
-5.72
77.31
156.90
230.85
296.73
352.56
397.19
430.15
451.09
459.14
452.82
430.63
392.54
341.23
282.12
221.80
165.48
114.99
68.76
23.79
-21.60
-65.84
-104.51
-132.52
-147.06
-149.06
-142.72
-133.34
-125.26
-120.94
-121.38
-127.06
-138.54
-156.15
-179.14
-205.17
-230.49
-251.21
-264.84
-271.15
-272.03
-270.36
-268.46
-266.77
-263.38
-254.33
-235.56
-204.94
-163.34
-114.17
-62.21
-12.19
32.21
69.28
100.35
128.22
155.50
183.22
210.98
237.30
259.93
276.90
287.12
292.10
293.59
291.95
285.78
273.73
255.94
233.70
208.61
182.13
157.69
138.81
128.60
128.65
139.29
159.14
183.82
205.89
204.86
166.30
93.10
6.26
-70.36
-120.66
-138.51
-127.22
-98.09
-66.54
-44.76
-39.21
-48.53
-67.06
-88.09
-106.06
-118.69
-127.35
-134.79
-136.65
-131.70
-119.68
-102.62
-83.55
-64.86
-47.30
-29.56
-9.65
13.65
38.14
58.69
68.62
63.59
44.26
16.78
-12.05
-35.03
-46.00
-41.78
-22.39
8.05
43.36
76.53
102.02
117.32
123.05
117.83
100.55
72.21
35.91
-2.44
-35.71
-58.43
-66.97
-64.57
-59.50
-61.06
-68.81
-76.86
-77.13
-63.99
-37.65
-4.71
24.18
39.16
35.29
12.53
-25.57
-73.12
-123.84
-172.27
-213.51
-242.78
-254.84
-244.57
-208.55
-147.22
-64.90
30.43
128.14
215.98
281.65
315.05
310.78
269.89
200.17
114.85
29.32
-42.77
-92.80
-119.03
-125.82
-120.95
-112.19
-104.09
-96.41
-84.98
-64.52
-32.28
9.18
51.93
85.45
100.43
92.31
62.36
16.47
-37.22
-90.71
-137.60
-173.39
-195.05
-200.59
-189.01
-161.31
-121.14
-74.57
-28.59
10.88
40.70
61.08
74.95
86.95
100.03
114.00
125.85
132.16
131.47
125.51
118.90
117.40
126.83
149.21
181.92
218.59
251.96
276.01
286.81
282.58
263.77
234.30
198.90
162.18
127.70
98.50
76.40
61.19
50.45
29.98
-6.64
-56.21
-109.50
-159.23
-200.82
-230.73
-246.53
-247.78
-236.44
-214.80
-189.41
-162.65
-138.14
-119.36
-108.52
-106.28
-111.44
-120.89
-129.13
-131.61
-126.13
-112.30
-92.06
-67.84
-41.96
-16.60
6.08
24.90
39.02
48.74
55.23
60.88
68.42
79.26
92.75
106.57
118.41
126.68
131.11
132.05
130.32
126.83
122.08
116.02
108.09
97.70
84.32
67.80
48.33
26.25
1.91
-24.37
-51.56
-76.94
-96.29
-105.44
-102.55
-89.76
-72.77
-58.41
-51.69
-53.84
-62.48
-73.38
-82.59
-87.68
-87.59
-81.93
-70.70
-54.68
-35.93
-17.75
-3.61
4.35
6.09
3.33
-1.66
-6.91
-11.22
-13.93
-14.48
-12.52
-7.84
-0.75
7.90
17.03
25.76
33.64
40.60
46.63
51.55
54.91
56.19
54.97
50.98
44.06
34.16
21.48
6.77
-8.54
-22.58
-33.73
-41.27
-45.53
-47.54
-48.22
-47.73
-45.42
-40.44
-32.61
-22.87
-12.92
-4.36
2.15
7.10
11.57
16.44
21.75
26.80
30.73
33.23
34.84
36.57
39.26
42.89
46.47
48.39
47.09
41.72
32.35
19.91
5.82
-8.44
-21.55
-32.58
-40.93
-46.55
-49.86
-51.97
-54.36
-58.53
-65.37
-74.78
-85.56
-95.91
-104.16
-109.39
-111.47
-110.62
-106.88
-99.68
-88.07
-71.31
-49.55
-24.16
2.42
27.36
48.14
63.18
71.95
74.72
72.26
65.64
56.15
45.26
34.45
24.93
17.34
11.81
8.10
5.90
5.08
5.60
7.39
10.04
12.87
15.08
16.09
15.69
13.93
10.86
6.22
-0.48
-9.75
-21.65
-35.51
-49.68
-61.72
-68.94
-69.14
-61.30
-46.11
-25.81
-3.44
18.11
36.94
52.42
64.80
74.55
81.69
85.65
85.68
81.44
73.55
63.59
53.68
45.72
40.76
38.73
38.75
39.52
40.04
39.81
38.95
37.80
36.57
35.09
32.85
29.29
24.15
17.67
10.47
3.24
-3.57
-9.97
-16.28
-22.76
-29.26
-35.02
-38.85
-39.57
-36.46
-29.69
-20.30
-9.94
-0.32
7.22
12.04
14.23
14.38
13.25
11.53
9.64
7.83
6.23
4.93
3.98
3.45
3.38
3.82
4.83
6.39
8.35
10.40
12.06
12.91
12.73
11.65
10.13
8.68
7.65
6.96
6.17
4.69
2.01
-2.02
-7.14
-12.80
-18.39
-23.29
-26.98
-28.96
-28.78
-26.16
-21.10
-14.06
-5.86
2.47
9.97
15.91
19.92
21.92
22.03
20.46
17.54
13.72
9.56
5.68
2.63
0.75
0.12
0.61
1.95
3.91
6.25
8.78
11.32
13.67
15.64
17.11
17.98
18.16
17.44
15.57
12.27
7.53
1.64
-4.79
-10.94
-16.01
-19.38
-20.69
-19.78
-16.67
-11.59
-5.06
2.07
8.69
13.62
15.95
15.31
11.94
6.63
0.41
-5.67
-10.72
-14.06
-15.26
-14.15
-10.93
-6.26
-1.09
3.50
6.77
8.53
9.21
9.54
10.22
11.49
13.09
14.42
14.90
14.32
13.06
12.01
12.21
14.45
18.70
23.95
28.33
29.76
26.77
19.18
8.41
-2.89
-11.74
-15.80
-14.20
-7.67
1.79
11.63
19.52
23.77
23.57
18.86
10.23
-1.19
-13.87
-26.05
-36.06
-42.74
-45.74
-45.56
-43.37
-40.47
-37.80
-35.67
-33.77
-31.54
-28.58
-24.99
-21.35
-18.55
-17.37
-18.24
-21.24
-26.14
-32.55
-39.89
-47.29
-53.49
-56.91
-56.00
-49.71
-37.85
-21.28
-1.59
19.23
39.31
57.22
72.06
83.42
91.21
95.42
96.14
93.43
87.57
79.02
68.48
56.82
44.94
33.69
23.89
16.34
11.76
10.67
13.12
18.53
25.71
33.05
38.93
42.06
41.75
37.89
30.93
21.78
11.67
1.93
-6.30
-12.43
-16.62
-19.52
-21.86
-23.72
-24.20
-21.52
-13.83
-0.03
19.53
43.08
68.05
91.83
112.32
128.01
137.72
140.48
135.63
123.12
103.83
79.44
51.99
23.28
-5.40
-33.25
-59.57
-83.37
-103.42
-118.57
-128.26
-132.83
-133.42
-131.61
-128.82
-125.90
-123.05
-119.98
-116.40
-112.35
-108.27
-104.93
-102.89
-102.16
-102.05
-101.35
-98.81
-93.50
-85.02
-73.32
-58.46
-40.54
-19.99
2.08
23.68
42.20
55.24
61.44
61.05
55.76
48.01
40.22
34.07
30.37
29.26
30.51
33.77
38.65
44.78
51.82
59.49
67.52
75.48
82.75
88.42
91.34
90.63
85.97
77.75
66.86
54.23
40.42
25.51
9.42
-7.66
-24.81
-40.54
-53.40
-62.76
-69.31
-74.65
-80.32
-86.74
-92.83
-96.33
-94.90
-87.44
-74.73
-59.19
-43.67
-29.64
-16.86
-4.05
10.44
27.30
45.80
63.89
78.82
87.66
88.55
80.21
61.80
34.26
0.74
-33.35
-62.02
-81.06
-90.16
-91.68
-89.86
-88.98
-90.24
-91.98
-90.85
-84.33
-72.57
-58.43
-44.21
-30.30
-15.25
0.84
15.40
26.36
34.49
48.35
68.38
93.82
125.53
151.12
159.98
145.69
111.32
68.26
29.74
4.48
-2.46
3.55
15.81
30.26
45.82
64.66
90.44
119.66
148.59
164.67
160.35
136.53
102.56
69.57
45.17
31.22
24.28
18.56
8.89
-6.27
-25.08
-43.78
-59.52
-71.49
-81.03
-90.47
-101.04
-113.38
-124.65
-131.61
-132.76
-129.04
-122.93
-116.70
-111.42
-106.70
-98.93
-88.22
-75.61
-62.65
-50.76
-40.97
-33.78
-29.79
-29.27
-31.68
-34.87
-34.80
-28.25
-12.62
11.29
39.50
66.31
86.42
96.90
97.79
91.79
82.43
72.79
64.75
58.57
55.99
57.91
63.43
69.22
70.42
62.36
42.97
13.89
-19.38
-49.75
-71.37
-81.94
-83.09
-78.88
-73.87
-71.10
-72.74
-77.60
-84.00
-89.93
-93.43
-92.75
-86.74
-75.35
-59.71
-41.87
-23.16
-6.44
6.71
15.59
19.96
20.17
17.68
15.31
16.58
24.22
38.52
56.75
73.85
84.58
85.78
77.70
63.17
46.40
29.46
13.63
-0.20
-10.86
-16.44
-15.04
-5.79
9.80
27.87
42.93
50.91
50.27
42.28
30.60
17.90
6.61
-1.73
-6.35
-6.88
-3.06
4.54
14.40
24.20
31.22
33.56
30.57
23.21
13.06
3.51
-3.22
-6.68
-7.96
-8.96
-11.08
-14.70
-19.21
-23.41
-26.18
-27.40
-27.60
-27.77
-28.74
-30.77
-33.52
-36.78
-40.05
-43.49
-47.88
-53.74
-61.13
-69.31
-76.68
-81.39
-82.05
-78.15
-70.16
-59.33
-46.57
-32.92
-19.51
-7.51
1.95
8.22
11.50
12.91
14.17
17.66
24.71
35.34
48.30
61.58
73.14
81.59
86.93
85.96
78.99
67.73
54.90
43.55
36.05
33.23
34.06
36.35
37.14
34.67
27.52
15.80
1.84
-10.02
-14.49
-6.91
15.86
53.17
101.09
151.27
193.96
221.38
229.79
219.67
194.47
159.92
121.06
82.55
46.47
13.79
-14.52
-37.94
-56.70
-72.45
-86.52
-101.28
-109.98
-107.96
-98.26
-89.03
-84.70
-81.21
-76.16
-59.71
-26.96
21.01
76.86
131.08
177.48
208.95
221.29
213.62
189.07
151.54
105.52
54.21
0.66
-51.12
-96.30
-129.81
-148.61
-152.12
-143.93
-129.98
-117.11
-110.38
-111.17
-117.49
-124.96
-129.39
-128.14
-121.97
-114.08
-108.90
-109.80
-117.44
-129.72
-142.62
-152.36
-156.49
-154.77
-147.96
-137.15
-123.02
-105.71
-85.29
-62.14
-37.32
-12.25
11.30
31.78
47.73
57.70
60.51
55.64
43.71
26.34
5.84
-15.40
-34.97
-51.43
-64.84
-76.56
-88.54
-102.46
-119.14
-137.91
-156.88
-172.16
-180.36
-180.40
-173.66
-162.91
-151.12
-141.26
-135.63
-136.37
-142.21
-151.14
-161.48
-171.64
-178.90
-179.55
-171.02
-151.42
-120.73
-75.55
-14.25
59.78
137.57
208.03
261.84
293.52
305.58
306.09
311.74
336.48
384.24
448.12
516.65
580.05
631.83
671.44
663.45
588.41
457.11
303.86
159.83
40.32
-45.37
-108.09
-154.65
-189.56
-210.24
-214.50
-202.97
-180.74
-153.74
-126.47
-103.06
-84.82
-72.95
-63.79
-53.97
-42.89
-32.71
-25.43
-21.18
-19.67
-19.21
-19.66
-19.36
-17.78
-16.00
-16.46
-20.96
-29.57
-41.39
-53.94
-65.33
-72.91
-74.90
-70.59
-60.79
-47.29
-32.27
-18.07
-6.55
0.30
1.97
-0.42
-3.56
-3.38
3.21
17.14
36.84
58.67
77.37
88.75
87.31
71.77
47.04
21.32
0.39
-15.24
-28.79
-45.64
-69.45
-100.60
-136.10
-171.47
-202.98
-228.73
-243.61
-237.69
-207.41
-158.10
-103.13
-56.18
-24.78
-8.63
-1.88
0.02
0.46
0.97
3.55
9.13
19.11
33.79
50.65
65.28
72.65
71.00
61.67
50.02
42.50
40.32
44.01
51.63
67.52
90.00
116.77
139.13
151.39
149.81
133.86
106.91
74.49
42.80
16.08
-2.56
-12.41
-13.99
-9.62
-2.06
6.98
16.67
26.99
37.47
48.27
59.44
71.54
84.13
96.62
108.80
120.38
130.58
137.58
140.13
138.00
132.96
126.57
121.08
119.19
122.83
131.87
143.73
155.07
163.25
167.43
165.40
156.49
142.36
126.23
110.55
95.60
80.07
62.09
40.15
9.12
-33.86
-86.82
-143.35
-196.43
-241.61
-277.57
-305.69
-328.96
-356.70
-395.75
-446.33
-502.16
-555.45
-601.28
-638.39
-667.91
-655.42
-582.58
-459.80
-320.49
-193.90
-90.12
-4.76
71.25
144.44
215.48
273.25
305.49
306.84
283.05
247.39
214.66
195.74
194.01
205.01
215.25
213.97
198.02
173.21
148.49
130.27
120.05
115.33
112.14
105.19
92.69
77.19
63.94
56.59
55.14
56.71
57.73
55.84
49.48
39.09
26.60
15.65
8.22
4.39
2.98
2.52
1.93
0.38
-2.22
-5.16
-7.17
-7.32
-5.35
-1.88
1.89
4.68
5.75
5.23
4.07
3.69
5.14
8.82
14.30
20.54
26.31
30.54
32.59
32.24
29.65
25.10
18.99
11.67
3.37
-5.75
-15.51
-25.53
-35.18
-43.66
-50.20
-54.22
-55.48
-54.13
-50.75
-46.40
-42.50
-40.71
-42.58
-49.17
-60.60
-75.84
-92.84
-108.93
-121.46
-128.48
-129.17
-123.99
-114.41
-102.39
-89.74
-77.68
-66.62
-56.40
-46.58
-36.71
-26.60
-16.24
-5.75
4.74
15.05
24.93
34.03
42.00
48.64
53.96
58.18
61.69
64.92
68.26
71.96
75.97
79.83
82.69
83.43
81.08
75.23
66.24
55.08
43.02
31.11
19.92
9.60
0.16
-8.22
-15.10
-19.84
-21.94
-21.25
-18.11
-13.32
-7.97
-3.28
-0.34
0.01
-2.64
-8.29
-16.50
-26.51
-37.37
-48.02
-57.46
-64.90
-69.83
-72.10
-71.96
-70.03
-67.25
-64.75
-63.62
-64.66
-68.19
-73.93
-81.15
-89.01
-96.77
-104.05
-110.68
-116.51
-121.25
-124.49
-125.91
-125.55
-123.98
-122.19
-121.21
-121.62
-123.22
-124.93
-125.05
-121.88
-114.24
-101.96
-85.91
-67.65
-48.87
-30.88
-14.39
0.27
12.75
22.31
27.95
28.86
25.03
17.67
9.04
1.95
-1.13
1.31
9.47
22.48
38.88
57.19
76.38
95.96
115.87
136.21
156.87
177.45
197.27
215.53
231.54
244.71
254.64
261.15
264.44
265.23
264.75
264.52
265.71
268.66
272.53
275.37
274.75
268.51
255.47
235.81
210.94
183.07
154.42
126.62
100.26
74.88
49.32
22.25
-7.11
-38.57
-70.83
-101.72
-128.52
-148.64
-160.09
-161.93
-154.55
-139.75
-120.42
-99.95
-81.45
-66.95
-56.97
-50.64
-46.22
-41.99
-36.94
-31.12
-25.50
-21.50
-20.44
-23.10
-29.56
-39.17
-50.69
-62.49
-72.81
-79.90
-82.20
-78.50
-68.12
-51.07
-28.41
-2.38
23.76
46.34
62.13
69.16
67.15
57.28
41.64
22.42
1.56
-19.48
-39.46
-57.19
-71.46
-81.12
-85.20
-83.00
-74.18
-58.80
-37.60
-12.17
14.96
40.63
61.61
75.32
80.33
76.62
65.43
48.80
29.20
9.02
-9.74
-25.71
-38.27
-47.57
-54.24
-59.08
-62.72
-65.46
-67.25
-67.81
-66.85
-64.12
-59.42
-52.70
-44.05
-33.87
-22.89
-12.11
-2.56
4.91
9.78
11.87
11.10
7.32
0.25
-10.24
-23.90
-39.79
-56.27
-71.28
-82.70
-88.85
-88.74
-82.21
-69.85
-52.86
-32.93
-11.93
8.23
25.89
39.75
48.97
53.27
52.87
48.45
41.06
31.97
22.40
13.49
6.09
0.96
-1.28
-0.07
4.91
13.61
25.44
39.23
53.38
66.09
75.68
80.93
81.30
77.08
69.20
59.03
47.79
36.32
24.88
13.41
1.84
-9.55
-20.08
-28.76
-34.49
-36.33
-33.68
-26.41
-15.07
-0.83
14.56
29.13
41.12
49.38
53.46
53.62
50.49
44.93
37.86
30.24
22.99
16.84
12.09
8.57
5.64
2.53
-1.39
-6.43
-12.47
-19.07
-25.61
-31.33
-35.47
-37.41
-36.87
-34.08
-29.84
-25.43
-22.30
-21.67
-24.26
-30.07
-38.35
-47.84
-57.03
-64.49
-69.20
-70.64
-68.69
-63.37
-54.66
-42.41
-26.60
-7.64
13.30
34.33
53.12
67.51
76.05
78.39
75.31
68.46
59.88
51.48
44.62
39.75
36.44
33.44
29.16
22.11
11.33
-3.29
-20.89
-39.88
-58.14
-73.49
-84.04
-88.61
-86.92
-79.68
-68.37
-54.83
-40.92
-28.06
-17.15
-8.62
-2.53
1.15
2.49
1.57
-1.43
-6.15
-11.94
-17.87
-22.86
-25.79
-25.62
-21.52
-13.01
-0.16
16.35
35.15
54.34
71.88
86.01
95.70
100.70
101.47
98.79
93.51
86.39
78.17
69.69
61.88
55.64
51.56
49.75
49.71
50.43
50.55
48.69
43.78
35.36
23.80
10.17
-3.89
-16.72
-27.02
-34.12
-38.11
-39.73
-40.11
-40.63
-42.67
-47.38
-55.48
-66.90
-80.73
-95.21
-108.12
-117.20
-120.69
-117.57
-107.69
-91.66
-70.83
-47.05
-22.62
0.03
18.74
32.01
39.31
41.04
38.23
32.02
23.31
12.65
0.45
-12.69
-25.77
-37.52
-46.68
-52.33
-54.08
-52.10
-46.89
-39.13
-29.67
-19.46
-9.56
-1.00
5.43
9.37
10.99
10.87
9.88
8.88
8.60
9.39
11.15
13.28
14.82
14.70
12.07
6.61
-1.45
-11.31
-21.76
-31.32
-38.41
-41.57
-39.79
-32.80
-21.28
-6.82
8.42
22.32
33.29
40.50
43.86
43.71
40.54
34.90
27.46
19.13
11.08
4.56
0.55
-0.60
0.64
3.06
4.98
4.76
1.19
-6.11
-16.53
-28.57
-40.13
-48.86
-52.75
-50.45
-41.60
-26.97
-8.31
11.89
30.90
46.30
56.42
60.68
59.53
54.22
46.35
37.46
28.71
20.88
14.47
9.96
7.87
8.90
13.66
22.48
35.14
50.72
67.64
83.96
97.74
107.48
112.38
112.31
107.69
99.23
87.70
73.86
58.49
42.41
26.50
11.56
-1.76
-13.01
-21.89
-28.23
-32.12
-34.06
-35.05
-36.59
-40.29
-47.39
-58.32
-72.39
-87.98
-102.81
-114.40
-120.51
-119.55
-110.83
-94.76
-72.91
-47.76
-22.22
0.91
19.45
32.11
38.53
39.08
34.67
26.62
16.48
6.04
-2.76
-7.95
-7.89
-1.52
11.19
29.08
49.86
70.48
87.88
99.61
104.31
101.87
93.19
79.75
63.37
45.94
29.44
15.81
6.69
3.12
5.20
12.02
21.92
32.85
42.94
50.81
55.74
57.60
56.65
53.35
48.15
41.46
33.61
24.84
15.34
5.20
-5.50
-16.62
-27.87
-38.81
-48.98
-58.04
-65.89
-72.70
-78.73
-84.13
-88.66
-91.61
-91.94
-88.60
-80.87
-68.82
-53.43
-36.47
-20.16
-6.64
2.52
6.62
5.78
0.80
-7.13
-16.73
-26.70
-35.87
-43.22
-47.95
-49.53
-47.72
-42.49
-34.07
-22.95
-9.98
3.64
16.40
26.80
33.51
35.71
33.23
26.59
16.99
6.17
-3.82
-10.97
-13.70
-11.20
-3.60
8.14
22.48
37.58
51.60
62.80
69.67
71.20
67.20
58.47
46.89
34.92
24.95
18.67
16.62
18.41
22.98
29.09
35.56
41.35
45.59
47.56
46.84
43.42
37.61
29.87
20.63
10.05
-1.89
-15.29
-30.11
-46.06
-62.57
-78.84
-93.77
-106.10
-114.39
-117.33
-114.08
-104.69
-90.30
-73.09
-55.81
-41.22
-31.40
-27.33
-28.81
-34.60
-42.85
-51.52
-58.78
-63.38
-64.75
-63.11
-59.25
-54.32
-49.43
-45.42
-42.65
-40.99
-39.88
-38.59
-36.48
-33.19
-28.77
-23.67
-18.60
-14.16
-10.67
-7.94
-5.31
-1.87
3.22
10.43
19.65
30.12
40.58
49.43
55.03
55.99
51.36
40.88
25.14
5.58
-15.45
-35.15
-50.65
-59.68
-61.06
-54.90
-42.48
-25.86
-7.41
10.44
25.49
35.85
40.23
38.27
30.68
19.30
6.68
-4.48
-12.00
-14.71
-12.51
-6.21
2.83
13.10
23.28
32.45
40.22
46.72
52.49
58.24
64.52
71.43
78.45
84.48
88.08
87.94
83.31
74.27
61.77
47.29
32.41
18.35
5.83
-4.91
-13.76
-20.51
-24.70
-25.74
-23.19
-17.05
-7.84
3.45
15.62
27.55
38.40
47.71
55.31
61.19
65.36
67.78
68.44
67.46
65.23
62.42
59.95
58.79
59.75
63.25
69.10
76.34
83.26
87.60
87.15
80.51
67.75
50.75
32.82
17.76
8.66
6.95
11.92
21.16
31.41
39.62
43.74
43.02
37.83
29.05
17.58
3.93
-11.68
-29.04
-47.54
-65.96
-82.63
-95.84
-104.31
-107.46
-105.48
-99.11
-89.28
-76.86
-62.55
-46.93
-30.63
-14.51
0.32
12.59
21.08
24.94
23.77
17.66
7.14
-6.95
-23.48
-41.01
-57.85
-72.23
-82.63
-88.16
-88.82
-85.37
-79.08
-71.15
-62.42
-53.23
-43.64
-33.82
-24.30
-16.02
-9.98
-6.91
-6.93
-9.53
-13.73
-18.38
-22.32
-24.47
-23.91
-20.03
-12.82
-3.12
7.42
16.65
22.57
23.89
20.37
12.81
2.67
-8.36
-18.78
-27.42
-33.51
-36.63
-36.71
-33.99
-28.97
-22.34
-14.95
-7.75
-1.80
1.63
1.18
-4.37
-15.65
-32.26
-52.58
-73.94
-93.35
-108.30
-117.48
-121.07
-120.40
-117.38
-113.70
-110.23
-106.74
-101.95
-93.89
-80.64
-61.08
-35.52
-5.86
24.84
53.22
76.51
93.22
103.24
107.57
107.87
106.02
103.92
103.11
104.63
108.58
114.02
119.06
121.38
118.90
110.39
95.81
76.37
54.10
31.51
10.96
-5.76
-17.74
-25.11
-28.95
-30.80
-32.17
-33.77
-35.22
-35.08
-31.42
-22.77
-8.90
8.76
27.30
43.12
52.89
54.41
47.03
31.72
10.71
-12.88
-35.59
-53.97
-65.19
-67.44
-60.29
-44.81
-23.38
0.83
24.47
44.60
59.13
66.96
68.04
63.12
53.65
41.51
28.78
17.50
9.31
5.23
5.50
9.59
16.35
24.39
32.33
39.11
44.06
46.79
47.05
44.66
39.46
31.51
21.33
9.92
-1.33
-10.94
-17.75
-21.24
-21.67
-19.90
-17.18
-14.75
-13.64
-14.29
-16.59
-19.79
-22.77
-24.37
-23.73
-20.65
-15.59
-9.63
-4.11
-0.36
0.68
-1.32
-6.05
-12.61
-19.75
-26.24
-31.18
-34.09
-34.93
-33.88
-31.13
-26.77
-20.91
-13.80
-5.89
2.24
10.22
18.03
26.03
34.66
44.00
53.55
62.18
68.64
72.03
72.24
69.92
66.09
61.62
56.91
51.90
46.34
40.13
33.43
26.60
19.88
13.20
6.17
-1.63
-10.33
-19.51
-28.23
-35.28
-39.63
-40.78
-38.97
-35.07
-30.45
-26.60
-24.88
-26.32
-31.44
-39.96
-50.78
-61.90
-70.82
-74.90
-72.17
-61.68
-43.83
-20.18
6.97
35.15
62.21
86.53
107.09
123.30
134.95
142.29
146.22
148.49
151.54
157.93
169.48
186.54
207.69
230.00
249.86
263.84
269.32
264.84
250.06
225.58
192.66
152.87
107.57
57.80
4.44
-51.10
-106.19
-156.73
-197.82
-225.12
-236.49
-232.89
-218.17
-197.67
-176.54
-158.29
-144.28
-134.09
-126.48
-120.30
-115.07
-111.10
-109.12
-109.79
-113.29
-119.21
-126.56
-133.92
-139.59
-141.93
-139.93
-133.80
-125.25
-117.14
-112.50
-113.29
-119.42
-128.75
-138.20
-145.31
-149.43
-151.65
-153.79
-156.99
-160.95
-164.18
-165.10
-163.32
-160.19
-158.11
-159.19
-163.96
-170.89
-176.92
-178.81
-174.05
-161.67
-142.42
-118.32
-92.02
-66.29
-43.71
-25.97
-13.08
-2.31
10.73
30.07
57.26
90.61
125.91
158.09
183.23
199.80
209.37
214.47
216.48
214.88
208.38
196.34
179.51
159.99
140.53
125.01
116.55
116.58
124.84
140.15
161.17
186.20
213.19
231.95
233.04
213.11
176.05
128.15
75.31
23.86
-19.49
-48.74
-61.37
-58.66
-46.85
-34.99
-30.88
-37.13
-49.65
-60.84
-63.57
-56.29
-40.37
-20.86
-4.25
4.08
2.01
-8.78
-24.83
-42.41
-57.85
-68.98
-76.06
-79.88
-80.21
-76.81
-66.72
-49.19
-26.54
-3.68
13.99
22.92
23.45
19.30
15.21
14.98
19.39
26.81
34.43
39.33
40.00
37.29
33.79
32.75
37.21
48.72
66.93
88.92
110.06
121.30
116.19
95.51
66.85
38.88
15.99
-1.67
-16.05
-28.19
-38.06
-45.07
-50.01
-56.73
-68.85
-88.71
-115.05
-143.26
-166.11
-177.86
-176.11
-162.50
-141.49
-118.23
-96.69
-76.09
-56.29
-35.81
-14.41
6.82
26.30
43.52
59.42
75.95
94.83
115.81
138.17
159.16
175.28
183.97
184.63
177.74
164.09
144.56
112.73
70.73
27.28
-8.71
-34.32
-52.24
-67.11
-82.35
-98.50
-114.34
-126.92
-135.13
-139.89
-142.59
-140.93
-132.77
-116.59
-93.27
-66.77
-41.32
-20.89
-7.47
0.21
6.07
13.59
24.56
38.11
51.52
63.31
73.08
80.91
86.95
91.19
92.38
89.74
83.18
73.57
63.39
55.18
49.81
46.87
45.49
44.40
43.93
45.61
46.79
47.32
48.92
52.85
58.71
69.20
81.83
94.97
108.16
121.83
133.05
140.76
144.22
143.71
141.32
139.98
143.64
154.92
173.61
197.14
221.54
242.15
255.20
258.45
250.28
230.42
199.55
159.71
114.79
70.15
30.31
-2.43
-28.69
-51.84
-75.17
-100.12
-125.52
-148.59
-166.71
-179.80
-190.54
-203.15
-222.06
-249.84
-286.84
-331.58
-381.10
-430.43
-472.22
-497.32
-497.34
-469.39
-417.07
-349.68
-278.90
-214.79
-162.46
-121.40
-87.61
-57.00
-29.94
-8.46
6.88
18.55
30.60
46.49
67.35
91.41
114.80
129.48
129.77
115.45
91.39
63.78
37.39
14.89
-2.95
-16.79
-32.93
-56.81
-89.86
-129.40
-172.30
-216.71
-261.51
-305.49
-318.06
-281.96
-204.64
-112.44
-29.15
33.27
72.04
89.67
92.05
87.24
78.84
69.49
59.39
51.14
45.20
40.39
36.56
35.48
39.88
47.75
55.34
59.57
59.66
56.15
50.03
43.43
39.08
39.58
44.79
54.72
70.36
92.30
117.41
138.34
146.57
136.07
106.15
61.08
9.04
-41.40
-84.53
-119.34
-147.94
-171.26
-188.73
-198.55
-199.35
-190.92
-174.47
-152.02
-125.55
-95.93
-60.80
-18.67
29.38
80.05
129.34
173.64
210.49
239.01
259.96
278.66
298.66
320.21
341.50
360.73
376.82
389.17
397.35
401.04
404.32
408.00
408.74
401.34
382.32
351.49
311.56
267.17
196.35
99.49
-4.58
-93.33
-156.12
-194.10
-213.08
-219.21
-217.87
-213.60
-205.52
-194.09
-181.64
-170.72
-162.26
-155.74
-150.50
-146.37
-143.43
-138.23
-129.27
-117.55
-105.19
-93.39
-82.25
-71.82
-62.96
-57.41
-54.53
-55.10
-59.82
-68.28
-78.14
-86.04
-89.40
-87.44
-81.16
-71.54
-60.26
-48.95
-38.89
-30.66
-24.38
-20.06
-17.73
-17.23
-17.80
-18.83
-19.79
-20.52
-20.99
-21.19
-21.00
-20.10
-17.90
-13.57
-7.18
1.25
11.21
21.74
31.77
40.29
46.71
50.80
52.63
52.35
50.30
46.76
42.05
36.54
30.65
24.71
18.98
13.56
8.50
3.91
-0.08
-3.37
-5.93
-7.83
-9.26
-10.49
-11.79
-13.41
-15.42
-17.75
-20.27
-22.75
-25.01
-27.03
-28.93
-31.03
-33.71
-37.23
-41.59
-46.32
-50.51
-52.87
-52.10
-47.18
-37.76
-24.28
-8.00
9.30
25.64
39.17
48.59
53.29
53.41
49.81
43.77
36.74
29.89
23.92
19.03
15.01
11.55
8.40
5.49
2.88
0.69
-1.04
-2.38
-3.49
-4.58
-5.82
-7.32
-9.13
-11.22
-13.53
-15.96
-18.48
-21.12
-23.99
-27.16
-30.60
-34.12
-37.44
-40.31
-42.66
-44.64
-46.48
-48.33
-50.08
-51.39
-51.72
-50.49
-46.92
-40.00
-28.47
-11.25
11.84
39.50
68.81
95.79
116.65
129.03
132.65
129.18
121.33
111.75
102.30
93.98
87.13
81.96
78.71
77.55
78.35
80.50
82.94
84.44
83.95
80.94
75.54
68.50
60.89
53.73
47.66
42.69
38.27
33.43
27.17
18.76
7.91
-5.05
-19.08
-32.45
-42.92
-48.23
-46.82
-38.46
-24.57
-7.96
7.98
20.30
27.27
28.66
25.54
19.71
13.05
7.16
3.03
1.08
1.14
2.62
4.70
6.48
7.23
6.49
4.10
0.22
-4.68
-9.93
-14.80
-18.71
-21.41
-23.08
-24.20
-25.39
-27.09
-29.42
-32.13
-34.77
-36.92
-38.42
-39.39
-40.25
-41.43
-43.21
-45.60
-48.34
-51.04
-53.27
-54.64
-54.80
-53.39
-50.08
-44.76
-37.67
-29.50
-21.24
-13.90
-8.19
-4.29
-1.96
-0.68
0.03
0.39
0.44
0.10
-0.64
-1.65
-2.72
-3.63
-4.26
-4.67
-4.97
-5.23
-5.49
-5.75
-6.07
-6.65
-7.79
-9.72
-12.45
-15.68
-18.87
-21.51
-23.44
-24.96
-26.80
-29.80
-34.53
-40.90
-48.06
-54.62
-59.02
-60.11
-57.54
-51.95
-44.77
-37.79
-32.61
-30.13
-30.21
-31.55
-32.00
-29.10
-20.97
-6.99
11.74
32.59
52.20
67.43
76.31
78.45
74.90
67.59
58.70
50.10
43.13
38.46
36.18
35.84
36.68
37.82
38.50
38.23
36.81
34.29
30.87
26.84
22.51
18.11
13.73
9.36
4.98
0.73
-2.93
-5.37
-5.94
-4.39
-1.07
3.08
6.88
9.29
9.75
8.25
5.23
1.27
-3.17
-7.83
-12.71
-17.86
-23.28
-28.77
-33.99
-38.44
-41.76
-43.85
-44.95
-45.55
-46.29
-47.65
-49.82
-52.66
-55.76
-58.63
-60.89
-62.43
-63.50
-64.64
-66.57
-69.90
-74.81
-80.67
-85.91
-88.20
-85.04
-74.73
-57.11
-33.91
-8.35
15.83
35.55
49.13
56.56
59.09
58.50
56.57
54.67
53.67
53.95
55.42
57.54
59.52
60.49
59.84
57.37
53.26
47.95
41.99
35.93
30.26
25.42
21.65
18.96
17.04
15.33
13.26
10.46
6.92
2.94
-1.02
-4.55
-7.55
-10.14
-12.63
-15.28
-18.18
-21.21
-24.13
-26.74
-28.92
-30.57
-31.50
-31.27
-29.36
-25.25
-18.83
-10.53
-1.30
7.71
15.47
21.43
25.49
27.90
28.95
28.86
27.79
25.90
23.48
20.94
18.62
16.71
15.21
13.97
12.84
11.74
10.73
9.86
9.14
8.45
7.58
6.31
4.46
2.05
-0.79
-3.76
-6.55
-8.96
-11.00
-12.93
-15.13
-17.94
-21.43
-25.25
-28.68
-30.77
-30.64
-27.78
-22.24
-14.68
-6.16
2.18
9.38
14.91
18.66
20.79
21.55
21.09
19.54
17.05
13.88
10.39
6.95
3.88
1.34
-0.59
-1.94
-2.73
-3.07
-3.08
-2.94
-2.88
-3.11
-3.76
-4.88
-6.50
-8.55
-10.94
-13.50
-16.03
-18.37
-20.49
-22.48
-24.56
-26.99
-29.97
-33.61
-37.88
-42.55
-47.20
-51.18
-53.70
-54.00
-51.58
-46.38
-38.83
-29.80
-20.35
-11.51
-4.09
1.38
4.67
5.81
5.14
3.36
1.52
0.90
2.62
7.31
14.77
23.95
33.29
41.24
46.80
49.79
50.79
50.73
50.50
50.52
50.74
50.71
49.93
48.04
44.97
40.98
36.49
31.96
27.80
24.21
21.23
18.73
16.49
14.31
12.06
9.70
7.29
4.94
2.75
0.71
-1.24
-3.26
-5.56
-8.30
-11.59
-15.37
-19.33
-22.89
-25.23
-25.51
-23.20
-18.29
-11.40
-3.63
3.81
9.91
14.16
16.51
17.22
16.59
14.90
12.29
8.93
5.07
1.11
-2.51
-5.37
-7.24
-8.07
-8.03
-7.38
-6.36
-5.12
-3.72
-2.19
-0.61
0.84
1.94
2.51
2.46
1.86
0.85
-0.40
-1.77
-3.15
-4.44
-5.55
-6.39
-7.00
-7.46
-7.94
-8.61
-9.53
-10.70
-12.07
-13.57
-15.17
-16.83
-18.47
-20.05
-21.51
-22.91
-24.39
-26.10
-28.04
-29.95
-31.23
-31.14
-29.00
-24.52
-17.98
-10.16
-2.09
5.25
11.16
15.36
17.92
19.06
19.03
18.05
16.37
14.26
12.02
9.95
8.23
6.86
5.77
4.80
3.85
2.93
2.12
1.52
1.15
0.90
0.57
0.03
-0.78
-1.84
-3.15
-4.74
-6.65
-8.83
-11.21
-13.65
-16.03
-18.29
-20.33
-22.00
-22.96
-22.58
-20.18
-15.36
-8.25
0.48
9.83
18.66
25.99
31.16
34.10
34.88
33.28
28.72
20.69
9.18
-5.05
-20.56
-35.65
-48.36
-57.49
-63.21
-66.67
-68.92
-69.95
-68.75
-63.92
-54.66
-40.62
-22.92
-4.29
11.89
23.20
29.19
30.93
30.13
28.58
29.17
34.87
47.61
67.40
92.28
118.50
140.87
154.07
148.31
119.56
74.16
26.19
-12.39
-37.80
-52.79
-61.76
-67.12
-68.26
-62.10
-46.74
-23.91
1.11
22.39
36.36
42.82
44.03
42.92
42.26
43.10
44.62
45.01
43.01
38.84
33.66
28.65
24.36
21.57
19.65
17.69
14.68
10.18
4.63
-1.05
-6.12
-10.33
-13.60
-16.08
-17.83
-18.99
-19.78
-20.54
-21.65
-23.29
-24.96
-25.40
-23.10
-17.22
-8.29
1.81
10.66
16.33
17.99
15.93
10.95
4.13
-3.66
-11.74
-19.39
-25.78
-30.17
-32.27
-32.43
-31.39
-29.76
-27.57
-24.29
-19.21
-12.07
-3.39
5.62
13.44
18.86
21.28
20.80
18.13
14.45
11.15
9.48
10.13
13.01
17.19
21.28
23.91
24.21
22.00
17.62
11.63
4.62
-2.76
-9.76
-15.55
-19.45
-21.16
-21.01
-19.85
-18.60
-17.89
-17.82
-17.95
-17.70
-16.70
-14.90
-12.54
-9.87
-6.99
-3.92
-0.77
2.00
3.59
3.07
-0.15
-5.87
-12.94
-19.53
-23.77
-24.43
-21.32
-15.23
-7.42
0.97
9.33
17.68
26.32
35.53
45.23
54.88
63.63
70.59
75.19
77.37
77.74
77.37
77.45
78.78
81.49
85.01
88.47
91.13
92.71
93.32
93.18
92.25
90.24
86.74
81.85
76.31
71.45
68.54
68.12
69.52
71.11
70.87
67.19
59.40
47.71
32.85
15.63
-3.37
-23.78
-45.29
-67.38
-89.33
-110.20
-128.99
-144.73
-156.65
-164.26
-167.48
-166.63
-162.35
-155.45
-146.70
-136.78
-126.26
-115.76
-105.93
-97.38
-90.44
-84.91
-79.95
-74.21
-66.17
-54.60
-39.05
-19.93
1.58
23.96
45.71
65.59
82.55
95.65
104.02
107.01
104.44
96.75
85.01
70.67
55.27
40.28
26.95
16.28
8.85
4.70
3.30
3.73
5.11
6.99
9.54
13.26
18.54
25.11
31.82
36.94
38.69
35.94
28.64
17.86
5.51
-6.19
-15.23
-20.25
-20.79
-17.48
-11.90
-6.26
-2.72
-2.74
-6.59
-13.29
-21.19
-28.69
-34.94
-39.96
-44.39
-48.96
-54.13
-59.98
-66.52
-73.86
-82.19
-91.58
-101.66
-111.57
-120.18
-126.64
-130.76
-133.23
-135.38
-138.66
-144.05
-151.54
-160.09
-167.83
-172.74
-173.24
-168.68
-159.49
-146.93
-132.53
-117.57
-102.87
-88.76
-75.40
-63.10
-52.44
-44.07
-38.49
-35.76
-35.37
-36.40
-37.76
-38.43
-37.60
-34.73
-29.50
-21.84
-12.02
-0.56
11.77
24.12
35.79
46.25
55.25
62.78
68.98
74.07
78.31
81.83
84.57
86.21
86.25
84.17
79.71
73.04
64.74
55.64
46.45
37.53
28.83
20.08
11.06
1.91
-6.80
-14.15
-19.07
-20.52
-17.74
-10.31
1.68
17.65
36.47
56.72
77.07
96.48
114.44
130.75
145.23
157.27
165.63
168.62
164.72
153.37
135.55
113.79
91.52
72.02
57.38
48.05
43.02
40.58
39.18
37.91
36.49
34.86
32.83
29.83
25.24
18.71
10.52
1.52
-7.11
-14.38
-19.85
-23.73
-26.81
-30.00
-34.02
-39.16
-45.32
-52.08
-58.85
-64.94
-69.55
-71.78
-70.70
-65.65
-56.50
-43.78
-28.69
-12.84
2.12
14.87
24.61
31.12
34.64
35.72
34.98
33.10
30.73
28.44
26.73
25.92
26.16
27.44
29.61
32.40
35.51
38.55
41.16
43.01
43.85
43.63
42.44
40.54
38.28
36.04
34.11
32.64
31.62
30.94
30.41
29.91
29.37
28.81
28.22
27.55
26.60
25.11
22.77
19.29
14.55
8.67
2.12
-4.22
-9.21
-11.81
-11.34
-7.83
-2.04
4.86
11.64
17.36
21.56
24.18
25.32
25.11
23.61
20.89
17.26
13.19
9.33
6.31
4.53
4.13
4.98
6.84
9.45
12.66
16.43
20.73
25.44
30.40
35.32
39.89
43.83
46.88
48.86
49.54
48.66
45.94
41.18
34.35
25.74
15.96
5.83
-3.79
-12.28
-19.36
-25.16
-30.15
-34.94
-40.13
-46.10
-52.84
-59.91
-66.40
-71.14
-72.96
-71.03
-65.13
-55.82
-44.26
-31.98
-20.50
-10.97
-3.97
0.42
2.56
2.96
2.14
0.53
-1.58
-3.92
-6.16
-7.95
-8.91
-8.75
-7.40
-5.06
-2.13
0.84
3.36
5.08
5.87
5.75
4.80
3.10
0.68
-2.40
-6.02
-9.96
-13.87
-17.44
-20.43
-22.80
-24.67
-26.33
-28.07
-30.15
-32.71
-35.74
-39.03
-42.15
-44.54
-45.50
-44.38
-40.75
-34.53
-26.12
-16.27
-5.99
3.70
12.02
18.41
22.60
24.53
24.33
22.26
18.77
14.44
9.94
5.87
2.70
0.70
-0.09
0.16
1.14
2.47
3.87
5.17
6.36
7.50
8.57
9.40
9.67
9.01
7.27
4.54
1.25
-2.11
-5.08
-7.46
-9.37
-11.17
-13.32
-16.22
-19.99
-24.36
-28.59
-31.60
-32.17
-29.30
-22.52
-12.20
0.48
13.74
25.62
34.62
40.03
41.98
41.16
38.27
33.67
27.28
18.95
8.94
-1.83
-11.92
-19.90
-25.02
-27.48
-28.32
-28.88
-30.26
-32.97
-36.97
-41.89
-47.21
-52.31
-56.35
-58.26
-57.03
-52.06
-43.59
-32.76
-21.39
-11.37
-4.14
-0.43
-0.31
-3.54
-9.75
-18.55
-29.42
-41.51
-53.67
-64.54
-72.89
-77.89
-79.24
-77.20
-72.48
-66.05
-58.97
-52.18
-46.38
-41.90
-38.79
-36.86
-35.78
-35.22
-34.76
-33.89
-32.08
-28.86
-24.04
-17.77
-10.63
-3.36
3.32
8.99
13.61
17.48
20.99
24.41
27.76
30.80
33.17
34.53
34.79
34.05
32.54
30.56
28.32
25.99
23.71
21.67
20.04
18.91
18.20
17.55
16.50
14.61
11.62
7.64
3.13
-1.18
-4.45
-5.88
-4.98
-1.61
3.90
10.76
17.97
24.41
29.19
31.69
31.69
29.30
24.91
19.01
12.21
5.16
-1.48
-7.09
-11.20
-13.51
-13.91
-12.49
-9.48
-5.16
0.12
6.05
12.28
18.53
24.57
30.20
35.22
39.44
42.70
44.93
46.25
46.96
47.59
48.70
50.67
53.57
57.07
60.57
63.42
65.20
65.83
65.66
65.35
65.69
67.45
71.19
77.21
85.43
95.45
106.56
117.90
128.43
137.21
143.33
146.03
144.67
138.77
128.09
112.67
92.91
69.63
44.00
17.45
-8.44
-32.15
-52.34
-68.16
-79.32
-86.28
-90.22
-92.79
-95.69
-100.05
-105.89
-112.06
-116.51
-117.01
-111.99
-101.04
-85.04
-65.87
-46.06
-28.37
-15.54
-9.78
-12.36
-23.02
-39.74
-59.10
-77.23
-90.99
-98.81
-100.86
-98.43
-93.04
-85.70
-76.82
-66.48
-54.94
-42.74
-30.67
-19.36
-8.99
0.57
9.46
17.54
24.21
28.63
30.07
28.34
23.95
17.97
11.73
6.50
3.15
2.01
2.93
5.40
8.76
12.36
15.69
18.42
20.37
21.46
21.68
21.05
19.59
17.33
14.36
10.81
6.89
2.83
-1.16
-4.96
-8.54
-11.92
-15.24
-18.75
-22.86
-28.05
-34.69
-42.79
-51.84
-60.81
-68.42
-73.43
-74.82
-71.96
-64.65
-53.10
-38.05
-20.80
-3.12
12.95
25.63
33.78
37.09
36.07
31.72
25.20
17.65
10.01
2.98
-2.88
-7.13
-9.43
-9.50
-7.28
-2.90
3.44
11.44
20.86
31.43
42.70
53.72
62.95
68.55
69.11
64.67
56.72
47.67
39.84
34.50
31.43
29.25
26.28
21.36
14.99
8.28
2.22
-2.98
-7.80
-13.04
-19.28
-26.57
-34.48
-41.02
-44.21
-42.60
-35.58
-23.19
-5.85
15.66
39.93
64.61
87.83
106.90
119.12
122.96
119.44
112.19
106.03
104.68
102.28
94.33
79.37
60.53
42.95
30.47
24.03
21.59
20.53
16.68
9.30
-0.28
-9.84
-17.78
-23.93
-29.38
-35.15
-41.88
-49.54
-56.16
-59.90
-60.24
-58.56
-57.48
-59.48
-65.65
-75.36
-86.93
-97.84
-106.66
-113.54
-119.62
-125.97
-132.72
-139.11
-144.15
-147.25
-147.92
-146.11
-142.03
-136.10
-128.95
-121.38
-114.36
-108.79
-105.20
-103.30
-102.01
-99.63
-94.23
-84.09
-68.24
-46.95
-21.79
4.81
30.16
52.10
69.30
81.31
88.30
90.86
89.80
86.06
80.67
74.59
68.57
62.99
57.94
53.31
48.96
44.90
41.22
38.07
35.61
33.89
32.83
32.06
31.06
29.26
26.29
22.23
17.70
13.74
11.48
11.80
15.04
20.93
28.70
37.39
46.11
54.26
61.64
68.33
74.57
80.63
86.64
92.59
98.36
103.85
109.00
113.87
118.46
122.65
126.09
128.21
128.32
125.81
120.26
111.48
99.54
84.79
67.88
49.80
31.73
14.78
-0.67
-15.41
-31.14
-49.74
-72.33
-98.73
-127.48
-156.39
-182.98
-205.28
-222.01
-232.52
-236.48
-233.81
-224.85
-210.48
-191.95
-170.09
-145.65
-119.46
-92.63
-66.41
-41.98
-20.24
-1.53
14.42
29.40
44.72
59.99
73.14
81.81
84.59
81.67
74.79
66.65
62.47
65.89
76.59
90.41
101.94
107.45
106.42
101.72
98.43
105.60
129.40
169.33
218.75
268.97
312.51
343.83
358.98
355.80
339.79
319.49
302.94
295.81
301.74
321.35
351.28
384.60
381.58
319.09
207.06
82.15
-21.50
-88.98
-123.09
-135.08
-137.88
-140.91
-146.00
-151.42
-156.59
-163.49
-174.66
-192.44
-216.91
-246.50
-274.22
-291.88
-294.98
-286.05
-273.88
-268.38
-277.02
-299.45
-327.27
-348.83
-352.20
-330.77
-286.43
-228.29
-157.10
-84.50
-26.68
4.53
6.16
-15.12
-46.92
-75.52
-89.29
-81.20
-52.61
-14.25
26.25
60.24
80.28
82.79
69.28
45.23
18.35
-3.38
-15.14
-16.61
-12.68
-9.36
-9.42
-10.79
-8.09
4.44
29.11
64.08
104.94
144.41
174.80
190.71
191.19
179.30
160.84
142.72
125.43
108.39
89.68
68.11
44.62
22.34
4.24
-7.97
-14.59
-17.29
-16.96
-14.26
-9.90
-5.62
-4.02
-8.62
-20.78
-38.75
-57.19
-70.79
-78.51
-83.84
-94.75
-112.70
-135.19
-156.05
-168.43
-167.38
-152.12
-126.07
-94.90
-64.05
-36.68
-13.95
6.54
25.81
45.09
65.17
85.82
105.74
123.18
137.01
146.48
151.49
151.58
146.62
136.51
121.64
103.20
83.17
63.79
45.90
28.09
6.39
-22.37
-58.68
-99.32
-138.62
-170.61
-190.99
-198.38
-194.35
-183.38
-169.36
-154.81
-140.68
-127.58
-116.11
-106.63
-98.46
-90.09
-80.46
-66.83
-46.30
-17.36
17.78
52.00
74.24
77.78
71.28
62.79
58.38
58.42
62.97
71.41
83.65
100.55
122.61
147.52
168.42
178.31
173.47
155.85
131.30
106.45
85.43
68.69
53.93
37.88
20.08
3.01
-9.46
-14.89
-13.16
-5.72
5.64
19.46
33.90
47.34
57.96
64.14
64.80
60.28
52.37
43.53
35.72
29.37
23.61
16.80
7.52
-5.32
-21.89
-41.98
-65.11
-90.02
-113.89
-132.13
-139.79
-133.21
-112.39
-80.80
-44.75
-11.28
13.98
28.57
32.91
28.07
14.93
-6.84
-33.83
-58.78
-73.71
-73.41
-55.67
-22.15
18.62
58.58
88.15
100.22
92.81
69.40
35.79
-3.33
-43.53
-81.56
-113.19
-133.27
-137.19
-124.32
-100.40
-77.58
-66.91
-71.86
-90.08
-112.14
-128.07
-132.01
-123.69
-106.70
-85.46
-59.28
-22.47
31.68
98.26
165.50
219.79
252.30
270.35
277.08
276.07
273.00
271.64
264.92
251.63
231.82
205.14
169.84
122.04
55.90
-20.79
-93.86
-151.30
-187.08
-203.41
-206.86
-204.33
-201.43
-205.05
-209.24
-209.74
-206.09
-198.09
-186.19
-170.67
-151.57
-130.32
-103.86
-73.25
-44.69
-24.58
-12.45
-2.01
15.19
43.92
80.17
109.60
123.12
120.21
102.40
77.99
54.90
35.80
17.00
-8.38
-44.94
-91.91
-145.79
-202.63
-257.90
-308.50
-351.61
-383.29
-398.63
-393.29
-366.02
-321.03
-266.61
-209.67
-156.42
-111.07
-74.83
-46.29
-21.19
5.13
35.96
72.43
116.55
165.03
209.38
239.86
249.70
240.30
218.59
194.28
176.49
175.70
193.65
223.36
255.14
282.30
306.74
333.41
366.81
408.59
462.90
525.48
583.67
622.29
629.07
602.47
546.83
470.87
345.29
176.68
0.60
-146.40
-241.68
-304.60
-347.62
-374.05
-383.62
-375.37
-345.19
-296.89
-241.55
-191.37
-155.59
-135.21
-129.48
-136.54
-151.90
-163.37
-161.49
-144.06
-115.89
-86.52
-62.79
-49.12
-45.47
-47.35
-46.03
-37.67
-25.71
-17.61
-19.90
-32.55
-51.27
-69.81
-82.69
-85.91
-80.03
-69.32
-58.97
-52.72
-50.83
-51.93
-54.36
-57.18
-60.22
-64.63
-72.16
-83.92
-99.57
-117.14
-134.27
-149.14
-160.76
-168.84
-173.44
-174.62
-172.45
-167.20
-159.58
-150.68
-141.83
-134.33
-129.02
-126.14
-125.29
-125.64
-126.14
-125.74
-123.57
-118.92
-111.39
-100.87
-87.44
-71.25
-52.11
-29.29
-1.55
32.48
73.93
123.20
179.81
242.35
308.39
374.40
435.65
486.61
521.96
538.10
534.45
513.89
481.79
444.31
406.35
370.47
336.89
304.55
272.33
239.74
207.02
174.64
143.19
113.50
87.21
66.92
55.58
55.17
65.24
82.36
100.85
114.74
120.06
116.14
105.56
92.52
80.84
72.28
66.28
60.79
53.59
43.44
30.54
16.25
2.47
-9.07
-17.28
-21.99
-24.06
-25.09
-26.89
-30.87
-37.51
-46.35
-56.23
-65.81
-74.17
-80.87
-86.00
-89.92
-93.14
-96.28
-99.94
-104.57
-110.14
-116.11
-121.51
-125.16
-126.12
-124.11
-119.64
-113.88
-108.25
-103.95
-101.50
-100.57
-99.94
-98.04
-93.76
-86.94
-78.42
-69.46
-60.92
-52.74
-44.25
-34.55
-23.30
-11.27
-0.11
8.50
13.88
16.70
18.64
20.84
23.91
27.46
30.24
30.75
28.15
22.71
15.37
7.03
-2.98
-14.56
-26.41
-36.92
-45.71
-54.67
-67.78
-89.63
-123.05
-168.99
-222.73
-275.43
-318.21
-345.86
-357.93
-357.36
-348.25
-333.88
-318.36
-302.60
-284.79
-262.39
-234.09
-200.06
-161.63
-121.04
-66.12
0.27
64.35
112.79
141.76
155.00
158.57
157.91
157.29
160.91
167.35
174.05
177.98
175.50
163.26
140.14
108.41
73.10
39.40
12.29
-2.36
-2.28
8.87
24.26
39.19
52.45
63.53
72.96
80.79
85.42
88.47
92.99
101.36
114.23
129.99
144.83
155.55
159.06
153.77
141.41
126.16
112.58
104.54
104.50
112.81
129.68
153.86
176.27
189.32
191.53
187.77
184.30
189.26
198.68
207.50
211.82
210.14
201.19
188.27
175.03
162.98
150.83
134.68
111.73
80.65
42.07
-1.00
-44.15
-83.85
-118.02
-145.44
-165.93
-178.77
-184.08
-183.21
-178.09
-170.34
-161.52
-152.79
-144.63
-137.47
-131.15
-125.80
-122.06
-120.73
-121.84
-124.85
-128.69
-132.00
-134.01
-134.58
-134.92
-137.29
-144.68
-158.11
-175.92
-194.33
-208.81
-215.65
-212.85
-200.63
-181.11
-159.05
-138.33
-121.31
-109.48
-104.18
-106.38
-116.01
-131.83
-151.70
-175.44
-201.27
-225.88
-245.84
-259.05
-264.89
-263.45
-255.49
-242.18
-227.59
-212.87
-195.71
-172.61
-141.74
-103.96
-62.08
-20.07
36.87
106.11
172.82
222.66
251.77
264.31
266.14
262.14
255.67
248.87
239.68
227.15
211.66
193.64
173.42
150.19
124.57
98.78
75.77
55.58
38.71
26.29
19.20
17.30
19.61
25.14
32.77
41.26
47.31
49.03
46.84
42.80
39.29
38.20
40.71
46.93
56.06
65.92
74.88
82.29
88.05
92.22
94.67
95.14
93.20
88.08
78.54
63.80
44.17
21.24
-2.19
-22.88
-38.03
-46.30
-48.28
-46.21
-42.95
-40.89
-41.25
-44.03
-48.47
-53.74
-59.52
-66.01
-73.65
-82.82
-93.51
-105.24
-117.14
-128.12
-137.30
-144.18
-148.52
-149.86
-147.51
-140.51
-127.96
-109.47
-85.40
-57.10
-26.66
3.58
31.93
57.38
79.53
98.47
114.46
128.09
139.71
149.19
156.06
160.50
162.34
160.85
155.01
143.74
127.36
106.77
83.11
57.62
33.32
12.45
-4.07
-16.06
-23.87
-25.54
-19.15
-4.10
18.52
48.94
85.57
124.80
162.33
193.46
217.89
236.58
250.52
260.41
270.34
282.80
297.20
310.69
318.17
319.31
315.32
307.72
273.85
205.36
111.88
14.02
-62.09
-122.25
-173.25
-218.82
-259.82
-294.36
-317.49
-327.20
-325.65
-311.19
-286.36
-253.12
-215.84
-179.47
-147.56
-119.20
-93.37
-70.52
-52.27
-42.14
-39.91
-43.83
-51.28
-59.41
-64.26
-63.32
-56.69
-46.72
-37.96
-32.56
-30.73
-31.23
-32.03
-30.58
-25.75
-18.31
-10.32
-4.39
-2.03
-3.71
-8.74
-15.33
-20.68
-22.12
-18.29
-10.05
-0.68
5.88
6.58
0.62
-10.50
-24.12
-38.15
-52.17
-67.35
-85.31
-106.61
-129.97
-152.97
-173.24
-189.64
-202.35
-212.11
-219.66
-225.26
-228.81
-230.14
-229.04
-225.14
-217.69
-205.58
-187.69
-163.37
-132.64
-96.23
-55.20
-10.48
37.39
88.31
142.18
198.06
253.37
303.61
343.17
367.08
372.98
362.36
340.25
313.33
287.31
264.99
245.91
227.50
207.18
183.80
158.17
132.41
108.73
88.42
71.51
57.35
45.22
35.07
27.12
21.46
17.74
15.10
12.51
9.38
6.39
5.47
9.53
20.54
38.83
63.20
91.51
121.32
150.37
177.07
200.12
218.62
230.74
234.19
227.60
211.37
187.40
158.17
126.63
95.11
65.96
40.17
17.68
-1.98
-19.70
-37.42
-58.38
-84.87
-120.47
-159.59
-192.37
-213.36
-224.46
-230.71
-235.80
-240.88
-243.55
-241.42
-232.95
-219.54
-204.52
-190.76
-178.99
-168.16
-160.51
-152.64
-143.06
-131.13
-117.44
-103.12
-88.87
-74.33
-55.50
-34.51
-13.20
6.35
23.11
36.55
46.71
54.04
59.68
64.32
67.28
68.40
67.00
62.97
56.78
49.35
41.12
32.88
24.60
14.99
3.38
-11.00
-28.50
-49.28
-71.02
-92.67
-110.98
-121.16
-118.86
-101.75
-71.90
-35.47
-0.55
26.04
41.05
45.94
44.77
41.51
38.46
35.78
32.59
28.51
24.32
21.24
20.40
21.74
24.01
25.58
25.10
22.37
18.24
14.20
11.46
10.71
11.68
13.38
14.58
14.39
12.68
10.00
7.29
5.38
4.66
5.01
5.83
6.43
6.31
5.39
3.98
2.57
1.58
1.18
1.27
1.55
1.68
1.47
0.93
0.21
-0.46
-0.93
-1.16
-1.26
-1.36
-1.59
-1.97
-2.43
-2.87
-3.17
-3.33
-3.42
-3.59
-4.01
-4.73
-5.70
-6.71
-7.49
-7.85
-7.78
-7.49
-7.40
-7.86
-9.06
-10.84
-12.71
-14.08
-14.50
-13.98
-12.98
-12.30
-12.67
-14.35
-16.92
-19.38
-20.50
-19.39
-15.95
-10.98
-5.81
-1.73
0.64
1.72
2.71
5.00
9.57
16.62
25.48
34.87
43.13
48.31
48.33
41.53
27.70
8.97
-10.25
-24.78
-31.00
-28.85
-22.06
-16.34
-16.32
-23.16
-34.01
-43.82
-48.09
-45.00
-35.65
-22.75
-8.70
5.41
19.61
34.22
49.03
63.34
76.37
87.61
96.69
103.09
105.88
103.99
96.90
85.04
69.92
53.52
37.49
22.60
8.93
-3.50
-14.17
-21.91
-25.52
-24.60
-19.97
-13.62
-7.79
-3.98
-2.34
-1.80
-0.76
1.89
6.21
11.16
15.13
16.69
15.14
10.47
3.58
-4.16
-11.31
-16.58
-19.04
-18.15
-13.90
-6.85
1.84
10.50
17.29
20.50
18.85
11.77
-0.68
-17.94
-39.20
-63.52
-89.85
-116.76
-142.71
-166.23
-186.31
-202.55
-215.04
-224.00
-229.42
-230.93
-227.53
-218.44
-203.51
-183.46
-159.61
-133.44
-106.20
-78.95
-52.66
-27.60
-3.90
18.57
40.15
61.22
81.96
102.09
121.00
138.05
153.96
170.28
188.76
210.55
235.47
262.02
287.93
311.14
324.51
323.09
304.87
271.83
229.25
183.44
139.45
100.06
65.98
36.77
12.47
-6.74
-20.83
-30.25
-36.15
-40.13
-43.75
-48.11
-53.58
-59.19
-63.66
-66.03
-66.13
-64.66
-62.71
-61.14
-60.34
-60.24
-60.30
-60.27
-60.31
-60.75
-61.59
-62.20
-61.50
-58.59
-53.30
-46.24
-38.46
-30.90
-23.91
-17.23
-10.47
-3.59
2.78
7.71
10.55
11.30
10.66
9.39
7.78
5.42
1.62
-3.78
-9.73
-14.10
-14.67
-10.39
-2.07
7.78
16.17
21.17
22.16
19.83
15.22
8.94
1.11
-8.00
-17.37
-25.11
-29.07
-28.13
-22.97
-16.00
-10.39
-8.58
-11.07
-16.31
-21.46
-23.79
-21.91
-16.23
-8.58
-1.26
3.96
6.52
6.92
6.31
5.78
5.87
6.58
7.54
8.51
9.64
11.58
15.11
20.57
27.65
35.21
41.67
45.67
46.74
45.54
43.67
42.87
43.98
46.68
49.51
50.55
48.20
41.76
31.70
19.41
6.76
-4.68
-13.70
-19.80
-23.36
-25.49
-27.56
-30.74
-35.56
-39.64
-40.87
-37.21
-27.41
-11.74
8.01
29.03
48.55
64.63
76.54
84.33
88.75
90.76
91.27
91.11
91.11
92.07
94.58
98.82
104.22
109.67
113.69
114.66
111.30
103.12
90.81
76.18
61.65
49.33
40.32
34.23
29.28
23.17
14.04
1.24
-14.49
-31.51
-48.20
-63.57
-77.69
-91.46
-106.00
-121.95
-139.10
-156.48
-172.79
-187.03
-198.74
-207.96
-214.87
-219.46
-221.54
-221.04
-218.30
-214.12
-209.51
-205.05
-200.64
-195.56
-189.09
-181.01
-171.88
-162.62
-153.96
-146.06
-138.55
-130.99
-123.43
-116.62
-111.75
-109.86
-111.33
-115.59
-121.42
-127.24
-131.62
-133.48
-132.37
-128.50
-122.79
-116.56
-110.98
-106.64
-103.19
-99.42
-93.60
-84.15
-70.23
-52.09
-31.00
-8.84
12.45
31.40
47.32
60.30
71.07
80.60
89.75
98.95
108.20
117.15
125.37
132.47
138.16
142.23
144.64
145.46
144.98
143.63
141.91
140.30
139.02
137.91
136.50
134.19
130.48
125.18
118.49
110.84
102.70
94.36
85.84
76.96
67.52
57.61
47.74
38.78
31.79
27.61
26.67
28.81
33.42
39.54
46.14
52.33
57.45
61.18
63.41
64.18
63.60
61.77
58.82
54.99
50.64
46.11
41.71
37.56
33.65
29.91
26.32
23.01
20.17
17.95
16.35
15.20
14.24
13.29
12.27
11.22
10.28
9.52
8.97
8.52
8.02
7.29
6.16
4.55
2.49
0.19
-2.04
-3.90
-5.23
-6.15
-6.97
-8.08
-9.79
-12.16
-15.02
-17.97
-20.50
-22.06
-22.13
-20.34
-16.55
-10.97
-4.10
3.31
10.51
16.92
22.11
25.88
28.13
28.79
27.92
25.66
22.33
18.31
14.02
9.71
5.50
1.31
-3.00
-7.51
-12.18
-16.79
-20.99
-24.36
-26.61
-27.74
-28.09
-28.19
-28.58
-29.51
-30.77
-31.59
-30.93
-27.80
-21.65
-12.58
-1.33
11.03
23.38
34.79
44.71
52.84
59.04
63.29
65.67
66.43
65.99
64.93
63.79
62.94
62.48
62.26
62.06
61.79
61.50
61.46
61.99
63.31
65.43
68.10
70.99
73.82
76.45
78.91
81.29
83.62
85.76
87.39
88.12
87.65
85.97
83.32
80.22
77.25
74.85
73.12
71.72
69.85
66.43
60.25
50.25
35.72
16.65
-6.22
-31.36
-56.72
-80.18
-100.07
-115.55
-126.67
-134.12
-138.83
-141.55
-142.73
-142.53
-141.07
-138.56
-135.34
-131.71
-127.83
-123.57
-118.70
-113.08
-106.78
-100.07
-93.20
-86.16
-78.57
-69.86
-59.58
-47.71
-34.88
-22.14
-10.71
-1.43
5.39
10.01
13.07
15.23
16.91
18.21
18.98
19.02
18.25
16.87
15.27
13.95
13.30
13.48
14.37
15.65
16.89
17.77
18.10
17.88
17.19
16.13
14.73
12.98
10.91
8.63
6.34
4.32
2.78
1.80
1.30
1.05
0.82
0.42
-0.26
-1.20
-2.35
-3.63
-4.96
-6.25
-7.31
-7.82
-7.40
-5.66
-2.47
1.99
7.23
12.54
17.31
21.13
23.90
25.73
26.74
26.96
26.37
24.93
22.81
20.35
18.02
16.29
15.42
15.42
16.17
17.47
19.27
21.65
24.75
28.59
32.89
37.05
40.34
42.12
42.10
40.49
37.85
34.82
31.87
29.07
26.13
22.65
18.34
13.23
7.68
2.18
-2.83
-7.15
-10.84
-14.08
-17.01
-19.60
-21.69
-23.05
-23.64
-23.55
-23.03
-22.29
-21.47
-20.55
-19.45
-18.12
-16.57
-14.81
-12.85
-10.53
-7.60
-3.83
0.78
5.82
10.46
13.62
14.15
11.17
4.45
-5.44
-17.14
-28.81
-38.74
-45.81
-49.67
-50.64
-49.31
-46.13
-41.25
-34.64
-26.48
-17.56
-9.24
-3.10
-0.36
-1.46
-5.93
-12.74
-20.65
-28.65
-36.06
-42.43
-47.36
-50.44
-51.34
-49.98
-46.63
-41.80
-36.04
-29.72
-22.96
-15.74
-8.13
-0.28
7.54
15.00
21.81
27.75
32.59
36.08
37.91
37.85
35.91
32.34
27.69
22.59
17.62
13.20
9.53
6.62
4.43
2.93
2.15
2.15
2.98
4.63
6.93
9.63
12.43
15.02
17.21
18.87
19.97
20.53
20.59
20.16
19.21
17.72
15.73
13.33
10.70
8.02
5.50
3.32
1.64
0.49
-0.23
-0.75
-1.44
-2.66
-4.76
-7.88
-11.90
-16.42
-20.82
-24.38
-26.48
-27.02
-26.60
-26.58
-28.67
-34.20
-43.35
-54.78
-65.87
-73.38
-74.24
-66.20
-48.19
-20.38
15.81
57.93
102.58
145.73
183.19
211.36
228.09
233.08
227.88
215.14
197.81
178.20
157.54
136.29
114.72
93.63
74.16
57.33
43.11
30.11
16.16
-0.54
-20.34
-41.77
-62.39
-79.92
-93.19
-102.34
-108.35
-112.26
-114.64
-115.42
-114.28
-111.27
-107.19
-103.46
-101.45
-101.90
-104.39
-107.54
-109.59
-109.05
-105.60
-100.10
-94.07
-88.55
-83.73
-78.98
-73.77
-68.10
-61.63
-54.36
-46.53
-38.69
-31.52
-25.79
-22.46
-22.50
-26.16
-30.70
-32.60
-29.45
-21.35
-10.55
0.00
7.92
12.27
13.71
16.76
25.17
39.78
58.20
77.23
95.40
113.53
133.43
156.19
184.94
220.39
260.13
299.58
334.73
364.27
389.16
411.01
406.61
361.28
276.40
171.04
68.59
-16.00
-78.25
-120.37
-147.32
-164.41
-172.06
-169.96
-158.98
-142.44
-124.74
-108.19
-95.34
-87.64
-85.59
-85.85
-85.24
-82.33
-78.20
-75.00
-75.84
-80.47
-87.91
-97.28
-105.73
-110.86
-111.44
-108.05
-102.43
-96.45
-91.43
-87.98
-86.49
-84.76
-80.87
-74.09
-65.37
-56.55
-49.26
-44.09
-40.67
-38.00
-34.50
-29.23
-22.20
-14.27
-6.74
-0.80
2.77
3.50
1.06
-4.14
-11.09
-18.12
-23.19
-24.44
-20.54
-11.06
3.43
21.62
41.84
62.32
81.48
98.20
112.06
123.40
133.19
142.58
152.42
163.01
173.90
184.21
193.09
200.10
205.47
209.95
214.59
220.42
228.17
238.03
249.51
261.25
271.08
276.39
274.81
265.01
247.30
223.53
196.48
168.91
142.74
118.69
96.55
75.66
55.42
35.34
14.90
-6.74
-30.75
-58.04
-88.57
-120.85
-152.15
-179.23
-199.38
-211.22
-214.92
-211.92
-204.47
-195.25
-186.98
-182.09
-182.10
-187.19
-195.97
-205.93
-214.50
-220.10
-222.66
-223.40
-223.94
-225.44
-228.19
-231.89
-236.10
-240.62
-245.56
-251.17
-257.57
-264.72
-272.48
-280.78
-289.61
-298.87
-308.16
-316.65
-323.22
-326.83
-327.06
-324.50
-320.89
-318.74
-320.51
-327.81
-340.63
-356.98
-373.25
-385.01
-388.30
-380.65
-361.73
-333.27
-298.20
-259.66
-220.03
-180.57
-141.62
-103.04
-64.65
-26.36
11.96
50.72
90.63
132.48
176.80
223.53
271.89
320.15
365.66
405.20
435.61
454.65
461.81
458.42
447.19
431.24
413.02
393.75
373.60
352.24
329.49
305.65
281.38
257.31
233.70
210.47
187.46
164.70
142.64
122.01
103.57
87.78
74.58
63.39
53.34
43.69
34.02
24.44
15.44
7.56
1.12
-3.96
-8.08
-11.69
-15.04
-17.94
-19.87
-20.25
-18.73
-15.47
-11.05
-6.28
-1.86
1.76
4.47
6.43
7.89
9.05
10.10
11.09
12.05
12.89
13.44
13.50
12.86
11.51
9.64
7.67
6.15
5.48
5.81
6.94
8.41
9.64
10.22
10.03
9.25
8.25
7.39
6.95
7.03
7.58
8.49
9.64
10.92
12.33
13.89
15.71
17.87
20.41
23.23
26.12
28.76
30.86
32.19
32.69
32.36
31.17
28.98
25.53
20.57
14.10
6.49
-1.54
-9.07
-15.29
-19.72
-22.34
-23.44
-23.49
-22.90
-21.97
-20.92
-19.95
-19.19
-18.61
-17.83
-16.28
-13.46
-9.43
-5.08
-2.12
-2.58
-8.03
-19.08
-35.17
-54.85
-76.19
-97.10
-115.32
-128.39
-133.84
-129.71
-115.52
-92.85
-65.27
-37.39
-13.20
5.00
17.12
24.81
30.40
35.86
42.18
49.36
56.93
64.57
72.09
79.22
85.39
89.68
91.15
89.24
84.04
76.22
67.23
58.36
50.25
42.72
35.17
27.01
17.99
8.35
-1.29
-9.09
-13.68
-14.83
-13.51
-11.10
-8.70
-6.78
-5.36
-4.14
-0.88
5.65
14.62
23.34
28.84
29.44
25.23
17.89
10.12
8.02
15.96
34.50
60.54
89.67
118.49
145.31
169.97
193.24
220.19
253.93
293.35
333.67
369.38
397.11
415.75
425.82
402.28
333.66
228.45
111.16
5.42
-77.19
-135.82
-175.43
-202.06
-220.74
-230.60
-230.39
-222.35
-210.94
-201.24
-196.63
-198.64
-206.62
-218.46
-228.70
-233.30
-232.16
-229.10
-229.87
-235.33
-246.01
-260.75
-276.99
-289.78
-293.98
-286.55
-267.44
-238.66
-202.54
-162.07
-120.30
-80.67
-46.98
-21.61
-6.05
-0.93
-5.01
-14.47
-24.78
-31.59
-32.33
-27.90
-18.83
-6.31
7.68
21.52
35.57
51.51
72.13
99.80
133.32
173.12
219.69
272.67
320.89
350.75
351.69
322.41
284.80
244.83
205.28
169.30
134.52
102.63
76.12
56.29
42.94
34.44
26.09
16.20
4.60
-8.76
-23.29
-37.76
-50.41
-59.42
-63.91
-66.46
-68.75
-72.24
-78.27
-86.89
-96.82
-105.77
-111.26
-111.60
-107.97
-101.13
-91.72
-80.52
-68.22
-55.67
-43.74
-33.07
-23.99
-17.71
-14.44
-13.93
-15.95
-20.38
-27.06
-35.43
-44.32
-52.43
-59.78
-66.58
-73.01
-78.90
-83.55
-85.85
-84.67
-79.16
-65.48
-43.34
-15.47
14.42
44.00
71.93
95.95
111.55
113.74
99.82
71.10
33.91
-2.80
-31.22
-47.84
-53.75
-53.15
-50.11
-46.97
-44.87
-44.00
-44.11
-44.15
-41.88
-33.67
-17.09
9.50
44.29
81.85
115.35
139.10
150.25
146.36
130.28
105.33
74.70
41.75
10.24
-15.77
-34.06
-43.88
-46.84
-45.95
-44.56
-44.51
-45.23
-44.49
-39.77
-29.51
-13.54
6.73
29.19
51.32
70.60
85.32
94.36
97.17
93.87
85.38
73.30
59.72
46.86
35.04
25.29
17.96
12.35
6.82
-0.62
-10.32
-21.80
-33.36
-43.82
-51.04
-53.48
-51.18
-45.72
-39.23
-33.24
-30.41
-28.88
-28.02
-27.12
-26.51
-27.90
-33.97
-47.31
-69.60
-101.65
-138.25
-174.53
-203.02
-216.29
-209.82
-183.89
-143.18
-94.60
-44.79
6.05
52.20
89.40
117.04
136.38
147.49
149.04
140.22
121.96
97.59
70.46
44.64
22.92
5.64
-9.08
-24.07
-40.71
-58.38
-74.54
-86.61
-91.39
-86.36
-70.35
-44.27
-10.91
25.14
57.97
82.16
94.21
94.49
83.66
65.89
46.85
31.62
22.97
20.51
20.98
21.02
18.54
13.68
10.37
11.22
17.96
31.50
50.50
73.24
97.61
120.97
140.31
147.37
136.89
110.14
74.13
36.57
2.91
-24.07
-43.48
-55.36
-60.26
-58.73
-53.04
-44.70
-35.78
-27.88
-21.29
-15.35
-8.99
-1.45
7.63
17.73
27.61
35.77
41.32
44.77
47.61
51.42
57.15
65.14
74.89
85.35
94.94
102.06
105.20
102.35
91.15
69.25
35.21
-11.14
-68.61
-135.37
-209.43
-288.68
-370.26
-449.27
-517.84
-566.04
-584.72
-568.96
-520.35
-446.68
-359.05
-267.86
-179.74
-96.27
-16.12
61.71
135.62
201.35
253.81
289.50
308.00
311.86
306.11
295.86
284.50
272.81
259.77
243.78
223.84
200.03
173.39
146.44
122.17
102.74
89.13
81.40
79.18
82.07
89.38
94.13
90.34
76.57
56.75
36.87
20.41
7.00
-5.76
-20.34
-37.72
-55.85
-69.77
-76.45
-74.30
-63.47
-45.17
-21.03
6.96
36.39
61.14
75.90
76.90
63.13
36.65
2.18
-33.94
-65.77
-89.43
-104.40
-111.45
-112.46
-109.88
-106.05
-102.64
-99.90
-97.33
-94.31
-90.12
-83.76
-74.74
-62.05
-46.10
-28.89
-11.97
3.26
15.88
25.71
33.55
40.41
47.12
54.52
61.83
69.03
76.09
83.07
90.13
97.73
106.28
116.06
127.81
140.20
152.67
164.28
173.73
179.50
180.29
175.22
158.81
139.03
115.44
88.97
60.42
30.57
0.33
-29.15
-56.45
-80.20
-98.70
-112.82
-122.80
-128.99
-131.49
-130.13
-124.61
-115.05
-102.25
-87.19
-72.79
-60.98
-52.97
-49.10
-48.82
-51.17
-55.20
-60.43
-66.57
-74.58
-84.41
-95.29
-106.03
-115.55
-123.32
-129.44
-134.31
-137.99
-140.51
-140.62
-137.00
-129.29
-118.83
-108.21
-100.05
-96.05
-96.28
-99.54
-102.56
-101.49
-93.39
-77.63
-55.89
-31.19
-6.58
15.93
35.70
54.22
73.76
96.20
122.07
151.07
182.81
216.48
250.05
271.91
268.54
233.06
172.13
101.79
38.07
-8.93
-36.12
-46.49
-44.10
-30.21
-4.82
31.22
74.26
118.17
156.49
180.77
186.33
173.21
146.49
113.77
82.27
56.37
37.11
23.47
13.62
6.62
2.21
0.73
2.05
5.07
7.66
7.45
2.97
-6.00
-17.87
-30.17
-40.06
-45.49
-45.46
-40.10
-30.21
-16.53
0.23
19.69
41.34
64.18
86.06
104.33
116.60
121.39
118.81
109.31
93.97
74.28
51.59
25.92
-3.08
-35.36
-69.91
-103.90
-135.35
-162.35
-182.87
-195.38
-200.67
-200.42
-196.47
-190.07
-180.66
-169.87
-159.75
-151.71
-146.54
-146.05
-151.20
-161.43
-174.82
-187.66
-200.33
-214.74
-232.16
-238.42
-221.74
-178.37
-116.49
-61.91
-18.82
14.37
41.12
67.87
96.92
125.62
148.84
161.23
159.92
147.52
126.93
102.33
78.44
58.67
43.23
30.72
19.53
9.19
1.83
-2.11
-2.82
-0.62
3.40
6.84
7.05
2.08
-8.36
-22.10
-37.23
-51.48
-62.08
-66.31
-62.17
-48.54
-25.39
6.03
43.56
83.39
121.23
153.39
177.31
191.71
196.56
192.80
182.12
166.77
148.88
130.34
112.57
96.31
81.74
68.60
56.52
45.38
35.49
27.45
21.84
18.66
17.19
16.07
13.89
9.62
3.06
-5.29
-14.48
-23.62
-32.15
-39.84
-46.74
-52.86
-58.04
-61.89
-63.89
-63.48
-60.16
-53.71
-44.23
-32.26
-18.69
-4.68
8.55
19.78
27.89
31.98
31.44
26.14
16.60
3.93
-10.32
-24.44
-36.94
-46.81
-53.46
-56.66
-56.25
-52.10
-44.13
-32.52
-17.89
-1.42
15.39
31.00
44.19
54.23
60.92
64.54
65.68
65.03
63.22
60.68
57.49
53.49
48.41
42.08
34.62
26.46
18.33
10.97
4.95
0.42
-2.94
-5.79
-8.85
-12.59
-17.01
-21.63
-25.66
-28.33
-29.18
-28.14
-25.47
-21.63
-17.26
-13.19
-10.36
-9.70
-11.76
-16.34
-22.48
-28.75
-33.78
-36.80
-37.79
-37.28
-35.85
-33.81
-31.07
-27.45
-22.96
-17.99
-13.19
-9.22
-6.46
-4.97
-4.46
-4.50
-4.59
-4.26
-3.12
-0.92
2.31
6.21
10.21
13.62
15.88
16.67
15.99
14.07
11.39
8.55
6.16
4.54
3.47
2.23
-0.05
-3.82
-8.59
-12.98
-15.17
-13.90
-9.24
-2.70
3.44
7.10
7.38
4.78
0.83
-2.68
-4.42
-3.78
-0.77
4.20
10.41
16.68
21.24
21.81
16.07
2.38
-19.41
-47.68
-79.29
-110.25
-136.48
-154.55
-161.97
-157.44
-140.95
-113.87
-79.01
-40.18
-1.34
34.50
66.04
93.64
118.57
141.82
163.32
181.78
195.45
203.11
204.74
201.57
195.34
187.53
178.96
169.65
159.18
146.93
132.38
115.11
95.04
72.52
48.46
24.56
3.01
-14.25
-26.20
-33.25
-36.98
-39.58
-43.14
-49.21
-58.18
-69.48
-82.03
-94.84
-107.23
-118.75
-129.14
-138.42
-147.16
-155.71
-163.83
-170.72
-175.27
-176.43
-173.43
-166.17
-155.51
-143.26
-130.83
-118.40
-104.89
-88.55
-67.33
-39.18
-2.35
45.04
98.75
148.67
182.92
193.57
179.28
144.56
97.86
49.01
6.50
-24.89
-43.81
-51.43
-50.01
-42.02
-29.56
-14.32
2.11
17.76
30.31
38.22
41.38
40.92
38.46
35.34
32.16
28.89
25.14
20.61
15.71
11.61
9.68
10.33
13.15
17.05
20.80
23.39
24.18
22.99
20.04
15.84
11.04
6.48
2.95
0.95
0.39
0.55
0.52
-0.38
-2.19
-4.37
-6.07
-6.60
-5.78
-3.92
-1.65
0.54
2.52
4.56
7.14
10.68
15.34
20.98
27.28
33.95
40.95
48.44
56.51
65.05
73.69
81.92
89.37
95.90
101.64
106.85
111.76
116.53
121.27
126.01
130.76
135.48
140.12
144.63
149.04
153.27
157.07
159.89
160.95
159.46
154.89
147.01
135.79
121.08
102.44
79.37
51.77
20.47
-12.60
-44.77
-73.52
-97.26
-115.88
-130.51
-142.94
-154.80
-167.02
-179.88
-193.22
-206.93
-221.04
-235.54
-250.10
-263.90
-275.66
-284.02
-287.95
-286.99
-281.23
-271.09
-256.98
-239.10
-217.52
-192.46
-164.64
-135.55
-107.28
-82.08
-61.73
-47.03
-37.74
-32.68
-30.21
-28.92
-28.11
-27.81
-28.32
-29.57
-30.77
-30.64
-27.76
-21.22
-11.14
1.29
14.35
26.57
37.30
46.77
55.29
63.07
70.13
76.28
81.26
84.94
87.51
89.37
90.96
91.85
91.95
91.97
93.07
95.94
100.34
105.36
109.99
113.55
114.36
112.18
108.84
107.01
108.06
110.99
113.02
110.82
101.97
83.25
54.78
20.73
-12.95
-42.30
-66.79
-88.17
-108.44
-128.44
-151.20
-177.48
-205.09
-230.72
-252.74
-271.43
-287.10
-298.87
-282.06
-226.74
-145.20
-62.42
4.06
50.71
82.40
105.40
123.00
134.69
134.46
119.40
93.83
67.96
51.47
48.60
56.98
69.60
78.68
76.64
61.97
39.93
19.16
5.59
-0.45
-1.24
0.48
3.20
5.15
5.96
6.49
8.39
11.70
15.72
20.38
27.20
38.25
53.73
72.37
91.89
110.37
125.04
133.21
133.10
124.78
109.72
89.79
67.38
39.83
9.98
-18.13
-40.34
-57.47
-71.12
-81.91
-89.87
-94.88
-96.78
-94.93
-89.88
-82.95
-75.73
-69.00
-63.01
-57.86
-53.60
-49.97
-46.00
-41.17
-35.07
-27.47
-18.00
-6.78
5.48
17.87
30.11
42.50
54.87
66.65
76.89
84.84
90.02
92.39
92.53
92.09
92.61
94.54
97.47
100.60
103.22
104.73
104.62
102.46
98.61
93.10
85.29
74.55
60.74
44.39
26.53
8.53
-12.27
-34.57
-54.29
-67.69
-73.99
-75.11
-73.73
-71.47
-68.51
-64.21
-57.50
-47.58
-36.34
-26.62
-20.81
-20.02
-23.79
-30.49
-38.04
-44.06
-46.44
-44.43
-39.33
-32.40
-25.06
-18.55
-13.76
-11.14
-10.19
-9.03
-6.22
-1.55
3.99
8.80
11.81
13.02
13.52
15.06
20.40
31.01
46.38
64.64
83.73
102.52
120.81
138.49
146.73
139.00
114.26
77.16
34.01
-10.20
-51.65
-86.88
-113.39
-131.55
-141.54
-144.02
-140.75
-134.00
-125.74
-116.88
-107.17
-95.96
-81.04
-60.08
-31.66
3.44
41.91
78.53
107.68
125.12
128.70
119.05
99.96
76.58
53.60
34.27
20.42
10.74
5.25
3.66
5.23
9.21
14.58
20.02
24.22
26.17
25.43
22.41
17.45
10.82
2.87
-6.07
-15.58
-24.94
-33.11
-38.98
-41.18
-38.63
-31.01
-19.03
-4.64
9.55
21.21
28.96
32.79
33.84
33.56
31.78
29.30
26.35
22.80
18.79
14.85
11.99
10.70
10.96
12.24
13.55
13.48
10.97
5.81
-1.39
-9.24
-16.39
-21.69
-23.00
-19.63
-13.00
-6.27
-3.02
-6.27
-16.48
-31.60
-46.83
-56.24
-55.28
-42.78
-21.10
5.01
29.32
46.77
53.73
49.92
39.42
28.92
24.62
28.46
37.74
44.97
47.76
44.97
36.58
22.14
1.66
-26.28
-62.51
-99.35
-126.48
-134.54
-121.90
-93.15
-55.75
-17.21
16.49
42.20
59.91
68.85
72.61
72.68
70.04
65.32
58.61
49.21
36.12
18.14
-7.01
-36.93
-70.50
-105.05
-136.44
-160.22
-173.31
-174.93
-166.87
-152.80
-136.18
-120.22
-106.05
-93.15
-80.79
-69.12
-59.18
-52.27
-48.78
-47.36
-46.49
-44.53
-40.67
-35.30
-29.70
-25.02
-21.66
-18.61
-14.03
-6.70
3.62
16.43
31.00
47.05
65.82
86.08
105.38
121.75
134.22
141.93
143.46
137.03
121.36
96.90
66.02
33.30
4.19
-16.83
-28.33
-30.53
-24.95
-13.96
0.22
15.39
30.04
41.71
48.60
50.46
48.62
45.22
42.06
40.07
38.73
36.98
34.27
31.33
29.89
31.78
38.61
49.03
60.48
69.45
73.37
71.78
66.42
59.81
53.92
49.18
44.66
39.11
31.17
21.52
13.02
9.20
12.27
22.11
36.44
51.47
63.02
66.04
57.65
37.83
8.70
-26.73
-65.37
-104.25
-140.66
-172.50
-200.12
-223.09
-239.42
-246.68
-243.60
-230.60
-208.82
-179.10
-131.95
-69.28
-4.18
47.16
75.71
82.12
73.28
58.29
45.53
38.99
35.89
31.87
24.42
14.11
4.45
-1.15
-0.93
5.18
14.18
20.12
19.11
12.10
3.04
-2.18
1.27
15.11
39.01
69.02
97.68
118.21
126.87
123.55
110.80
92.11
63.77
28.54
-8.53
-43.96
-75.75
-102.38
-121.96
-132.88
-135.15
-130.52
-122.90
-113.48
-103.51
-93.54
-83.50
-73.39
-63.48
-54.01
-44.66
-33.61
-19.78
-3.39
14.57
32.68
49.37
63.27
73.42
79.58
82.62
83.61
82.89
80.21
74.92
66.36
54.33
39.54
23.58
8.70
-3.14
-11.05
-14.98
-15.27
-12.33
-6.41
2.27
13.27
25.87
38.94
50.89
60.02
65.00
65.23
61.13
54.13
46.18
39.18
34.30
31.62
30.28
29.15
27.43
24.96
22.19
19.84
18.59
18.99
21.45
26.27
33.59
43.13
54.02
64.92
74.47
81.90
86.96
90.22
92.75
95.55
99.09
103.33
108.02
112.91
117.64
121.37
123.24
122.85
120.65
117.93
116.40
117.53
122.04
129.65
138.82
148.41
158.60
170.68
185.74
203.34
221.10
235.17
241.33
234.46
212.54
178.03
136.81
95.04
56.81
23.65
-4.84
-30.07
-57.84
-92.06
-132.70
-176.74
-221.76
-267.14
-312.26
-354.49
-388.83
-416.22
-436.73
-448.39
-448.49
-437.61
-420.18
-401.00
-383.12
-368.24
-367.11
-387.79
-430.89
-488.62
-551.04
-610.87
-663.32
-706.06
-683.27
-569.92
-388.71
-194.57
-29.38
94.08
180.14
238.96
280.61
312.58
328.26
325.74
307.47
281.26
253.68
225.78
197.03
168.21
141.86
114.27
89.15
73.06
73.71
98.98
140.09
179.68
205.09
215.15
212.26
201.61
187.51
173.61
161.22
149.12
137.31
127.02
118.66
108.09
90.93
65.23
34.15
3.82
-20.24
-34.39
-37.34
-30.79
-20.28
-11.53
-8.05
-9.01
-11.12
-11.14
-6.79
2.13
14.21
26.57
36.97
43.03
45.89
48.17
51.63
58.05
65.76
73.50
80.21
85.64
89.65
91.95
91.39
86.85
78.42
64.63
47.69
30.01
13.35
-2.05
-17.06
-33.34
-51.98
-72.98
-95.37
-116.62
-133.93
-143.75
-142.93
-129.79
-105.17
-72.02
-34.45
3.14
37.62
62.45
73.02
70.08
58.41
42.68
25.64
8.07
-10.31
-29.30
-47.91
-63.24
-73.30
-76.17
-72.04
-63.02
-52.23
-42.82
-36.86
-35.26
-36.83
-39.47
-41.29
-41.75
-40.72
-38.99
-37.74
-37.94
-39.80
-41.57
-40.86
-36.20
-28.21
-18.97
-10.86
-5.34
-2.28
-0.12
4.71
15.04
30.98
49.21
65.00
74.30
75.07
67.18
51.68
32.21
12.76
-3.38
-14.35
-18.67
-15.19
-4.05
12.28
29.89
48.35
70.20
99.78
140.12
191.45
250.31
309.23
358.48
373.63
339.20
259.92
159.80
64.48
-12.63
-70.87
-115.97
-153.58
-186.11
-210.08
-223.24
-224.16
-215.83
-203.57
-191.54
-181.40
-172.36
-162.58
-148.37
-127.29
-99.43
-67.33
-35.67
-7.93
14.42
31.94
45.89
58.53
71.29
84.03
94.77
101.03
101.56
96.61
88.02
77.88
68.55
61.51
57.21
54.83
52.82
49.71
41.19
25.76
5.47
-14.50
-29.83
-39.67
-46.68
-54.53
-65.01
-76.53
-84.26
-83.39
-71.69
-51.41
-28.06
-7.79
5.41
10.99
11.18
10.43
10.33
10.67
9.96
6.82
1.00
-6.49
-14.09
-20.57
-25.36
-29.03
-32.44
-36.42
-41.17
-46.06
-49.87
-51.39
-49.93
-45.37
-38.91
-31.87
-25.45
-20.38
-16.69
-13.82
-10.99
-7.62
-3.42
1.36
6.45
11.55
16.47
21.11
25.39
29.12
32.05
33.97
34.74
34.56
33.81
32.88
32.06
31.47
31.04
30.63
30.13
29.53
29.04
28.89
29.24
30.03
30.97
31.67
31.87
31.51
30.84
30.21
29.84
29.67
29.36
28.41
26.49
23.58
20.04
16.41
13.22
10.72
8.91
7.61
6.70
6.17
6.14
6.62
7.37
7.93
7.77
6.68
4.91
3.13
2.08
2.16
3.23
4.73
6.07
6.96
7.56
8.29
9.53
11.39
13.60
15.83
17.93
20.01
22.27
24.82
27.46
29.66
30.81
30.36
28.13
24.38
19.53
13.92
7.65
0.56
-7.57
-16.92
-27.52
-38.95
-50.43
-61.09
-70.29
-77.88
-84.12
-89.38
-93.98
-97.95
-100.83
-101.77
-100.24
-96.31
-90.84
-85.02
-79.68
-74.97
-70.54
-65.45
-58.52
-49.08
-36.88
-21.97
-4.38
16.31
40.68
66.70
89.49
104.08
108.93
106.61
100.68
93.08
83.93
72.33
57.38
39.52
22.64
8.58
-0.68
-4.22
-2.92
1.02
4.82
6.17
4.17
-0.35
-5.69
-10.80
-14.35
-15.82
-15.24
-12.94
-9.31
-4.63
1.00
7.10
13.15
18.46
21.79
22.55
21.35
19.75
19.54
21.93
27.11
34.71
43.98
52.87
59.62
63.50
64.60
63.22
59.61
54.33
48.74
44.76
42.39
41.35
41.98
44.84
49.52
53.91
54.76
48.67
33.12
4.86
-36.69
-88.00
-142.70
-194.21
-238.03
-271.83
-295.00
-293.43
-260.34
-203.02
-138.57
-81.06
-35.03
1.42
32.17
59.77
84.34
101.71
107.93
104.06
93.29
80.51
70.04
64.69
65.08
70.02
75.69
78.91
79.12
77.91
77.56
78.11
79.17
80.00
80.04
78.16
74.01
68.40
62.50
57.01
51.38
44.51
35.35
23.49
8.93
-7.37
-23.53
-37.53
-47.83
-53.99
-56.34
-55.69
-52.84
-48.52
-43.11
-36.72
-29.49
-21.74
-14.00
-6.78
-0.51
4.60
8.45
10.98
12.13
11.84
10.18
7.41
3.96
0.28
-3.32
-6.69
-9.80
-12.67
-15.31
-17.73
-20.00
-22.24
-24.64
-27.38
-30.53
-34.05
-37.73
-41.31
-44.55
-47.22
-49.14
-50.14
-50.09
-48.88
-46.54
-43.20
-39.14
-34.73
-30.35
-26.25
-22.54
-19.15
-15.87
-12.54
-9.11
-5.69
-2.47
0.34
2.68
4.64
6.31
7.69
8.54
8.49
7.16
4.42
0.46
-4.24
-9.03
-13.30
-16.65
-18.97
-20.34
-21.06
-21.48
-21.86
-22.35
-22.88
-23.19
-22.99
-22.00
-20.16
-17.57
-14.48
-11.20
-8.04
-5.25
-2.99
-1.31
-0.17
0.59
1.15
1.64
2.12
2.56
2.95
3.28
3.60
3.95
4.33
4.67
4.85
4.84
4.65
4.37
4.06
3.73
3.31
2.67
1.71
0.36
-1.41
-3.61
-6.21
-9.17
-12.34
-15.42
-18.00
-19.66
-20.06
-19.04
-16.70
