1698339305.00
64.000000
-0.00
-0.00
-0.00
-0.00
-0.00
-0.00
-0.00
-0.00
-0.00
-0.00
0.00
0.01
0.01
-0.00
-0.03
-0.05
-0.05
0.00
0.13
0.36
0.66
1.01
1.37
1.72
2.06
2.40
2.79
3.24
3.80
4.42
5.06
5.66
6.20
6.68
7.15
7.68
8.31
9.14
10.09
11.04
11.88
12.56
13.14
13.76
14.65
15.96
17.91
20.32
22.90
25.38
27.58
29.57
31.68
34.32
37.81
42.54
48.15
54.10
59.83
64.97
69.58
74.14
79.34
85.71
93.76
103.00
112.62
121.73
129.77
136.75
143.30
150.75
157.77
166.64
177.95
191.79
206.97
220.57
228.25
225.36
208.53
176.87
132.76
80.05
23.07
-34.94
-92.44
-149.16
-205.23
-260.37
-313.74
-363.87
-409.83
-450.91
-486.50
-515.74
-537.23
-549.22
-549.96
-538.37
-514.21
-478.67
-433.88
-382.45
-327.02
-269.84
-212.63
-156.66
-102.95
-52.37
-5.90
35.58
71.43
101.35
125.50
144.38
158.69
169.15
176.37
180.75
182.57
182.07
179.51
175.23
169.65
163.18
156.15
148.81
141.30
133.69
126.02
118.33
110.69
103.16
95.80
88.68
81.83
75.25
68.95
62.95
57.25
51.86
46.78
42.03
37.59
33.45
29.61
26.07
22.81
19.83
17.11
14.67
12.48
10.54
8.84
7.35
6.07
4.97
4.04
3.26
2.62
2.10
1.68
1.33
1.03
0.76
0.51
0.28
0.09
-0.06
-0.15
-0.20
-0.24
-0.28
-0.35
-0.43
-0.51
-0.57
-0.57
-0.51
-0.43
-0.35
-0.34
-0.43
-0.61
-0.82
-0.99
-1.04
-0.96
-0.81
-0.70
-0.77
-1.07
-1.60
-2.20
-2.70
-2.92
-2.83
-2.54
-2.32
-2.42
-3.01
-4.02
-5.21
-6.19
-6.67
-6.53
-6.01
-5.54
-5.59
-6.42
-7.94
-9.70
-11.09
-11.69
-11.41
-10.55
-9.70
-9.38
-9.90
-11.33
-13.60
-16.46
-19.35
-21.17
-20.43
-15.82
-6.92
5.49
19.43
32.55
43.13
50.63
55.56
58.75
60.56
60.50
57.63
51.17
41.13
28.62
15.14
2.51
-7.69
-14.72
-18.75
-20.95
-22.99
-26.30
-31.39
-37.41
-42.39
-44.25
-42.06
-36.63
-30.18
-25.30
-23.58
-25.08
-28.43
-31.65
-33.10
-32.10
-28.56
-22.36
-13.33
-1.44
12.49
26.80
39.35
48.44
53.30
54.64
54.52
55.15
58.39
65.00
74.79
86.05
97.85
109.20
119.55
128.85
136.28
141.13
139.34
126.89
101.69
64.93
20.98
-23.72
-62.69
-92.48
-113.00
-125.17
-132.72
-138.12
-141.69
-142.48
-141.25
-137.01
-130.79
-124.32
-119.13
-116.03
-114.57
-113.74
-112.45
-109.66
-103.96
-94.51
-80.80
-63.14
-42.81
-21.67
-1.79
15.07
27.95
37.30
43.90
48.83
53.22
58.16
64.91
74.74
88.65
105.26
122.79
138.69
150.50
156.60
156.68
151.78
143.59
133.72
123.16
112.52
101.72
90.50
78.69
66.49
54.60
44.09
35.86
30.18
26.41
22.87
17.40
8.29
-4.93
-21.21
-38.53
-54.73
-68.60
-80.18
-90.72
-102.00
-115.46
-131.65
-150.08
-169.52
-188.34
-204.63
-215.94
-219.29
-211.54
-190.59
-156.60
-112.57
-63.84
-16.25
25.80
60.61
89.03
112.82
132.78
147.80
155.43
153.64
142.53
124.70
104.33
85.31
69.70
57.30
46.25
34.60
21.51
7.91
-4.24
-13.16
-18.39
-21.17
-23.99
-29.63
-40.14
-56.16
-76.57
-99.15
-121.50
-141.64
-158.27
-170.47
-177.44
-178.35
-172.46
-158.96
-138.36
-113.07
-87.00
-64.22
-47.64
-38.38
-35.94
-38.81
-43.88
-48.76
-52.24
-54.12
-53.88
-50.21
-41.79
-28.47
-12.00
6.51
24.66
39.89
50.18
55.69
59.18
64.25
73.53
87.85
109.56
139.26
176.10
216.67
256.61
291.84
318.91
335.59
323.57
275.72
201.66
124.96
65.35
29.61
14.02
10.58
11.76
12.91
18.83
30.37
47.63
67.72
87.19
104.23
119.51
135.59
155.88
185.50
218.97
249.97
269.40
269.33
246.47
202.93
144.50
78.11
11.17
-51.65
-106.81
-152.80
-188.64
-213.62
-227.96
-233.52
-233.07
-228.39
-220.51
-208.77
-192.97
-173.77
-153.11
-133.69
-118.38
-109.04
-105.79
-108.00
-114.32
-123.55
-134.55
-146.50
-158.50
-170.53
-182.80
-194.92
-206.36
-215.83
-220.75
-217.52
-203.09
-176.00
-138.90
-97.18
-56.14
-19.40
12.28
42.44
77.17
121.19
175.71
235.04
289.36
329.29
347.89
341.12
309.54
257.30
189.42
111.11
24.61
-69.10
-160.19
-232.81
-276.68
-291.44
-282.37
-267.40
-248.06
-225.19
-202.52
-184.54
-168.07
-153.73
-140.03
-122.23
-94.44
-51.31
11.50
87.83
163.28
220.95
248.34
243.19
212.64
175.42
140.58
112.82
93.44
82.38
78.86
81.28
86.42
93.24
101.64
110.85
119.05
122.39
117.22
101.95
77.73
49.05
22.49
3.28
-7.29
-11.07
-12.00
-13.04
-14.64
-15.23
-12.43
-4.33
9.13
25.81
42.95
57.55
67.14
70.13
65.76
54.26
37.19
16.84
-4.61
-25.02
-42.66
-56.36
-65.73
-71.48
-75.46
-80.13
-85.77
-91.85
-96.58
-97.82
-94.53
-87.52
-79.18
-72.32
-68.00
-67.03
-66.48
-62.42
-50.37
-26.80
9.70
57.78
113.80
173.79
228.54
267.07
279.71
261.51
213.66
142.97
60.38
-21.85
-90.99
-133.15
-143.75
-132.54
-116.45
-108.80
-113.18
-124.30
-136.00
-139.19
-130.54
-112.97
-93.12
-77.69
-71.10
-75.02
-87.01
-103.58
-117.61
-122.81
-115.08
-93.30
-59.18
-16.85
28.37
71.35
107.30
141.17
175.97
211.80
245.19
269.69
278.30
266.44
233.21
182.54
123.69
63.19
4.14
-51.12
-98.70
-132.70
-147.88
-145.37
-133.42
-122.57
-125.34
-148.31
-187.13
-228.94
-259.21
-259.97
-225.76
-177.40
-128.06
-81.36
-39.70
-4.41
21.86
35.12
33.09
15.27
-12.19
-37.28
-50.19
-44.35
-17.48
26.14
75.58
117.19
136.21
126.86
94.27
50.49
13.71
2.40
26.95
85.43
168.05
258.85
347.66
430.07
485.81
495.98
456.54
383.57
300.95
242.09
204.41
180.36
162.24
143.53
118.49
89.31
62.10
40.87
30.63
26.49
22.49
11.26
-12.90
-48.91
-89.30
-124.49
-151.13
-165.92
-176.09
-187.84
-205.04
-227.92
-252.45
-272.97
-270.71
-263.36
-249.02
-233.86
-223.05
-220.58
-228.82
-248.05
-276.91
-311.41
-350.29
-366.75
-344.08
-281.63
-196.98
-112.03
-39.82
10.64
49.32
80.84
108.64
127.36
131.22
119.40
95.57
67.21
42.47
28.68
27.08
38.07
56.18
75.40
91.73
104.02
112.93
118.70
121.34
118.46
109.56
93.45
70.33
41.79
10.17
-22.34
-54.34
-84.10
-110.57
-131.61
-145.95
-152.97
-152.82
-146.17
-133.88
-116.93
-95.79
-70.98
-42.86
-12.41
18.75
48.36
74.16
94.69
109.71
120.38
128.40
135.40
142.52
150.51
160.06
171.97
186.83
204.19
222.09
237.22
246.09
246.38
237.82
221.93
200.84
176.06
148.01
116.70
82.85
48.62
17.23
-8.39
-26.97
-39.35
-47.77
-54.46
-60.29
-64.50
-65.59
-62.74
-56.95
-50.94
-48.18
-51.24
-60.72
-74.90
-90.66
-104.91
-115.94
-123.95
-130.39
-136.62
-142.49
-146.02
-144.12
-134.16
-115.28
-88.88
-58.04
-26.24
3.63
29.66
50.62
65.56
73.72
75.07
70.66
62.33
51.76
39.39
24.19
4.63
-19.66
-46.60
-71.82
-90.26
-98.52
-96.32
-86.59
-73.99
-62.85
-55.66
-52.86
-53.56
-56.55
-60.87
-65.88
-71.03
-75.79
-79.69
-82.48
-84.23
-85.31
-86.17
-87.06
-87.76
-87.32
-84.14
-76.29
-62.27
-41.79
-16.21
11.67
38.49
61.34
78.59
90.02
96.39
98.72
97.83
94.24
88.40
80.94
72.75
64.81
57.87
52.33
48.24
45.44
43.75
43.01
42.97
43.22
43.16
41.90
38.52
32.35
23.17
11.46
-1.70
-14.92
-26.82
-36.50
-43.70
-48.76
-52.47
-55.73
-59.34
-63.88
-69.48
-75.77
-81.70
-85.55
-85.25
-78.89
-65.45
-45.26
-20.12
7.13
33.34
55.86
73.05
84.38
90.20
91.16
88.03
81.45
72.14
61.03
49.27
38.06
28.32
20.45
14.27
9.25
4.84
0.87
-2.41
-4.47
-4.85
-3.50
-0.93
1.89
3.87
4.21
2.66
-0.38
-4.15
-7.90
-11.28
-14.49
-18.17
-23.03
-29.40
-36.94
-44.63
-50.92
-54.13
-52.77
-45.87
-33.15
-15.06
7.23
31.91
56.76
79.45
97.94
110.79
117.43
118.10
113.65
105.20
93.94
81.01
67.44
54.18
42.06
31.71
23.39
17.04
12.35
8.94
6.50
4.83
3.71
2.82
1.68
-0.21
-3.18
-7.26
-12.23
-17.70
-23.37
-29.17
-35.28
-41.99
-49.54
-57.84
-66.31
-73.74
-78.44
-78.52
-72.36
-59.27
-39.82
-15.93
9.51
33.39
53.09
67.07
75.02
77.62
76.05
71.56
65.13
57.39
48.78
39.65
30.45
21.73
14.04
7.82
3.21
0.01
-2.29
-4.37
-6.95
-10.65
-15.81
-22.43
-30.13
-38.21
-45.87
-52.47
-57.83
-62.44
-67.33
-73.76
-82.48
-93.18
-104.16
-112.54
-115.07
-109.25
-94.25
-71.40
-43.92
-15.99
8.43
26.60
37.52
41.98
42.06
40.51
40.04
42.71
49.57
60.52
74.48
89.80
104.79
118.19
129.35
138.14
144.68
149.05
151.14
150.70
147.47
141.37
132.45
120.71
105.97
87.85
65.99
40.42
11.95
-17.79
-46.71
-72.83
-94.74
-111.66
-123.08
-128.51
-127.39
-119.26
-104.25
-83.67
-60.17
-37.28
-18.60
-6.89
-3.81
-9.99
-25.36
-49.27
-80.35
-116.19
-153.21
-186.80
-211.90
-224.23
-221.09
-201.60
-166.45
-117.88
-59.74
2.70
63.17
115.98
156.45
182.29
194.52
197.32
195.78
193.41
190.61
184.48
171.23
146.17
105.99
50.95
-13.70
-79.58
-137.99
-181.90
-207.20
-211.13
-195.13
-163.90
-122.71
-74.50
-20.03
40.77
107.94
179.91
254.75
325.00
378.67
404.05
395.63
354.74
287.27
201.12
92.27
-27.08
-135.43
-214.25
-262.47
-287.00
-293.64
-289.15
-276.54
-261.68
-246.66
-232.30
-218.27
-202.98
-183.56
-158.57
-126.79
-91.67
-57.59
-23.94
10.62
44.94
75.11
97.66
111.56
118.25
122.03
127.40
137.98
151.98
162.78
162.75
147.95
122.93
90.66
56.73
26.64
4.28
-10.40
-20.60
-30.15
-40.75
-51.13
-58.70
-60.28
-54.11
-40.21
-20.37
3.00
28.21
53.78
78.16
99.38
116.03
127.14
132.28
131.30
124.07
110.19
89.44
62.39
30.65
-3.25
-37.31
-70.54
-102.54
-132.25
-157.46
-174.81
-181.34
-175.79
-159.36
-135.76
-109.63
-85.00
-64.33
-49.42
-41.20
-39.75
-42.67
-45.00
-40.82
-25.50
2.08
39.24
79.78
117.69
145.10
157.27
155.80
146.52
135.10
124.09
115.01
103.41
85.26
58.78
26.21
-7.14
-35.27
-50.42
-47.81
-26.17
8.21
44.70
71.96
82.81
76.14
56.19
30.97
8.66
-3.61
-6.24
-5.03
-8.30
-22.73
-51.54
-94.31
-147.12
-204.98
-248.44
-261.68
-242.07
-203.47
-164.59
-136.42
-119.49
-107.61
-101.41
-95.46
-90.78
-91.49
-100.22
-115.59
-133.26
-149.59
-157.18
-155.86
-146.09
-131.17
-114.44
-97.39
-79.79
-60.59
-39.62
-16.76
7.13
34.74
69.27
110.64
155.39
197.29
229.45
245.79
249.83
241.81
224.41
201.93
180.10
165.16
158.48
160.65
167.43
171.14
163.17
140.67
106.82
68.64
33.47
5.97
-11.96
-20.19
-17.80
-3.55
23.95
62.73
105.90
143.36
165.91
169.29
154.48
125.89
87.47
41.61
-10.95
-69.06
-128.97
-183.84
-224.99
-244.83
-239.29
-209.46
-160.95
-102.62
-44.36
5.68
43.10
68.03
83.73
94.13
101.72
106.82
108.41
105.90
100.25
93.68
88.15
83.40
76.67
63.96
42.49
12.82
-20.98
-52.89
-77.69
-93.08
-100.51
-104.06
-108.27
-116.07
-127.79
-141.58
-154.81
-165.70
-174.12
-181.34
-189.05
-198.17
-208.28
-217.72
-224.24
-225.73
-220.72
-208.47
-188.96
-162.86
-131.53
-96.85
-61.09
-26.45
5.24
32.61
54.77
71.21
81.68
86.28
85.56
80.54
72.49
62.70
52.34
42.33
33.41
26.10
20.79
17.56
16.20
16.16
16.73
17.17
16.90
15.58
13.16
9.91
6.33
3.04
0.61
-0.72
-1.22
-1.72
-3.39
-7.28
-13.77
-22.15
-30.56
-36.21
-36.14
-28.00
-10.84
14.56
45.77
79.25
111.19
138.31
158.39
170.41
174.42
171.15
161.73
147.46
129.70
109.75
88.85
68.03
48.13
29.76
13.24
-1.23
-13.61
-23.92
-32.25
-38.81
-43.96
-48.21
-52.18
-56.46
-61.37
-66.95
-72.93
-79.00
-85.01
-91.11
-97.71
-105.20
-113.60
-122.16
-129.34
-132.99
-130.82
-121.16
-103.51
-78.82
-49.33
-17.97
12.32
39.08
60.63
76.04
85.03
87.93
85.55
79.17
70.32
60.47
50.91
42.77
37.17
35.34
38.52
47.59
62.60
82.59
105.79
130.26
154.35
176.83
196.41
211.32
219.07
216.93
202.86
176.44
139.20
94.26
45.41
-3.60
-49.25
-88.24
-117.21
-132.97
-133.08
-116.80
-85.68
-43.68
3.59
50.00
90.20
120.49
139.00
145.29
139.60
122.35
94.20
56.62
12.62
-33.19
-75.34
-108.98
-131.42
-142.74
-145.29
-142.26
-136.37
-129.11
-120.90
-111.66
-101.44
-90.65
-79.73
-68.97
-58.51
-48.43
-38.89
-30.07
-21.79
-13.31
-3.36
9.39
25.74
45.58
67.91
91.17
113.69
134.19
151.89
166.52
178.17
186.88
192.52
194.90
193.84
189.35
181.44
169.95
154.38
134.38
109.70
80.85
49.40
17.44
-13.04
-40.92
-66.41
-90.64
-114.42
-138.18
-161.46
-182.62
-199.54
-210.02
-212.71
-207.94
-198.05
-186.38
-177.38
-174.82
-180.42
-192.47
-206.68
-217.87
-223.18
-226.40
-230.81
-238.62
-249.82
-258.65
-258.15
-241.62
-205.39
-150.68
-83.35
-11.33
56.98
115.37
160.94
194.03
217.68
236.22
254.01
274.68
300.26
328.66
353.33
364.42
353.66
319.56
269.49
217.63
180.14
168.60
184.18
217.45
251.77
271.62
268.43
241.73
196.86
141.99
85.22
31.42
-18.13
-66.28
-115.02
-163.05
-204.95
-232.40
-236.52
-212.12
-162.81
-95.25
-28.92
13.41
21.22
6.07
-8.79
-5.40
19.36
50.04
67.87
59.61
27.21
-18.21
-63.31
-99.57
-124.24
-140.15
-154.43
-172.66
-197.27
-223.47
-247.32
-267.38
-285.01
-300.92
-299.53
-267.60
-203.12
-136.50
-79.87
-38.14
-9.61
4.35
5.11
-2.01
-10.76
-15.07
-11.52
2.72
25.58
52.80
80.37
106.83
132.68
157.17
177.03
185.86
173.71
133.74
71.13
4.29
-45.66
-71.25
-75.50
-68.22
-58.89
-55.74
-63.18
-80.00
-100.48
-118.65
-131.36
-137.84
-138.04
-131.14
-115.25
-88.68
-52.13
-9.28
32.28
63.46
73.49
57.94
24.22
-12.81
-37.84
-50.80
-56.41
-59.67
-65.31
-73.59
-81.24
-84.45
-82.33
-77.35
-74.29
-76.64
-86.14
-102.21
-121.38
-138.35
-148.13
-148.24
-138.84
-122.07
-99.48
-72.13
-40.32
-3.38
39.74
88.62
139.89
187.36
223.91
244.86
249.18
239.61
221.67
201.60
184.51
173.45
169.87
174.64
188.71
212.13
242.75
275.59
303.84
320.84
322.16
306.62
276.06
234.41
186.52
137.68
93.72
61.10
45.69
50.77
75.11
111.87
150.52
179.86
191.90
184.22
160.46
127.92
93.83
62.46
34.14
6.68
-22.45
-54.46
-88.80
-123.09
-154.35
-180.09
-198.72
-209.72
-212.91
-208.23
-195.08
-174.23
-148.55
-121.64
-95.73
-69.59
-42.37
-13.64
17.10
50.73
84.79
116.28
141.70
157.48
161.87
154.53
136.14
107.71
70.15
24.01
-29.42
-88.01
-149.22
-209.40
-265.98
-318.12
-366.09
-409.37
-445.68
-470.85
-480.05
-469.82
-437.28
-382.37
-308.66
-222.42
-130.62
-39.68
45.40
121.74
179.83
213.64
225.47
223.28
214.00
200.93
184.70
165.13
145.90
126.98
110.67
99.26
93.24
91.39
92.44
95.76
100.98
106.42
110.65
114.49
119.57
126.90
133.07
134.84
129.20
113.04
85.20
47.95
8.32
-24.65
-43.74
-45.95
-35.55
-15.90
8.83
34.79
59.06
80.51
98.97
114.73
128.33
141.19
155.68
172.49
190.40
206.10
214.98
212.29
194.70
161.89
117.27
67.42
19.41
-20.90
-50.43
-69.63
-81.97
-92.54
-106.18
-125.76
-151.22
-180.29
-209.17
-233.75
-251.13
-260.17
-261.65
-257.72
-251.16
-244.36
-238.98
-235.58
-233.85
-233.19
-232.63
-230.79
-226.14
-217.45
-204.05
-186.29
-165.77
-144.71
-126.07
-111.59
-101.06
-92.70
-84.45
-75.06
-64.73
-55.07
-48.01
-46.06
-49.78
-57.38
-65.59
-71.44
-73.16
-70.59
-65.10
-58.68
-54.81
-55.42
-59.93
-65.47
-68.47
-65.60
-54.99
-36.95
-4.51
40.67
89.36
129.84
155.77
167.99
171.40
172.91
174.46
175.45
172.62
164.18
150.11
132.32
110.12
83.77
50.50
9.99
-32.43
-70.58
-99.33
-119.45
-132.17
-137.01
-132.08
-115.56
-88.33
-52.03
-9.45
37.80
88.09
134.23
167.61
183.07
197.13
215.93
240.93
261.82
273.63
274.80
268.14
260.62
260.99
276.15
305.61
344.89
386.33
421.57
442.24
443.29
424.77
391.22
349.26
302.00
251.48
199.24
145.12
87.07
24.59
-39.60
-99.89
-149.56
-185.95
-207.56
-211.88
-200.91
-182.39
-165.41
-157.49
-161.83
-176.23
-197.71
-220.10
-232.31
-229.39
-214.60
-194.18
-174.79
-161.63
-157.77
-168.44
-195.58
-231.03
-268.07
-303.71
-334.67
-358.34
-373.50
-355.69
-296.37
-239.29
-201.02
-174.27
-158.54
-153.69
-158.98
-172.71
-192.36
-218.52
-249.43
-272.87
-280.27
-270.67
-246.71
-212.93
-173.25
-129.34
-83.11
-33.54
28.45
106.10
192.82
277.71
350.14
403.23
434.62
443.71
433.30
415.30
401.04
396.48
403.60
420.84
443.36
463.43
471.42
441.73
366.12
260.26
153.48
68.64
11.52
-24.62
-50.10
-72.75
-95.09
-113.64
-122.91
-123.28
-119.91
-118.81
-123.42
-133.59
-146.47
-158.36
-164.70
-160.41
-148.35
-135.65
-129.22
-132.38
-143.81
-158.49
-169.74
-170.14
-155.58
-128.18
-94.54
-62.36
-37.23
-20.82
-10.82
-1.80
13.83
42.88
88.09
147.27
213.29
275.45
322.18
344.62
339.75
311.84
270.60
226.92
189.41
162.31
145.41
135.85
130.04
124.80
117.53
105.76
87.14
60.26
25.54
-14.36
-55.26
-92.78
-123.97
-148.32
-167.65
-185.31
-204.64
-227.64
-254.00
-281.06
-304.42
-319.17
-321.30
-308.90
-282.71
-245.94
-203.26
-159.58
-118.82
-83.23
-53.36
-28.54
-7.68
10.15
25.34
37.73
46.97
52.89
55.82
56.55
56.15
55.54
55.19
55.04
54.59
53.23
50.49
46.16
40.16
32.52
23.23
12.39
0.39
-11.94
-23.32
-32.39
-38.14
-40.53
-40.58
-40.15
-41.30
-45.44
-52.84
-62.55
-72.75
-81.30
-86.16
-85.68
-78.63
-64.46
-43.54
-17.56
10.58
37.13
58.35
71.31
74.37
67.10
50.06
24.46
-7.92
-44.67
-82.84
-119.32
-151.45
-177.62
-197.51
-211.90
-222.22
-229.95
-236.38
-242.42
-248.66
-255.16
-261.00
-264.35
-262.67
-253.16
-233.91
-205.29
-170.73
-136.10
-107.72
-89.49
-81.58
-80.40
-80.23
-75.60
-63.35
-43.39
-17.91
10.21
39.32
68.40
96.42
122.12
144.27
161.98
174.99
183.75
189.39
195.19
203.17
212.99
222.64
230.04
234.04
234.59
232.79
230.52
233.43
243.96
259.78
276.19
289.96
301.09
311.83
324.97
342.13
369.11
406.43
448.32
487.28
519.34
545.12
567.18
587.54
606.32
629.65
657.52
681.52
689.94
674.73
633.80
569.48
486.63
342.58
136.05
-93.96
-296.23
-442.03
-530.86
-576.35
-594.37
-597.08
-591.52
-575.38
-544.85
-503.56
-459.68
-419.73
-386.44
-360.11
-339.39
-321.89
-298.72
-264.90
-224.28
-184.83
-153.14
-132.85
-125.97
-133.00
-153.94
-180.28
-200.42
-207.89
-203.25
-189.69
-168.65
-143.73
-119.25
-98.52
-80.52
-63.37
-46.77
-31.26
-17.04
-3.69
9.31
23.05
38.77
57.91
79.95
101.75
119.26
129.47
131.29
125.53
115.17
104.54
98.08
98.60
106.17
118.54
132.11
142.97
147.70
144.26
132.22
112.50
86.65
56.21
22.40
-13.80
-51.66
-90.38
-128.69
-164.87
-196.94
-223.00
-241.63
-251.94
-253.50
-246.30
-230.80
-208.26
-180.94
-151.92
-124.02
-98.12
-71.75
-39.32
5.59
66.60
141.24
220.25
290.29
339.13
360.64
356.91
336.60
310.76
288.84
276.35
274.27
280.25
289.74
296.68
294.48
276.94
239.79
182.61
109.66
28.81
-50.23
-118.03
-168.23
-199.27
-216.16
-229.52
-251.08
-288.18
-340.21
-397.85
-446.13
-470.98
-463.84
-425.16
-362.82
-286.89
-205.02
-121.89
-40.22
37.60
107.92
167.69
214.64
244.44
254.53
249.23
238.34
230.18
230.63
231.65
222.79
196.31
150.10
86.98
17.24
-47.78
-100.41
-138.68
-166.11
-187.48
-207.14
-227.73
-249.78
-272.61
-296.27
-320.97
-345.08
-364.26
-370.97
-357.93
-321.45
-263.12
-189.21
-109.11
-31.98
36.13
93.38
142.18
186.48
229.36
271.45
310.68
342.73
362.58
366.41
352.74
322.63
278.27
222.20
157.65
89.52
24.66
-29.43
-67.55
-89.69
-101.40
-111.00
-124.91
-144.06
-163.53
-175.87
-175.68
-162.25
-138.86
-109.77
-77.54
-42.65
-5.40
31.41
62.02
79.90
81.63
69.36
49.90
31.48
20.27
19.02
28.28
48.36
79.85
122.10
170.94
217.42
249.81
258.06
238.39
195.47
140.43
85.98
41.33
9.20
-13.49
-32.30
-52.05
-75.19
-101.79
-130.63
-160.31
-189.95
-219.16
-248.01
-276.82
-306.12
-336.23
-366.54
-394.93
-417.78
-430.95
-431.42
-418.58
-394.41
-362.35
-325.64
-285.87
-242.97
-196.07
-144.61
-88.94
-29.88
31.57
94.31
156.53
214.93
264.54
299.62
315.56
310.97
289.06
257.25
225.22
202.36
195.50
208.16
240.99
292.64
360.13
438.37
519.54
593.39
649.24
679.06
680.24
656.50
616.11
568.33
519.89
473.10
426.60
377.51
323.40
263.30
197.53
127.39
55.43
-14.04
-75.11
-121.74
-150.18
-161.00
-159.43
-153.60
-151.49
-158.16
-174.62
-198.59
-226.43
-254.74
-281.10
-303.66
-320.46
-329.50
-329.44
-320.49
-304.68
-285.19
-265.16
-246.45
-228.92
-210.83
-190.13
-166.07
-140.48
-117.76
-103.32
-101.08
-111.27
-129.41
-147.13
-154.86
-145.16
-115.55
-69.04
-12.72
45.02
97.01
138.38
166.92
182.19
184.49
174.41
153.14
123.12
88.19
52.59
19.55
-8.74
-31.46
-49.00
-62.75
-74.37
-85.13
-95.66
-106.66
-119.37
-134.15
-150.29
-166.22
-180.49
-192.34
-201.70
-208.69
-214.33
-220.03
-225.56
-228.83
-226.83
-217.15
-198.58
-170.63
-132.63
-76.56
-2.45
80.25
156.98
216.65
254.91
272.51
272.82
265.86
253.70
235.87
212.77
186.21
159.07
133.78
111.87
92.15
75.22
60.72
47.99
37.18
29.53
27.17
31.63
43.29
61.32
83.93
106.94
125.93
138.07
142.89
142.30
138.10
131.35
122.28
110.34
93.09
68.69
37.42
2.11
-31.87
-60.58
-81.37
-92.76
-94.81
-90.54
-83.62
-76.68
-70.50
-62.96
-53.85
-43.52
-32.41
-22.02
-16.54
-20.40
-36.37
-64.24
-99.37
-138.98
-180.63
-221.93
-247.72
-246.66
-218.50
-174.62
-142.12
-122.43
-111.69
-106.62
-99.78
-89.88
-80.13
-75.05
-77.66
-87.61
-99.77
-110.85
-118.20
-119.54
-113.70
-100.77
-81.48
-56.42
-25.56
12.44
55.40
99.43
140.00
172.80
194.67
203.73
199.77
184.51
161.82
134.44
104.51
74.30
44.88
21.95
12.38
18.71
36.33
56.45
69.90
73.94
68.83
56.93
41.48
24.25
5.15
-16.68
-42.52
-71.41
-101.25
-129.96
-155.72
-177.22
-194.95
-210.76
-226.64
-243.33
-259.60
-272.75
-279.79
-277.95
-265.55
-242.93
-212.34
-176.80
-138.87
-99.95
-60.54
-20.82
19.21
59.48
99.52
138.53
175.70
210.32
241.66
268.45
288.93
301.30
304.55
298.85
285.77
268.10
249.47
233.79
224.50
223.52
230.26
240.94
248.93
246.55
227.76
190.42
137.19
74.05
7.63
-57.18
-117.82
-172.80
-219.75
-254.68
-273.26
-273.43
-257.46
-231.87
-205.02
-183.60
-170.14
-162.68
-156.36
-146.23
-129.16
-104.62
-73.91
-39.03
-1.67
36.99
76.03
114.39
150.48
182.43
208.39
227.26
238.95
244.44
245.24
242.80
238.13
231.92
224.94
218.27
213.21
210.75
211.15
213.76
217.28
220.32
221.74
220.75
216.72
209.18
198.00
183.80
168.24
153.88
143.45
139.14
141.83
150.84
164.17
179.00
192.31
201.42
204.30
199.61
186.54
164.64
133.70
94.03
46.67
-6.24
-61.58
-115.64
-164.97
-207.03
-240.58
-265.67
-283.35
-295.07
-302.28
-306.01
-306.92
-305.48
-302.44
-299.21
-297.87
-300.88
-310.28
-326.84
-349.36
-374.55
-397.65
-413.57
-418.13
-409.10
-386.55
-352.49
-310.01
-262.50
-213.00
-164.07
-117.96
-76.81
-42.58
-16.66
0.64
10.29
14.39
15.52
15.93
17.07
19.49
23.15
27.86
33.64
40.75
49.45
59.68
70.89
82.06
92.06
100.04
105.73
109.42
111.72
113.18
114.01
113.98
112.54
109.09
103.18
94.67
83.84
71.37
58.42
46.53
37.46
32.75
33.38
39.34
49.63
62.47
75.77
87.57
96.33
101.04
101.08
96.32
86.93
73.55
57.20
39.20
20.89
3.45
-12.21
-25.49
-36.00
-43.61
-48.46
-51.03
-52.10
-52.68
-53.80
-56.35
-60.92
-67.74
-76.72
-87.46
-99.42
-112.00
-124.68
-137.08
-148.91
-159.75
-168.81
-174.76
-175.77
-169.91
-155.75
-132.96
-102.62
-67.13
-29.60
6.96
40.24
68.99
92.78
111.65
125.72
135.01
139.61
139.68
135.61
127.83
116.71
102.46
85.25
65.31
43.13
19.38
-5.21
-29.97
-54.36
-77.85
-99.92
-119.83
-136.70
-149.53
-157.38
-159.67
-156.32
-147.87
-135.31
-119.70
-101.76
-81.57
-58.68
-32.49
-2.78
29.84
63.96
97.55
128.51
155.07
176.00
190.63
198.66
200.17
195.45
185.17
170.37
152.42
132.86
113.13
94.39
77.38
62.44
49.63
38.89
30.17
23.42
18.62
15.58
14.00
13.45
13.48
13.71
14.02
14.36
14.82
15.37
15.76
15.48
13.88
10.36
4.60
-3.12
-11.94
-20.50
-27.25
-30.94
-30.91
-27.29
-20.84
-12.67
-3.88
4.75
12.86
20.47
27.83
35.20
42.65
49.94
56.49
61.60
64.59
65.13
63.31
59.52
54.35
48.34
41.83
35.00
27.94
20.71
13.43
6.24
-0.69
-7.23
-13.28
-18.88
-24.21
-29.62
-35.57
-42.38
-50.02
-57.91
-64.91
-69.54
-70.32
-66.20
-56.97
-43.32
-26.72
-9.07
7.66
21.90
32.59
39.31
42.19
41.84
39.26
35.61
32.01
29.34
28.08
28.24
29.54
31.52
33.73
35.76
37.33
38.18
38.17
37.16
35.09
31.90
27.60
22.33
16.43
10.42
4.86
0.25
-3.23
-5.71
-7.60
-9.32
-11.12
-12.84
-13.94
-13.58
-10.90
-5.28
3.44
14.84
27.98
41.60
54.43
65.36
73.63
78.91
81.22
80.84
78.20
73.72
67.76
60.57
52.28
43.00
32.99
22.68
12.72
3.88
-3.17
-8.07
-10.86
-11.95
-11.92
-11.22
-10.10
-8.63
-6.87
-5.26
-4.69
-6.48
-12.09
-22.81
-39.29
-61.21
-87.16
-114.65
-140.37
-160.54
-171.50
-170.54
-156.90
-132.34
-101.05
-68.69
-40.74
-21.00
-10.57
-7.97
-10.23
-14.11
-16.95
-16.88
-12.55
-3.10
11.40
29.66
49.09
66.32
78.34
83.65
82.90
78.53
73.68
70.41
69.33
69.76
70.42
70.04
67.97
64.41
60.22
56.45
53.24
50.15
46.52
41.65
34.75
25.10
12.24
-3.71
-22.01
-42.10
-62.90
-82.51
-98.60
-109.41
-114.46
-114.82
-112.74
-105.23
-91.86
-75.38
-60.10
-49.03
-42.68
-39.70
-37.94
-35.09
-31.66
-27.03
-21.36
-15.35
-9.93
-6.01
-4.20
-4.51
-6.46
-6.99
-4.72
0.73
9.17
19.90
31.76
43.25
52.79
58.98
60.84
57.41
48.47
35.13
19.78
5.51
-4.84
-9.39
-7.72
-0.82
9.03
19.17
27.42
32.44
33.69
31.17
25.25
16.57
5.97
-5.68
-17.62
-29.16
-39.85
-49.39
-57.63
-64.34
-69.17
-71.79
-72.11
-70.38
-67.20
-63.37
-59.71
-56.75
-54.70
-53.50
-52.88
-52.57
-52.49
-52.80
-54.00
-56.85
-62.18
-70.46
-81.50
-94.20
-106.60
-116.26
-120.80
-118.41
-108.28
-90.72
-67.19
-40.05
-12.11
13.93
36.02
53.32
66.35
76.79
86.95
98.98
114.25
132.79
153.21
173.06
189.55
200.36
204.39
201.88
194.21
183.05
169.72
154.79
138.13
119.46
98.78
76.59
53.79
31.21
9.45
-11.35
-31.28
-50.49
-69.04
-86.80
-103.45
-118.44
-130.87
-139.58
-143.29
-141.07
-132.70
-118.97
-101.63
-83.02
-65.45
-50.78
-40.19
-34.17
-32.79
-35.92
-43.24
-54.15
-67.72
-82.73
-97.93
-112.37
-125.59
-137.67
-148.91
-159.53
-169.45
-178.23
-185.23
-189.85
-191.85
-191.48
-189.53
-187.28
-186.27
-187.85
-192.82
-201.00
-211.11
-220.96
-227.93
-229.72
-224.97
-213.41
-195.74
-173.14
-147.05
-118.88
-90.09
-61.99
-35.35
-10.11
14.81
41.22
70.95
105.26
144.53
188.51
236.30
286.00
334.29
376.44
407.38
423.75
425.49
416.10
401.21
386.53
376.05
371.82
374.44
383.76
398.56
415.53
429.10
432.34
419.22
386.53
334.82
267.66
190.42
109.26
30.67
-38.94
-94.16
-131.81
-152.38
-160.10
-161.22
-161.52
-164.33
-170.39
-178.63
-187.63
-195.41
-200.05
-199.65
-192.30
-176.23
-150.47
-116.06
-75.65
-33.60
6.89
43.26
73.14
94.48
105.89
107.13
98.26
80.60
55.55
27.35
0.60
-21.65
-38.36
-50.05
-57.73
-63.39
-67.50
-69.79
-65.20
-47.72
-14.14
34.19
91.78
151.80
207.23
255.11
273.83
250.12
188.57
110.16
36.92
-20.22
-53.27
-71.11
-80.56
-87.44
-92.55
-94.39
-94.76
-94.13
-93.20
-91.52
-89.10
-84.56
-78.43
-68.78
-52.49
-27.18
8.36
51.93
99.89
146.71
186.85
212.03
216.23
197.22
156.64
100.15
33.47
-37.35
-106.68
-160.15
-187.43
-188.18
-170.06
-149.17
-129.65
-114.49
-106.24
-106.91
-113.35
-124.85
-140.36
-157.89
-174.74
-186.82
-191.30
-185.56
-167.82
-138.12
-100.51
-60.75
-24.02
6.27
29.27
44.32
51.82
53.09
50.04
43.55
34.41
23.79
13.20
4.57
-1.29
-4.20
-4.41
-2.36
1.14
5.97
13.08
23.90
39.53
59.23
80.65
100.50
115.72
124.19
125.32
119.84
109.13
94.61
77.32
58.21
38.32
18.95
1.28
-13.76
-25.80
-35.01
-41.82
-46.81
-50.49
-53.38
-55.97
-58.75
-62.06
-66.04
-70.60
-75.57
-80.81
-86.34
-92.27
-98.68
-105.59
-112.72
-119.49
-124.84
-127.25
-124.97
-116.40
-100.79
-78.68
-51.96
-23.38
4.23
28.67
48.76
64.22
75.18
81.76
84.06
82.29
77.08
69.66
61.64
54.57
49.51
46.79
46.08
46.67
47.78
48.76
49.06
48.20
45.76
41.46
35.33
27.72
19.24
10.42
1.45
-7.92
-18.27
-30.10
-43.38
-57.26
-69.98
-79.18
-82.51
-78.18
-65.55
-45.37
-19.58
9.01
37.35
62.71
83.09
97.36
105.26
107.27
104.39
97.89
89.10
79.13
68.86
58.97
50.07
42.82
37.78
35.21
34.91
36.17
37.96
39.30
39.47
38.17
35.38
31.19
25.67
18.83
10.65
1.04
-10.22
-23.47
-39.05
-56.90
-76.17
-94.99
-110.57
-119.84
-120.17
-110.24
-90.40
-62.71
-30.47
2.68
33.28
58.64
77.13
88.25
92.40
90.58
84.00
73.99
62.00
49.35
37.13
26.15
16.93
9.70
4.55
1.32
-0.10
0.47
2.92
6.67
10.79
14.14
15.65
14.54
10.08
2.14
-8.04
-19.22
-30.84
-42.76
-55.25
-68.81
-83.73
-100.43
-118.27
-133.52
-142.26
-141.75
-130.28
-107.76
-75.82
-37.37
2.78
40.20
74.29
104.69
129.86
148.56
159.82
163.10
158.38
144.23
119.51
87.36
50.67
10.98
-29.25
-67.34
-101.42
-120.25
-116.93
-110.96
-112.14
-115.98
-119.85
-121.57
-120.44
-117.33
-113.83
-112.68
-114.89
-116.18
-112.96
-105.02
-93.47
-80.51
-68.17
-57.56
-50.02
-45.73
-41.23
-33.58
-21.76
-5.21
15.77
39.58
63.04
81.45
91.11
92.52
88.33
81.49
74.85
69.51
64.26
56.06
41.98
21.52
-2.12
-24.55
-42.70
-55.68
-64.96
-73.52
-84.45
-98.48
-112.77
-121.94
-120.87
-106.85
-79.89
-41.39
6.65
62.51
119.02
164.18
187.05
183.55
156.98
115.57
69.24
28.78
-6.24
-38.98
-72.66
-108.58
-145.28
-179.37
-207.10
-223.51
-226.09
-216.03
-196.58
-171.93
-145.86
-120.95
-98.70
-79.74
-64.09
-51.98
-43.99
-39.74
-37.71
-35.23
-29.20
-17.23
1.53
26.14
53.80
80.76
104.28
123.36
139.02
153.71
170.44
191.93
220.23
256.14
298.84
345.80
392.42
432.29
458.40
464.94
449.05
411.58
356.51
289.41
215.93
140.90
68.57
3.23
-50.67
-89.50
-111.95
-120.18
-119.58
-117.00
-118.29
-126.49
-141.35
-160.29
-180.22
-198.73
-214.48
-226.65
-234.06
-234.84
-226.90
-209.02
-181.69
-147.31
-109.27
-70.61
-32.63
5.56
46.28
91.83
142.76
197.02
250.14
296.56
331.18
350.73
354.22
342.45
317.34
280.90
234.79
180.37
118.99
52.28
-17.76
-88.50
-156.50
-217.21
-265.37
-296.60
-309.76
-308.74
-302.04
-299.42
-307.05
-323.79
-341.06
-346.67
-330.76
-290.49
-230.89
-161.74
-92.84
-30.49
23.34
69.47
109.31
143.49
171.79
193.60
208.64
217.03
219.28
216.10
208.38
196.80
181.30
160.79
133.46
97.90
54.59
6.62
-40.74
-81.42
-110.66
-126.59
-130.82
-127.61
-121.98
-117.50
-115.07
-112.45
-105.05
-87.81
-56.98
-11.83
44.78
106.84
167.01
217.43
251.75
266.80
263.01
244.34
216.62
185.78
156.25
131.36
111.46
94.86
79.28
62.50
43.57
22.30
-1.06
-26.26
-51.29
-75.49
-99.33
-123.76
-148.50
-170.37
-186.15
-194.98
-203.87
-213.52
-223.54
-234.58
-242.75
-246.61
-244.27
-233.23
-210.61
-174.36
-121.78
-54.49
21.47
97.92
167.36
226.30
274.67
313.98
331.74
321.48
286.84
239.19
188.96
140.77
96.29
56.84
24.49
0.77
-11.91
-14.77
-11.78
-8.80
-11.21
-20.94
-36.42
-54.54
-70.08
-78.19
-77.23
-73.71
-72.82
-78.63
-93.53
-118.61
-150.69
-187.64
-225.48
-259.03
-273.67
-260.68
-222.62
-171.62
-121.17
-80.56
-54.64
-46.10
-50.21
-60.80
-71.23
-74.85
-66.25
-41.80
0.96
58.28
122.82
183.17
224.48
236.78
222.18
193.44
166.80
152.98
152.41
157.27
156.55
141.67
110.78
71.92
31.49
-3.87
-30.05
-46.60
-54.85
-55.95
-49.88
-34.35
-10.83
16.55
42.88
62.98
72.46
69.42
55.05
34.42
12.23
-6.90
-19.67
-24.39
-21.55
-13.38
-2.74
7.92
17.36
25.61
33.77
42.90
53.86
66.72
80.32
92.16
98.83
97.16
84.98
62.04
29.85
-8.84
-51.12
-94.48
-136.86
-176.33
-210.98
-239.19
-259.84
-272.51
-277.27
-274.21
-263.03
-243.04
-213.79
-176.04
-132.63
-88.31
-48.65
-18.64
-1.24
3.27
-2.81
-15.13
-27.73
-33.69
-26.29
-1.24
41.09
94.49
148.02
189.69
211.00
210.12
192.02
165.59
139.43
118.69
104.39
95.04
88.89
85.36
84.74
87.14
91.42
95.34
96.35
92.82
84.60
72.81
59.51
46.88
36.79
30.57
28.99
32.31
40.40
52.68
68.04
84.72
100.22
111.63
116.10
111.55
97.27
74.10
44.24
10.56
-24.09
-57.48
-88.29
-116.09
-140.99
-163.34
-183.35
-200.88
-215.39
-226.10
-232.46
-234.46
-232.79
-228.69
-223.42
-217.81
-211.96
-205.25
-196.51
-184.45
-167.97
-146.58
-120.84
-92.46
-64.28
-39.53
-20.92
-9.71
-5.23
-5.32
-7.25
-8.90
-9.34
-8.73
-7.57
-5.87
-2.70
3.65
14.98
32.36
55.55
82.89
111.80
139.38
163.18
181.62
194.06
200.64
201.88
198.45
190.98
180.06
166.42
150.90
134.42
117.76
101.32
85.11
68.83
52.08
34.61
16.46
-1.90
-19.56
-35.17
-46.99
-53.19
-52.33
-43.73
-27.87
-6.30
18.68
44.55
69.10
90.60
107.92
120.36
127.60
129.71
127.15
120.77
111.64
100.87
89.42
77.98
66.99
56.68
47.17
38.60
31.26
25.54
21.89
20.65
21.78
24.65
27.95
29.77
27.89
20.18
5.04
-18.23
-49.43
-87.36
-129.90
-174.10
-216.21
-252.14
-278.17
-291.97
-293.40
-284.81
-270.16
-253.60
-237.77
-223.04
-207.69
-189.25
-165.86
-137.06
-103.68
-67.11
-28.36
12.06
53.64
95.17
134.72
170.28
201.04
227.96
253.32
279.27
305.97
330.51
347.33
350.13
334.35
299.14
247.57
185.15
118.05
51.65
-9.97
-63.45
-105.36
-132.02
-140.11
-128.30
-98.82
-56.88
-9.25
37.04
76.13
104.33
120.31
125.26
121.59
110.69
93.50
70.84
42.77
9.07
-30.36
-75.45
-124.91
-177.21
-231.86
-286.42
-335.21
-371.27
-388.11
-381.79
-352.07
-300.37
-229.98
-146.81
-56.61
35.50
122.82
197.89
255.17
286.63
288.57
278.06
268.23
258.94
247.43
228.75
198.69
156.03
102.13
41.43
-23.05
-87.02
-140.15
-169.39
-167.83
-138.75
-93.03
-51.52
-20.37
-1.44
5.23
2.33
-6.18
-14.77
-21.10
-25.09
-28.37
-31.22
-34.47
-38.92
-44.50
-50.76
-58.10
-67.76
-80.48
-95.99
-111.91
-126.67
-139.62
-150.76
-160.36
-168.55
-174.73
-176.77
-171.87
-157.17
-132.35
-99.56
-62.77
-26.64
4.59
27.90
42.15
47.78
46.58
40.51
31.61
21.81
12.69
5.50
1.12
0.23
3.29
10.58
21.78
36.17
52.70
70.24
87.68
104.02
118.19
129.10
135.70
137.37
134.11
126.52
115.61
102.37
87.53
71.34
53.37
32.76
8.50
-20.15
-52.98
-88.35
-123.02
-152.44
-172.32
-180.21
-176.22
-163.01
-144.64
-125.32
-108.20
-94.93
-85.31
-78.78
-75.22
-74.78
-77.43
-82.44
-88.46
-93.58
-95.73
-91.77
-79.67
-59.53
-32.84
-1.79
31.44
64.82
96.44
124.42
148.97
169.86
185.82
196.50
203.35
209.32
217.25
228.07
240.30
253.37
265.43
273.20
274.46
268.28
254.70
234.06
207.65
163.14
101.94
38.95
-6.96
-24.88
-17.63
3.40
25.81
40.95
44.49
37.33
25.75
6.64
-21.88
-57.58
-94.20
-124.24
-142.26
-147.46
-141.59
-129.36
-117.05
-108.77
-105.17
-104.04
-102.19
-96.73
-86.56
-70.90
-50.52
-28.21
-6.60
11.90
25.42
33.26
36.90
38.71
41.81
48.47
58.61
70.96
83.22
92.70
92.66
80.17
57.74
32.66
12.44
0.99
-0.85
5.23
15.15
24.89
31.81
33.75
29.77
20.67
7.35
-9.45
-28.59
-49.65
-72.64
-92.59
-105.82
-112.27
-114.95
-117.79
-121.56
-123.27
-118.83
-105.97
-85.79
-63.30
-48.22
-41.93
-43.11
-47.61
-49.44
-43.06
-25.04
5.53
46.43
93.47
142.30
188.05
223.74
243.48
243.54
223.19
185.15
134.74
79.34
27.41
-14.76
-44.18
-61.72
-72.39
-83.47
-101.34
-129.86
-169.66
-218.66
-273.80
-330.91
-383.41
-423.16
-441.84
-432.45
-392.60
-325.94
-241.78
-152.97
-71.70
-4.97
45.63
82.71
111.28
135.53
157.46
176.72
192.07
203.39
213.25
223.92
229.51
220.54
188.82
135.59
72.86
18.23
-19.75
-38.99
-44.72
-47.39
-54.88
-72.20
-97.83
-124.98
-145.24
-152.61
-144.83
-124.15
-95.45
-62.92
-29.29
4.59
38.06
69.59
96.47
116.37
127.59
129.79
124.90
116.05
106.53
97.94
89.54
78.70
62.93
41.20
14.92
-11.79
-33.74
-46.43
-47.80
-38.21
-20.33
2.10
25.20
45.98
62.88
75.36
83.30
85.91
83.00
73.79
57.08
31.97
-0.62
-36.96
-71.25
-97.60
-112.76
-114.69
-104.48
-85.99
-64.31
-43.58
-25.84
-11.83
-1.77
3.57
7.60
15.73
33.42
63.82
106.96
160.11
218.55
277.56
317.86
325.37
298.28
248.95
193.85
143.91
103.14
71.61
52.70
41.87
38.44
42.58
53.19
67.10
80.46
90.79
93.99
89.73
78.31
63.32
48.16
34.57
22.49
11.39
1.51
-6.63
-12.81
-19.20
-27.30
-38.42
-53.14
-71.05
-90.81
-110.83
-130.43
-149.99
-171.55
-196.11
-223.48
-252.37
-280.96
-307.47
-330.54
-349.27
-362.60
-369.59
-368.32
-356.55
-332.60
-296.40
-250.03
-197.31
-142.79
-90.45
-43.27
-2.54
32.07
61.71
87.50
109.79
128.30
142.53
152.28
157.28
157.88
155.73
153.56
154.07
158.73
167.34
178.37
189.62
197.96
200.89
197.96
190.59
180.80
169.92
158.25
145.55
131.38
113.80
90.39
59.81
22.03
-22.13
-71.11
-122.34
-172.03
-206.69
-213.67
-191.23
-151.06
-109.71
-78.85
-62.30
-57.65
-59.17
-60.91
-59.97
-58.82
-57.79
-56.49
-54.38
-50.99
-46.16
-40.19
-34.27
-30.79
-31.99
-38.33
-46.27
-52.14
-52.90
-47.38
-34.25
-16.02
2.40
17.08
27.57
36.46
46.35
58.05
69.94
79.12
82.74
79.71
73.07
64.63
56.46
49.64
44.23
39.36
34.18
28.57
23.61
21.22
22.92
29.68
39.48
49.99
58.48
62.69
61.17
53.73
41.25
24.89
6.17
-13.60
-33.07
-51.04
-66.38
-78.16
-85.81
-89.34
-89.74
-88.37
-86.81
-85.98
-86.02
-86.26
-85.67
-83.49
-79.50
-74.16
-68.02
-61.24
-53.30
-43.23
-30.09
-13.58
5.69
26.31
46.36
64.03
78.02
87.72
93.23
95.31
95.11
94.12
93.89
95.84
100.83
108.99
119.70
131.75
143.64
153.81
160.97
164.27
163.40
158.53
150.17
139.07
125.94
111.51
95.97
79.62
63.11
47.49
34.02
23.64
16.62
12.34
9.65
6.48
1.32
-6.17
-15.16
-24.37
-32.75
-39.83
-45.77
-50.52
-55.01
-59.84
-65.13
-71.00
-78.06
-87.14
-98.41
-110.69
-120.83
-126.75
-127.23
-122.43
-114.13
-105.45
-99.97
-100.57
-109.14
-118.51
-123.47
-121.78
-114.30
-102.51
-87.18
-69.00
-49.53
-34.80
-25.70
-24.18
-31.33
-45.51
-63.10
-80.13
-94.29
-102.21
-104.29
-102.96
-103.16
-108.53
-117.88
-126.16
-127.09
-116.47
-93.75
-62.45
-27.51
5.26
31.99
53.29
72.16
91.87
114.23
139.95
169.38
204.12
246.36
287.93
320.22
336.78
335.33
315.41
276.45
219.26
149.05
75.23
9.22
-38.48
-62.79
-65.42
-53.10
-33.84
-13.61
4.29
18.02
26.65
30.72
31.64
31.46
32.53
37.03
46.40
61.08
78.07
94.62
108.79
119.28
125.09
125.34
119.66
108.89
95.33
82.06
72.02
66.41
63.93
61.15
53.92
39.10
15.54
-16.41
-56.01
-102.68
-155.79
-213.56
-271.51
-322.43
-357.86
-370.85
-358.58
-323.71
-273.03
-215.03
-157.22
-104.90
-61.32
-28.61
-8.00
0.91
1.13
-1.59
-0.67
8.50
26.32
48.94
70.51
86.36
95.19
99.04
101.60
105.70
111.67
117.30
118.75
111.75
92.48
58.33
8.83
-53.34
-122.17
-189.36
-246.60
-288.07
-311.72
-318.80
-311.59
-291.31
-257.16
-207.57
-142.70
-66.48
13.29
87.31
148.36
193.75
225.39
247.15
261.52
267.70
262.21
241.54
205.19
157.15
104.82
56.31
17.76
-7.71
-19.63
-19.32
-9.40
6.07
21.65
31.40
30.17
15.48
-11.64
-47.31
-86.63
-125.05
-158.73
-183.83
-196.82
-195.53
-180.46
-155.01
-124.21
-92.77
-62.95
-33.87
-2.18
34.67
75.95
117.49
154.11
182.20
200.78
211.09
215.27
216.05
214.93
211.53
204.25
191.41
171.81
144.44
107.92
60.27
-1.84
-73.88
-144.20
-200.61
-235.63
-246.30
-233.03
-200.00
-160.53
-120.09
-83.74
-55.88
-39.05
-32.98
-34.83
-40.23
-43.36
-38.92
-21.23
12.34
59.53
112.75
161.55
196.76
213.91
213.67
199.86
177.47
148.45
111.04
61.68
-1.63
-75.99
-152.20
-217.28
-259.02
-269.47
-248.42
-203.35
-146.38
-89.90
-41.85
-3.05
30.98
64.72
98.81
130.35
159.00
184.32
207.11
224.77
235.87
238.67
230.11
207.96
172.85
124.57
69.31
15.74
-28.96
-61.98
-82.31
-90.38
-88.72
-78.18
-62.72
-49.69
-45.66
-52.68
-66.55
-80.56
-92.38
-104.70
-122.48
-148.09
-181.50
-218.28
-251.03
-271.71
-263.82
-222.35
-156.19
-93.20
-42.67
-7.57
13.49
19.90
13.52
0.06
-13.33
-18.29
-7.65
22.65
68.19
119.12
164.32
196.27
212.54
213.97
204.05
187.00
167.37
146.22
122.89
96.08
65.31
31.05
-5.10
-40.23
-71.03
-94.68
-111.95
-126.52
-144.03
-169.29
-203.89
-243.20
-279.04
-303.96
-314.57
-312.95
-304.16
-293.10
-281.27
-265.83
-238.00
-190.20
-121.69
-40.61
39.37
105.33
150.10
174.48
186.11
199.89
228.49
276.19
338.00
404.66
468.08
523.87
570.80
582.36
540.15
447.16
329.19
215.44
122.54
52.83
0.16
-43.86
-85.02
-119.71
-141.23
-145.89
-137.47
-123.50
-111.37
-105.66
-106.67
-110.93
-110.21
-98.94
-77.39
-50.79
-24.98
-4.23
9.45
15.03
11.60
0.46
-17.28
-40.29
-65.91
-88.77
-100.15
-95.25
-77.30
-56.89
-37.83
-21.21
-8.24
-0.62
0.79
-3.17
-10.69
-19.80
-28.72
-36.17
-42.84
-51.25
-63.27
-78.75
-96.39
-115.04
-133.99
-151.78
-165.94
-169.00
-157.78
-136.13
-112.74
-95.50
-87.70
-89.18
-96.19
-105.95
-117.54
-131.97
-149.75
-168.31
-183.83
-192.63
-192.62
-183.22
-165.02
-139.08
-107.17
-71.23
-33.05
5.79
44.59
83.89
125.49
171.00
220.05
268.98
312.03
343.64
360.85
364.50
358.28
347.08
334.72
323.36
313.79
306.80
303.86
306.33
313.98
324.13
332.32
334.11
327.23
312.10
290.79
265.03
234.92
199.22
157.17
110.16
61.78
16.32
-23.42
-57.31
-87.17
-114.78
-140.24
-161.58
-175.65
-179.91
-173.57
-157.74
-134.82
-107.38
-77.36
-45.80
-13.00
21.10
56.27
91.43
124.13
150.57
166.43
168.26
154.84
128.25
93.60
57.78
27.20
5.40
-8.50
-19.76
-36.06
-64.39
-107.80
-163.43
-222.62
-273.19
-303.10
-304.31
-275.75
-223.79
-160.58
-100.71
-57.18
-37.83
-43.54
-68.29
-101.14
-129.56
-143.21
-137.12
-113.20
-79.48
-47.35
-27.47
-26.23
-43.58
-73.50
-106.67
-134.44
-152.17
-160.57
-164.42
-169.22
-177.86
-188.70
-196.51
-195.47
-182.85
-160.81
-135.37
-113.47
-99.47
-93.41
-91.89
-90.74
-87.43
-82.07
-76.45
-71.93
-68.01
-62.44
-52.79
-38.45
-21.59
-6.36
2.64
2.47
-6.87
-22.39
-39.68
-55.18
-67.76
-78.97
-90.95
-105.31
-122.05
-139.56
-155.29
-166.77
-172.46
-171.65
-164.53
-150.80
-130.85
-106.15
-78.69
-49.59
-18.04
18.11
61.28
112.05
169.45
229.68
286.85
334.88
369.77
390.57
398.55
396.50
379.46
346.14
301.90
257.05
220.12
193.64
176.37
162.11
146.20
126.56
104.96
84.64
68.90
59.77
57.43
60.27
65.02
67.90
65.01
54.24
34.84
7.17
-27.62
-67.54
-110.04
-152.84
-193.98
-232.13
-265.42
-292.04
-310.46
-319.77
-319.36
-308.65
-287.13
-254.52
-211.37
-159.12
-100.29
-38.16
23.79
82.53
135.68
181.37
218.23
245.48
263.37
273.13
276.63
275.61
271.11
263.21
251.46
235.60
216.18
194.60
172.47
150.96
130.34
110.04
89.31
67.82
46.01
25.01
6.11
-9.77
-22.50
-32.75
-41.63
-50.18
-58.83
-67.13
-73.94
-77.86
-77.75
-73.15
-64.39
-52.40
-38.36
-23.49
-8.86
4.54
15.90
24.62
30.46
33.58
34.44
33.57
31.31
27.65
22.57
16.36
9.82
4.08
0.18
-1.44
-1.11
0.12
0.90
0.21
-2.27
-6.25
-11.16
-16.26
-20.75
-23.65
-23.94
-21.22
-15.80
-9.09
-3.30
-0.92
-3.71
-12.05
-24.73
-39.64
-55.13
-69.77
-82.41
-92.33
-99.42
-104.15
-107.43
-110.50
-114.75
-122.73
-135.62
-152.28
-169.44
-183.07
-189.60
-187.32
-177.06
-162.08
-148.95
-142.55
-144.09
-151.46
-161.95
-174.00
-187.87
-204.43
-222.78
-241.70
-256.05
-258.60
-244.22
-214.04
-174.71
-135.14
-101.93
-59.60
-0.84
70.61
142.12
202.34
246.82
278.53
303.66
327.26
350.16
365.83
367.35
352.16
327.22
298.86
274.52
259.41
253.61
252.21
245.93
227.93
196.75
156.00
111.09
67.37
27.31
-8.26
-39.76
-69.63
-99.00
-126.85
-150.55
-167.47
-174.88
-170.70
-155.57
-131.72
-103.42
-75.40
-52.58
-40.10
-42.60
-62.00
-88.45
-109.17
-112.01
-92.85
-55.59
-7.41
44.86
96.01
141.54
181.79
213.26
230.80
230.07
210.39
175.29
131.01
84.77
45.14
19.23
9.27
13.48
26.65
41.99
52.89
54.57
45.31
26.42
1.19
-27.70
-57.75
-86.19
-108.84
-119.98
-113.75
-86.57
-39.50
20.87
82.89
133.77
163.42
167.29
146.63
106.65
54.09
-4.66
-63.99
-119.64
-168.27
-208.00
-239.19
-264.91
-290.34
-320.24
-355.91
-393.05
-423.49
-438.45
-432.28
-404.60
-359.93
-305.16
-246.55
-187.67
-128.99
-70.27
-12.44
41.84
89.22
127.22
155.39
174.58
183.03
180.36
169.15
153.15
134.84
115.26
95.18
75.40
56.42
38.19
21.77
6.73
-7.58
-21.66
-35.71
-49.89
-64.30
-78.79
-92.31
-102.38
-106.33
-103.23
-93.61
-79.74
-64.77
-51.45
-40.86
-31.86
-21.34
-5.81
17.22
48.76
88.10
133.33
182.20
233.00
285.18
339.48
396.65
455.63
511.72
556.68
580.82
576.42
541.02
479.06
400.76
318.88
244.90
185.85
143.63
116.18
99.37
88.72
80.40
71.64
61.12
49.34
38.31
31.91
34.74
50.27
78.60
115.63
153.59
183.69
199.25
196.49
177.14
147.22
114.07
83.01
56.14
32.23
9.22
-14.38
-42.05
-75.14
-112.55
-151.92
-191.36
-229.34
-265.80
-300.07
-330.99
-362.45
-396.95
-434.23
-472.32
-510.04
-546.59
-583.37
-619.96
-653.80
-687.24
-719.56
-746.10
-760.59
-759.29
-741.22
-710.70
-672.26
-591.41
-459.92
-298.12
-141.33
-14.78
66.86
119.13
154.02
179.04
199.16
211.01
212.96
208.10
202.49
200.73
205.37
213.84
223.49
232.89
237.03
234.24
227.31
221.69
222.16
232.13
250.71
275.68
303.47
326.15
336.80
331.97
312.34
281.25
243.81
203.76
164.21
127.16
92.14
59.06
29.29
5.08
-11.98
-21.87
-27.02
-30.47
-34.45
-39.87
-45.17
-46.73
-40.52
-23.96
2.74
36.26
71.42
102.88
126.69
141.15
146.70
145.06
138.06
127.09
112.96
96.27
77.74
58.29
38.87
20.12
2.31
-14.58
-30.63
-45.79
-59.70
-71.74
-81.14
-87.16
-89.32
-87.66
-82.95
-76.65
-70.66
-66.89
-66.79
-71.02
-79.35
-90.49
-102.14
-111.32
-114.84
-110.16
-96.11
-73.43
-44.71
-13.76
15.45
39.88
58.22
71.16
80.89
90.05
100.58
112.85
125.59
136.62
144.03
147.09
146.55
144.11
141.53
139.86
139.23
138.95
137.94
135.10
129.64
121.18
109.77
95.83
79.94
62.60
44.13
24.79
5.10
-13.73
-29.77
-40.84
-45.22
-42.39
-33.28
-19.94
-4.83
9.88
22.71
32.82
39.80
43.49
43.93
41.48
36.76
30.52
23.27
15.14
5.84
-4.96
-17.25
-30.40
-43.23
-54.40
-62.94
-68.61
-71.86
-73.58
-74.56
-75.21
-75.54
-75.26
-74.16
-72.40
-70.50
-69.27
-69.49
-71.55
-75.24
-79.63
-83.21
-84.31
-81.51
-74.07
-62.13
-46.54
-28.72
-10.24
7.42
22.93
35.29
43.78
48.00
48.02
44.32
37.84
29.75
21.33
13.64
7.36
2.71
-0.49
-2.62
-4.03
-4.96
-5.49
-5.70
-5.71
-5.75
-6.06
-6.85
-8.20
-10.08
-12.48
-15.44
-19.11
-23.64
-28.97
-34.67
-39.80
-43.03
-42.96
-38.54
-29.49
-16.43
-0.76
15.72
31.25
44.45
54.45
60.88
63.73
63.23
59.88
54.31
47.28
39.57
31.92
24.99
19.25
15.01
12.36
11.13
10.96
11.31
11.57
11.16
9.54
6.38
1.57
-4.78
-12.30
-20.54
-29.19
-38.19
-47.81
-58.41
-70.07
-82.22
-93.44
-101.61
-104.47
-100.23
-88.22
-69.09
-44.76
-17.96
8.44
31.93
50.74
64.05
71.82
74.73
73.85
70.33
65.10
58.79
51.73
44.23
36.75
29.95
24.53
20.94
19.10
18.37
17.82
16.64
14.55
11.84
9.12
6.85
5.06
3.27
0.84
-2.61
-7.08
-12.27
-17.90
-24.01
-30.86
-38.50
-46.27
-52.56
-55.26
-52.61
-43.97
-30.25
-13.51
3.83
19.75
33.04
43.13
49.73
52.45
50.79
44.46
33.77
19.89
4.79
-9.20
-20.12
-27.02
-30.29
-31.53
-32.77
-35.63
-40.38
-45.69
-48.99
-47.39
-38.54
-21.27
3.92
34.58
66.11
92.07
105.52
101.25
78.03
39.72
-5.72
-49.14
-83.46
-105.88
-117.84
-123.04
-124.98
-125.27
-123.60
-118.80
-110.11
-97.78
-82.95
-67.10
-51.66
-37.83
-26.59
-18.64
-14.27
-13.28
-15.00
-18.53
-22.88
-27.09
-30.28
-31.75
-31.04
-28.26
-24.03
-19.42
-15.66
-13.66
-13.78
-15.69
-18.61
-21.61
-24.14
-26.20
-28.46
-31.91
-37.48
-45.57
-55.63
-66.15
-74.85
-79.22
-77.18
-67.75
-51.32
-29.61
-5.15
19.36
41.69
60.40
74.80
84.70
90.13
91.23
88.45
82.59
74.81
66.47
58.69
52.15
46.96
42.90
39.64
37.06
35.23
34.31
34.26
34.70
34.98
34.30
32.06
28.02
22.36
15.57
8.27
1.04
-5.74
-12.00
-18.00
-24.25
-31.37
-39.73
-49.07
-58.23
-65.24
-67.78
-63.86
-52.69
-35.02
-13.01
10.41
32.42
51.04
65.34
75.30
81.30
83.74
82.87
78.97
72.57
64.60
56.28
48.86
43.22
39.68
37.96
37.42
37.31
37.10
36.48
35.39
33.78
31.49
28.26
23.92
18.49
12.36
6.08
0.15
-5.24
-10.29
-15.44
-21.12
-27.54
-34.62
-42.20
-50.14
-58.36
-66.60
-74.20
-79.93
-82.18
-79.44
-70.84
-56.57
-37.94
-17.11
3.52
21.85
36.45
46.60
52.17
53.37
50.60
44.47
35.82
25.84
15.85
7.14
0.59
-3.43
-5.08
-4.86
-3.31
-0.75
2.80
7.53
13.63
21.17
29.93
39.46
49.22
58.74
67.77
76.15
83.69
89.98
94.30
95.73
93.44
86.91
76.20
62.01
45.59
28.56
12.69
-0.30
-8.94
-12.19
-9.60
-1.40
11.69
28.63
48.25
69.11
89.35
106.53
117.88
121.02
114.96
100.92
82.31
63.89
50.04
43.22
43.09
46.95
51.02
52.04
48.31
39.88
27.90
13.87
-1.03
-15.94
-30.26
-43.34
-54.47
-63.11
-69.24
-73.52
-77.15
-81.56
-87.88
-96.59
-107.38
-119.23
-130.65
-140.07
-146.04
-147.41
-143.45
-133.82
-118.71
-98.91
-75.78
-51.22
-27.30
-5.93
11.53
24.47
32.91
37.31
38.31
36.56
32.70
27.39
21.41
15.54
10.41
6.47
3.84
2.47
2.20
2.77
3.87
5.04
5.74
5.32
3.33
-0.40
-5.73
-12.21
-19.35
-26.75
-34.20
-41.69
-49.26
-56.91
-64.49
-71.72
-78.31
-84.11
-89.28
-94.16
-99.24
-104.83
-110.83
-116.62
-121.02
-122.49
-119.43
-110.61
-95.58
-74.89
-50.09
-23.42
2.71
26.19
45.56
60.05
69.47
74.01
74.10
70.35
63.60
54.90
45.40
36.24
28.37
22.45
18.76
17.19
17.27
18.38
19.98
21.89
24.42
28.28
34.26
42.79
53.43
64.68
74.35
80.27
81.37
78.31
73.48
69.98
70.10
74.15
80.07
84.38
83.93
77.44
66.06
52.51
39.72
29.81
24.04
23.19
27.75
37.23
49.02
58.00
58.01
44.95
19.63
-11.62
-39.54
-56.32
-59.29
-51.57
-39.60
-29.18
-22.67
-18.87
-15.23
-10.38
-5.06
-1.10
0.37
0.31
1.38
6.17
15.48
27.54
38.76
45.32
44.76
36.93
23.90
9.05
-4.38
-14.44
-21.13
-26.06
-31.45
-38.94
-48.72
-59.36
-68.30
-72.86
-71.11
-62.50
-47.94
-29.51
-9.83
8.60
23.94
35.24
42.29
45.34
44.77
40.90
34.12
25.10
15.06
5.55
-1.84
-6.16
-7.33
-6.16
-3.93
-1.82
-0.46
0.14
0.35
0.64
1.24
2.06
2.72
2.78
1.87
-0.17
-3.31
-7.40
-12.21
-17.52
-23.14
-28.88
-34.60
-40.21
-45.66
-50.99
-56.19
-61.01
-64.80
-66.49
-64.71
-58.35
-46.97
-31.25
-12.98
5.28
20.90
31.88
37.32
37.52
33.62
27.15
19.49
11.58
3.90
-3.31
-9.86
-15.44
-19.72
-22.48
-23.75
-23.89
-23.44
-22.91
-22.52
-22.27
-21.95
-21.40
-20.71
-20.27
-20.69
-22.49
-25.91
-30.70
-36.16
-41.36
-45.42
-47.84
-48.64
-48.29
-47.55
-47.12
-47.44
-48.58
-50.17
-51.54
-51.69
-49.53
-43.99
-34.40
-20.73
-3.82
14.72
32.82
48.44
60.01
66.73
68.58
66.10
60.18
51.79
41.94
31.65
21.89
13.53
7.18
3.13
1.29
1.30
2.72
5.09
8.04
11.29
14.53
17.49
19.87
21.56
22.62
23.27
23.81
24.47
25.13
25.31
24.10
20.36
12.97
1.22
-14.70
-33.47
-52.58
-68.76
-78.77
-80.36
-72.85
-57.42
-36.65
-13.74
8.34
27.42
42.27
52.40
57.74
58.50
55.14
48.45
39.63
30.09
21.20
13.90
8.63
5.22
3.21
2.12
1.71
2.07
3.55
6.52
11.06
16.67
22.39
27.01
29.52
29.60
27.70
24.84
22.08
20.01
18.51
16.92
14.34
10.02
3.48
-5.56
-17.22
-31.42
-47.50
-63.98
-78.59
-88.75
-92.37
-88.55
-77.88
-62.17
-43.77
-24.92
-7.32
7.95
20.19
28.93
33.83
34.88
32.55
27.78
21.93
16.38
12.25
10.12
9.99
11.37
13.53
15.81
17.81
19.43
20.70
21.67
22.17
21.89
20.46
17.68
13.59
8.49
2.83
-2.96
-8.56
-13.82
-18.76
-23.56
-28.47
-33.83
-39.98
-47.21
-55.63
-64.96
-74.39
-82.54
-87.51
-87.41
-80.87
-67.67
-48.92
-26.89
-4.44
15.78
31.89
43.00
49.11
50.76
48.69
43.71
36.64
28.38
19.92
12.18
5.81
1.03
-2.45
-5.22
-7.86
-10.49
-12.54
-12.74
-9.71
-2.62
8.26
21.35
34.19
44.29
49.94
50.67
47.20
40.96
33.57
26.37
20.25
15.66
12.66
10.96
9.97
9.03
7.67
5.87
4.29
4.04
6.37
12.13
21.44
33.48
46.63
58.76
67.77
72.11
71.21
65.69
57.17
47.70
39.13
32.58
28.22
25.57
24.03
23.27
23.36
24.54
26.77
29.51
31.89
33.03
32.52
30.52
27.49
23.78
19.31
13.61
6.30
-2.52
-12.06
-21.08
-28.54
-34.14
-38.49
-42.84
-48.40
-55.80
-64.85
-74.67
-84.17
-92.26
-97.94
-100.10
-97.48
-88.92
-73.95
-53.26
-28.92
-3.94
18.59
36.39
48.46
55.04
57.02
55.44
51.09
44.64
36.83
28.65
21.24
15.62
12.35
11.43
12.41
14.74
17.94
21.71
25.81
29.84
33.22
35.27
35.46
33.66
30.33
26.31
22.58
19.77
17.94
16.51
14.52
11.08
5.70
-1.59
-10.25
-19.56
-28.77
-37.25
-44.59
-50.65
-55.53
-59.70
-63.75
-68.11
-72.51
-75.67
-75.51
-69.72
-56.70
-36.33
-10.25
18.44
45.88
68.40
83.24
89.07
86.06
75.69
60.37
42.89
25.87
11.39
0.70
-5.79
-8.36
-7.84
-5.27
-1.76
1.85
5.09
7.87
10.38
12.85
15.23
17.18
18.17
17.77
15.89
12.84
9.15
5.29
1.39
-2.79
-7.60
-13.30
-19.81
-26.67
-33.28
-39.10
-43.91
-47.79
-51.14
-54.43
-58.12
-62.50
-67.61
-73.04
-77.84
-80.52
-79.32
-72.72
-59.97
-41.55
-19.21
4.41
26.53
44.89
58.20
66.25
69.55
68.94
65.27
59.29
51.67
43.21
34.84
27.58
22.37
19.69
19.49
21.05
23.26
24.99
25.47
24.54
22.54
20.00
17.22
14.09
10.21
5.15
-1.16
-8.36
-15.74
-22.60
-28.52
-33.42
-37.54
-41.32
-45.28
-49.91
-55.54
-62.17
-69.24
-75.49
-79.16
-78.38
-71.76
-58.93
-40.78
-19.35
2.65
22.57
38.39
49.11
54.78
56.22
54.63
51.24
47.12
43.09
39.77
37.52
36.43
36.16
36.00
35.06
32.62
28.38
22.71
16.41
10.46
5.49
1.62
-1.55
-4.58
-7.84
-11.27
-14.43
-16.75
-17.91
-17.95
-17.33
-16.69
-16.59
-17.34
-18.96
-21.30
-24.17
-27.52
-31.43
-36.05
-41.42
-47.38
-53.41
-58.64
-61.91
-61.91
-57.41
-47.61
-32.46
-12.88
9.25
31.38
50.89
65.76
75.01
78.84
78.29
74.75
69.40
62.96
55.71
47.73
39.24
30.72
22.87
16.43
11.88
9.32
8.45
8.68
9.42
10.14
10.50
10.30
9.35
7.45
4.42
0.19
-5.14
-11.27
-17.73
-24.10
-30.00
-35.27
-39.90
-43.96
-47.54
-50.62
-53.11
-54.90
-56.04
-56.87
-58.09
-60.52
-64.69
-70.37
-76.24
-80.10
-79.50
-72.56
-58.84
-39.56
-17.26
5.02
24.70
40.23
51.15
57.71
60.37
59.54
55.60
49.14
41.16
33.01
26.03
21.19
18.75
18.30
19.03
20.11
21.07
21.77
22.32
22.78
22.94
22.30
20.29
16.48
10.84
3.76
-4.08
-11.96
-19.40
-26.16
-32.32
-38.09
-43.77
-49.72
-56.21
-63.23
-70.25
-76.03
-78.74
-76.45
-67.84
-52.78
-32.61
-9.80
12.78
32.63
48.20
58.97
65.16
67.36
66.17
62.21
56.14
48.82
41.24
34.37
28.92
25.17
22.92
21.72
21.07
20.71
20.66
21.03
21.78
22.51
22.42
20.64
16.60
10.42
2.88
-4.86
-11.84
-17.66
-22.57
-27.27
-32.50
-38.72
-46.01
-54.09
-62.32
-69.70
-74.85
-76.16
-72.11
-61.81
-45.47
-24.51
-1.26
21.63
41.89
58.06
69.57
76.42
78.95
77.54
72.70
65.18
56.12
46.97
39.12
33.52
30.40
29.22
28.95
28.57
27.37
25.12
21.96
18.10
13.59
8.20
1.67
-6.11
-14.82
-23.76
-32.05
-39.01
-44.42
-48.70
-52.69
-57.37
-63.49
-71.22
-80.03
-88.65
-95.34
-98.13
-95.30
-85.83
-69.79
-48.45
-24.11
0.41
22.40
39.83
51.69
57.90
59.09
56.28
50.55
42.98
34.61
26.49
19.54
14.45
11.47
10.42
10.78
11.96
13.52
15.20
16.84
18.24
19.00
18.60
16.58
12.79
7.49
1.31
-5.00
-10.83
-15.89
-20.35
-24.72
-29.61
-35.54
-42.59
-50.12
-56.74
-60.51
-59.39
-51.97
-37.98
-18.50
4.21
27.34
48.19
64.71
75.84
81.40
81.89
78.21
71.40
62.58
52.86
43.29
34.82
28.15
23.68
21.39
20.93
21.71
23.04
24.25
24.78
24.17
22.11
18.39
13.04
6.31
-1.25
-9.00
-16.30
-22.83
-28.66
-34.26
-40.31
-47.39
-55.66
-64.60
-72.92
-78.73
-79.88
-74.65
-62.23
-43.25
-19.67
5.56
29.36
49.25
63.85
72.99
77.27
77.65
74.96
69.86
62.98
55.07
47.08
39.99
34.54
31.03
29.31
28.82
28.94
29.16
29.15
28.75
27.88
26.51
24.53
21.78
18.04
13.11
6.92
-0.40
-8.40
-16.48
-24.04
-30.69
-36.37
-41.29
-45.82
-50.36
-55.25
-60.78
-67.17
-74.43
-82.05
-88.83
-92.83
-91.84
-84.09
-69.01
-47.63
-22.45
3.30
26.57
45.22
58.38
66.18
69.31
68.52
64.46
57.72
49.07
39.62
30.73
23.68
19.32
17.76
18.39
20.16
21.99
23.15
23.37
22.72
21.45
19.62
17.13
13.70
9.07
3.17
-3.78
-11.24
-18.48
-24.78
-29.66
-33.04
-35.25
-36.99
-39.04
-42.05
-46.29
-51.58
-57.20
-61.96
-64.34
-62.75
-55.94
-43.44
-25.88
-4.98
16.78
36.80
53.01
64.29
70.50
72.15
70.05
64.94
57.52
48.58
39.13
30.43
23.65
19.56
18.22
19.00
20.86
22.80
24.14
24.65
24.36
23.39
21.71
19.15
15.48
10.52
4.25
-3.07
-10.96
-18.78
-25.82
-31.61
-36.04
-39.48
-42.64
-46.32
-51.12
-57.18
-64.15
-71.15
-76.83
-79.58
-77.74
-70.05
-56.09
-36.57
-13.43
10.65
32.85
50.95
63.74
71.05
73.50
72.07
67.75
61.36
53.67
45.39
37.34
30.33
25.01
21.75
20.48
20.76
21.92
23.31
24.44
25.01
24.85
23.79
21.64
18.24
13.54
7.75
1.30
-5.29
-11.59
-17.45
-23.00
-28.52
-34.20
-39.96
-45.52
-50.50
-54.65
-58.06
-61.18
-64.67
-69.18
-74.97
-81.58
-87.74
-91.45
-90.52
-83.20
-68.95
-48.71
-24.81
-0.30
21.91
39.78
52.39
59.82
62.71
61.76
57.61
50.85
42.24
32.87
23.98
16.79
12.10
10.12
10.44
12.27
14.73
17.13
19.11
20.53
21.41
21.72
21.32
19.99
17.50
13.76
8.83
2.98
-3.36
-9.70
-15.56
-20.66
-24.89
-28.41
-31.55
-34.72
-38.34
-42.70
-47.82
-53.36
-58.49
-61.95
-62.18
-57.76
-47.90
-32.78
-13.77
6.92
26.75
43.52
55.87
63.33
66.14
64.85
60.09
52.50
42.88
32.31
22.15
13.75
8.10
5.50
5.52
7.18
9.38
11.33
12.76
13.80
14.68
15.41
15.66
14.82
12.39
8.17
2.48
-4.09
-10.88
-17.40
-23.44
-28.96
-33.97
-38.56
-42.92
-47.41
-52.52
-58.51
-65.04
-70.90
-74.11
-72.47
-64.29
-49.09
-27.91
-3.00
22.72
46.41
65.93
80.08
88.52
91.57
89.88
84.29
75.71
65.20
53.94
43.25
34.33
28.03
24.60
23.65
24.36
25.83
27.36
28.55
29.16
28.91
27.41
24.20
19.04
12.10
4.00
-4.47
-12.61
-20.11
-27.00
-33.50
-39.68
-45.40
-50.23
-53.75
-55.71
-56.25
-55.96
-55.84
-57.08
-60.68
-66.99
-75.31
-83.82
-89.79
-90.39
-83.54
-68.78
-47.43
-22.21
3.58
27.09
46.48
61.02
70.77
76.07
77.22
74.38
67.89
58.45
47.28
35.87
25.71
17.82
12.62
10.02
9.62
11.05
14.04
18.37
23.65
29.18
34.04
37.26
38.19
36.71
33.22
28.44
23.03
17.38
11.54
5.37
-1.38
-8.83
-16.95
-25.53
-34.23
-42.58
-50.07
-56.37
-61.52
-66.06
-70.92
-77.06
-84.90
-93.83
-102.13
-107.30
-106.77
-98.66
-82.42
-59.12
-31.25
-2.17
24.72
46.70
62.22
71.06
74.01
72.44
67.76
61.19
53.60
45.69
37.99
30.97
25.02
20.45
17.49
16.23
16.64
18.37
20.79
23.09
24.58
24.91
24.23
22.94
21.48
19.92
17.91
14.90
10.47
4.61
-2.20
-9.16
-15.50
-20.80
-25.07
-28.69
-32.28
-36.42
-41.58
-47.89
-55.01
-61.95
-67.12
-68.54
-64.35
-53.51
-36.29
-14.39
9.44
32.18
51.29
65.28
73.75
77.12
76.14
71.58
64.15
54.62
43.98
33.41
24.20
17.34
13.33
12.05
12.86
14.87
17.21
19.18
20.42
20.77
20.24
18.80
16.41
12.92
8.19
2.13
-5.09
-13.01
-20.98
-28.25
-34.32
-39.02
-42.67
-45.95
-49.69
-54.63
-61.14
-68.91
-76.91
-83.30
-85.86
-82.44
-71.67
-53.59
-29.79
-3.11
23.09
45.88
63.39
75.03
81.20
82.70
80.33
74.70
66.45
56.40
45.72
35.72
27.57
21.95
18.97
18.25
19.12
20.84
22.70
24.13
24.74
24.32
22.90
20.59
17.52
13.65
8.85
2.95
-4.03
-11.81
-19.91
-27.76
-34.96
-41.30
-46.86
-51.88
-56.76
-61.97
-67.98
-74.96
-82.55
-89.63
-94.35
-94.51
-88.17
-74.43
-53.85
-28.46
-1.27
24.53
46.37
62.72
73.19
78.18
78.54
75.20
69.10
61.17
52.41
43.87
36.48
30.96
27.63
26.46
27.09
28.95
31.34
33.60
35.20
35.81
35.36
33.96
31.74
28.81
25.12
20.55
15.02
8.56
1.28
-6.67
-15.15
-24.05
-33.19
-42.32
-51.03
-58.93
-65.84
-71.89
-77.60
-83.68
-90.73
-98.79
-107.05
-113.77
-116.71
-113.67
-103.43
-86.19
-63.78
-39.23
-15.85
3.58
17.47
25.49
28.08
25.91
19.51
9.29
-3.94
-18.76
-32.99
-44.39
-51.37
-53.54
-51.68
-47.02
-40.37
-31.67
-20.14
-5.09
13.26
33.48
53.22
69.98
82.02
88.72
90.69
89.45
86.96
85.17
85.66
89.21
95.47
102.79
108.42
109.23
102.68
87.81
65.86
40.08
14.97
-4.95
-16.28
-17.49
-9.11
6.66
26.59
47.11
64.99
77.83
84.36
84.49
79.18
69.96
58.49
46.13
33.82
22.02
11.00
1.04
-7.46
-14.07
-18.58
-21.11
-22.19
-22.67
-23.36
-24.86
-27.39
-30.90
-35.20
-40.09
-45.39
-50.94
-56.47
-61.65
-66.17
-69.77
-72.30
-73.62
-73.64
-72.36
-69.92
-66.76
-63.57
-61.13
-60.01
-60.30
-61.34
-61.82
-59.97
-54.12
-43.14
-26.96
-6.60
15.92
38.10
57.55
72.60
82.47
87.29
87.71
84.60
78.73
70.81
61.46
51.43
41.52
32.47
24.78
18.58
13.71
9.91
7.02
5.00
3.82
3.27
2.90
2.09
0.25
-2.93
-7.42
-12.89
-18.87
-24.92
-30.70
-35.99
-40.63
-44.52
-47.71
-50.34
-52.62
-54.80
-57.11
-59.83
-63.31
-67.92
-73.74
-80.29
-86.24
-89.56
-87.98
-79.82
-64.65
-43.54
-18.91
6.32
29.47
48.68
63.14
72.82
78.12
79.58
77.75
73.26
66.85
59.41
51.82
44.89
39.29
35.57
34.21
35.48
39.34
45.20
51.91
57.89
61.53
61.69
57.98
50.90
41.53
31.06
20.31
9.58
-1.25
-12.31
-23.41
-33.97
-43.19
-50.50
-55.85
-59.79
-63.26
-67.12
-71.85
-77.46
-83.62
-89.75
-95.05
-98.35
-98.11
-92.63
-80.64
-61.97
-37.94
-11.25
14.68
36.66
52.60
61.76
64.66
62.46
56.50
48.09
38.52
29.27
21.88
17.61
16.95
19.37
23.40
27.22
29.36
29.21
27.12
24.05
20.97
18.39
16.20
13.80
10.44
5.56
-0.95
-8.67
-16.81
-24.46
-30.93
-36.00
-40.06
-43.99
-48.86
-55.54
-64.35
-74.69
-84.98
-92.92
-95.91
-91.88
-79.93
-60.69
-36.27
-9.66
16.10
38.59
56.42
69.14
76.98
80.49
80.33
77.18
71.87
65.28
58.37
52.07
47.08
43.83
42.48
42.99
45.15
48.61
52.83
57.08
60.49
62.29
61.96
59.43
55.04
49.38
43.03
36.41
29.72
22.93
15.93
8.62
0.97
-6.88
-14.65
-22.06
-28.99
-35.69
-42.86
-51.42
-61.98
-74.29
-86.86
-97.08
-101.94
-99.07
-87.63
-68.65
-44.68
-18.89
5.88
27.72
45.69
59.51
69.06
74.28
75.18
72.18
66.22
58.66
50.88
43.96
38.49
34.59
32.08
30.59
29.69
28.84
27.55
25.54
22.77
19.52
16.14
12.83
9.49
5.77
1.23
-4.40
-11.14
-18.69
-26.55
-34.17
-41.03
-46.85
-51.58
-55.51
-59.21
-63.35
-68.51
-75.01
-82.61
-90.38
-96.68
-99.37
-96.23
-85.67
-67.35
-42.54
-13.97
14.84
40.53
60.73
74.39
81.65
83.38
80.65
74.46
65.70
55.32
44.46
34.36
26.20
20.74
18.15
17.95
19.28
21.19
22.94
24.18
24.82
24.92
24.36
22.82
19.80
14.88
7.97
-0.57
-9.96
-19.30
-27.76
-34.86
-40.54
-45.15
-49.26
-53.54
-58.57
-64.72
-71.95
-79.62
-86.43
-90.51
-89.79
-82.55
-68.05
-46.91
-21.11
6.47
32.77
55.22
72.20
83.05
87.88
87.27
82.06
73.32
62.36
50.68
39.70
30.56
23.87
19.68
17.61
17.10
17.63
18.83
20.47
22.26
23.78
24.35
23.24
19.84
13.97
5.97
-3.30
-12.82
-21.76
-29.73
-36.88
-43.75
-51.00
-59.18
-68.42
-78.38
-88.04
-95.66
-99.06
-96.05
-85.18
-66.38
-41.20
-12.59
15.92
41.13
60.91
74.45
82.04
84.56
83.07
78.45
71.45
62.78
53.26
43.89
35.67
29.39
25.42
23.60
23.37
24.02
24.87
25.46
25.49
24.81
23.28
20.75
17.03
11.96
5.50
-2.26
-10.98
-20.14
-29.06
-37.11
-43.88
-49.28
-53.53
-57.04
-60.31
-63.83
-67.99
-72.94
-78.35
-83.23
-85.88
-84.13
-76.06
-60.68
-38.48
-11.46
17.32
44.51
67.28
83.79
93.32
96.16
93.28
86.06
76.06
64.84
53.83
44.21
36.72
31.65
28.79
27.55
27.17
26.98
26.57
25.88
25.06
24.29
23.55
22.50
20.54
17.03
11.53
4.00
-5.11
-15.01
-24.80
-33.74
-41.44
-47.95
-53.64
-59.04
-64.69
-70.96
-77.97
-85.46
-92.66
-98.20
-100.19
-96.71
-86.33
-68.84
-45.56
-19.16
6.97
29.68
46.78
57.36
61.72
60.87
56.06
48.47
39.19
29.30
19.92
12.19
7.00
4.66
4.88
6.85
9.59
12.39
15.03
17.67
20.59
23.68
26.41
27.94
27.70
25.79
23.16
21.23
21.20
23.29
26.51
28.87
28.13
22.56
11.54
-4.44
-24.03
-45.40
-66.53
-85.24
-99.14
-105.83
-103.40
-91.09
-69.87
-42.43
-12.64
15.52
38.94
55.95
66.32
70.79
70.44
66.30
59.28
50.34
40.67
31.65
24.57
20.37
19.28
20.83
23.93
27.22
29.40
29.54
27.25
22.74
16.68
9.92
3.22
-3.05
-8.94
-14.80
-21.08
-27.92
-35.12
-42.12
-48.39
-53.62
-57.97
-61.97
-66.31
-71.59
-78.09
-85.67
-93.61
-100.61
-104.82
-104.15
-96.78
-81.78
-59.64
-32.31
-2.83
25.41
49.52
67.68
79.34
84.94
85.57
82.46
76.71
69.26
60.83
52.17
44.05
37.21
32.24
29.41
28.57
29.28
30.90
32.79
34.47
35.57
35.89
35.26
33.59
30.83
26.97
22.01
15.95
8.76
0.45
-8.85
-18.81
-28.86
-38.40
-46.88
-54.00
-59.83
-64.72
-69.28
-74.26
-80.36
-87.93
-96.65
-105.21
-111.30
-112.07
-105.01
-88.88
-64.35
-34.05
-1.79
28.53
53.91
72.85
85.27
91.96
93.99
92.22
87.27
79.71
70.36
60.34
51.00
43.49
38.50
36.04
35.61
36.45
37.86
39.29
40.37
40.75
40.07
38.00
34.46
29.69
24.29
19.03
14.47
10.75
7.49
3.93
-0.77
-7.14
-15.24
-24.59
-34.47
-44.17
-53.38
-62.22
-71.16
-80.57
-90.40
-99.81
-107.08
-110.06
-106.69
-95.80
-77.54
-53.51
-26.36
0.90
25.60
45.88
60.76
69.98
73.69
72.28
66.47
57.33
46.34
35.23
25.64
18.81
15.25
14.78
16.60
19.67
22.94
25.70
27.60
28.68
29.04
28.74
27.54
25.01
20.65
14.21
5.90
-3.57
-13.17
-21.86
-28.97
-34.45
-38.93
-43.44
-49.11
-56.63
-65.91
-75.89
-84.57
-89.46
-88.16
-79.11
-62.12
-38.63
-11.33
16.49
41.75
62.32
77.17
86.28
90.19
89.60
85.19
77.65
67.81
56.85
46.25
37.56
32.10
30.55
32.73
37.63
43.68
49.21
52.83
53.73
51.71
47.01
40.12
31.50
21.66
11.08
0.26
-10.33
-20.32
-29.53
-37.96
-45.65
-52.67
-59.03
-64.72
-69.84
-74.70
-79.79
-85.64
-92.57
-100.28
-107.66
-112.75
-113.18
-106.77
-92.32
-70.13
-42.08
-11.24
18.87
45.20
65.68
79.50
86.83
88.51
85.67
79.50
71.23
62.08
53.19
45.52
39.67
35.88
34.02
33.77
34.69
36.39
38.48
40.53
42.03
42.44
41.30
38.43
33.95
28.25
21.84
15.08
8.11
0.84
-6.83
-14.88
-23.09
-31.02
-38.30
-44.73
-50.38
-55.49
-60.33
-65.06
-69.77
-74.41
-78.75
-82.21
-83.69
-81.67
-74.53
-61.18
-41.74
-17.72
8.17
32.79
53.38
68.27
76.97
79.96
78.23
72.87
64.93
55.36
45.09
35.06
26.18
19.23
14.76
12.99
13.72
16.31
19.84
23.28
25.72
26.65
25.93
23.78
20.55
16.54
11.84
6.42
0.16
-6.94
-14.66
-22.58
-30.16
-36.93
-42.65
-47.38
-51.44
-55.27
-59.40
-64.23
-70.10
-76.98
-84.31
-90.80
-94.52
-93.20
-85.03
-69.31
-46.98
-20.43
7.05
32.20
52.60
67.05
75.44
78.31
76.47
70.73
61.94
51.21
39.96
29.79
22.08
17.63
16.38
17.53
19.92
22.51
24.64
26.12
27.03
27.40
27.05
25.55
22.38
17.26
10.26
1.91
-6.91
-15.30
-22.57
-28.57
-33.69
-38.79
-44.82
-52.41
-61.54
-71.36
-80.23
-86.01
-86.54
-80.19
-66.38
-45.86
-20.67
6.34
32.12
54.13
70.73
81.30
86.07
85.73
81.22
73.58
63.87
53.24
42.79
33.57
26.37
21.61
19.27
19.00
20.15
21.98
23.83
25.14
25.57
24.89
22.96
19.73
15.15
9.20
1.93
-6.49
-15.72
-25.20
-34.27
-42.32
-49.07
-54.71
-59.88
-65.45
-72.16
-80.35
-89.73
-99.37
-107.77
-113.02
-113.18
-106.70
-92.91
-72.45
-47.29
-20.38
5.02
26.15
41.31
50.03
52.86
51.03
46.07
39.58
33.13
28.14
25.74
26.64
31.02
38.52
48.33
59.39
70.59
80.90
89.51
95.80
99.34
99.85
97.21
91.52
83.14
72.66
60.78
48.23
35.47
22.79
10.24
-2.12
-14.14
-25.59
-36.20
-45.86
-54.70
-63.16
-71.75
-80.96
-90.86
-100.99
-110.19
-116.77
-118.89
-114.95
-104.09
-86.37
-62.87
-35.46
-6.58
21.21
45.63
65.00
78.52
86.26
88.87
87.35
82.72
75.87
67.59
58.68
49.86
41.70
34.54
28.47
23.39
19.21
15.93
13.59
12.04
10.97
9.85
8.26
5.99
3.15
0.03
-3.15
-6.36
-9.69
-13.19
-16.73
-20.05
-23.03
-25.99
-29.65
-34.86
-42.14
-51.35
-61.58
-71.41
-79.15
-83.16
-81.95
-74.50
-60.45
-40.51
-16.44
9.05
32.91
52.61
66.63
74.74
77.70
76.68
72.74
66.55
58.48
48.83
38.22
27.71
18.75
12.75
10.58
12.09
16.22
21.30
25.68
28.18
28.28
25.93
21.25
14.28
5.04
-6.14
-18.41
-30.40
-40.55
-47.77
-51.84
-53.62
-54.69
-56.79
-61.19
-68.34
-77.68
-87.78
-96.59
-101.87
-101.59
-94.44
-80.18
-59.76
-35.19
-9.07
15.89
37.44
54.01
64.88
70.01
69.97
65.72
58.45
49.51
40.12
31.34
23.81
17.80
13.26
9.98
7.77
6.59
6.45
7.24
8.51
9.49
9.21
6.82
2.00
-4.93
-13.10
-21.33
-28.60
-34.35
-38.65
-42.14
-45.81
-50.61
-57.04
-64.83
-72.67
-78.41
-79.44
-73.50
-59.41
-37.73
-10.79
17.72
43.86
64.42
77.77
84.01
84.51
81.06
75.11
67.44
58.28
47.84
36.76
26.22
17.60
11.92
9.42
9.51
11.14
13.28
15.31
17.05
18.53
19.56
19.60
17.80
13.39
6.05
-3.76
-14.93
-25.96
-35.47
-42.62
-47.37
-50.48
-53.16
-56.69
-61.99
-69.28
-77.97
-86.68
-93.48
-96.19
-92.93
-82.60
-65.30
-42.40
-16.34
9.96
33.79
53.18
67.10
75.38
78.36
76.58
70.55
60.78
47.92
32.90
17.03
1.85
-11.02
-20.29
-25.28
-26.10
-23.54
-18.78
-13.14
-7.71
-3.24
-0.15
1.37
1.28
-0.39
-3.54
-8.05
-13.74
-20.51
-28.34
-37.30
-47.46
-58.70
-70.47
-81.70
-90.84
-96.05
-95.65
-88.58
-74.70
-54.88
-30.74
-4.24
22.70
48.41
71.36
90.08
103.08
109.18
107.92
99.92
86.90
71.38
56.02
42.96
33.46
27.80
25.50
25.58
26.91
28.41
29.21
28.88
27.54
25.86
24.94
25.89
29.33
35.13
42.21
48.78
52.77
52.32
46.40
35.18
20.24
4.43
-8.74
-16.04
-15.55
-7.38
6.34
22.16
36.54
46.94
52.44
53.43
51.01
46.23
39.71
31.72
22.48
12.55
2.78
-5.82
-12.46
-16.73
-18.71
-18.76
-17.42
-15.16
-12.47
-9.77
-7.52
-6.12
-5.81
-6.57
-8.06
-9.77
-11.29
-12.64
-14.42
-17.67
-23.46
-32.28
-43.63
-55.80
-66.22
-72.13
-71.35
-63.00
-47.70
-27.41
-4.85
17.19
36.43
51.35
61.30
66.25
66.69
63.39
57.36
49.77
41.79
34.42
28.27
23.51
19.97
17.44
15.87
15.49
16.64
19.42
23.48
27.88
31.41
33.02
32.19
29.13
24.50
19.08
13.34
7.31
0.72
-6.79
-15.48
-25.41
-36.35
-47.71
-58.29
-66.37
-69.88
-67.09
-57.30
-41.28
-21.22
-0.06
19.29
34.79
45.45
51.23
52.68
50.54
45.58
38.60
30.52
22.29
14.81
8.76
4.51
2.10
1.32
1.87
3.40
5.62
8.21
10.94
13.56
15.82
17.44
18.03
17.12
14.26
9.17
1.89
-7.25
-17.87
-29.77
-42.96
-57.49
-72.94
-88.02
-100.48
-107.59
-106.97
-97.58
-80.19
-57.31
-32.41
-8.94
10.55
24.83
33.81
38.08
38.41
35.38
29.48
21.24
11.50
1.51
-7.25
-13.42
-16.13
-15.27
-11.52
-6.16
-0.62
3.93
6.81
7.86
7.25
5.24
2.06
-2.10
-6.98
-12.22
-17.42
-22.44
-27.53
-33.30
-40.34
-48.74
-57.57
-64.92
-68.16
-64.77
-53.14
-33.15
-6.34
24.38
55.46
83.49
105.88
121.14
128.89
129.57
124.13
113.78
99.95
84.02
67.27
50.59
34.45
18.91
3.92
-10.30
-23.17
-33.88
-41.77
-46.76
-49.55
-51.39
-53.61
-56.93
-61.16
-65.14
-67.22
-65.96
-60.84
-52.62
-43.16
-34.71
-29.01
-26.47
-25.93
-25.03
-20.92
-11.19
5.42
28.64
56.71
86.76
115.38
139.41
156.57
165.89
167.68
163.21
154.12
141.94
127.70
111.97
95.01
76.99
58.18
39.01
20.11
2.14
-14.37
-29.19
-42.55
-55.03
-67.38
-80.04
-92.72
-104.16
-112.37
-115.35
-112.11
-103.36
-91.57
-80.35
-73.28
-72.73
-79.01
-90.16
-102.64
-112.35
-115.60
-109.72
-93.39
-66.78
-31.95
7.65
47.92
85.09
116.24
139.62
154.42
160.17
156.49
142.49
118.31
86.10
49.86
13.97
-18.58
-46.95
-72.60
-97.64
-124.91
-155.18
-186.30
-214.04
-233.92
-242.86
-239.46
-224.45
-199.91
-171.65
-145.65
-125.76
-112.91
-105.97
-102.99
-101.71
-100.88
-99.50
-100.43
-106.52
-118.63
-135.46
-155.01
-175.60
-194.98
-210.85
-200.76
-152.40
-71.99
18.08
95.07
147.30
172.02
178.10
172.30
159.04
137.98
108.75
74.87
42.41
16.99
1.00
-6.23
-8.27
-8.63
-12.10
-21.21
-35.08
-50.17
-62.38
-68.88
-68.19
-60.80
-47.88
-32.54
-17.71
-4.71
7.27
20.55
37.98
62.03
93.08
129.10
164.80
193.75
211.01
215.15
208.67
196.66
184.56
175.79
171.01
168.27
164.69
158.04
147.41
132.95
115.40
95.90
75.94
57.59
42.88
33.25
28.92
28.77
30.72
32.47
32.18
28.91
22.80
14.75
5.97
-2.69
-11.44
-21.70
-35.60
-55.14
-81.30
-113.41
-149.18
-185.11
-216.92
-240.16
-251.04
-247.41
-229.60
-200.33
-163.58
-122.72
-79.07
-32.08
18.85
72.10
122.62
163.18
187.34
192.60
181.43
159.93
135.15
112.75
96.28
87.76
88.40
98.67
117.63
142.30
167.98
189.74
204.14
210.09
208.35
199.91
184.69
161.29
128.38
86.65
39.93
-5.38
-42.78
-68.53
-83.30
-91.44
-98.10
-106.14
-114.65
-120.27
-120.20
-114.89
-108.57
-106.88
-113.40
-126.88
-141.25
-148.52
-142.73
-122.85
-92.79
-58.88
-26.54
2.00
27.92
53.90
81.75
110.80
138.10
160.05
174.27
180.62
180.73
176.52
168.86
157.17
139.96
115.83
84.30
45.85
1.99
-44.95
-91.86
-135.03
-170.62
-195.38
-207.38
-206.30
-193.14
-169.34
-136.03
-94.24
-45.54
7.00
58.81
104.79
140.79
164.45
175.25
173.69
159.84
133.06
92.70
40.11
-19.76
-78.79
-128.04
-160.80
-174.18
-169.81
-152.46
-128.54
-104.06
-83.22
-68.19
-59.63
-57.37
-59.54
-63.55
-66.43
-67.08
-66.57
-67.10
-70.57
-77.38
-86.10
-92.27
-90.59
-76.21
-48.06
-8.79
37.75
88.55
141.99
188.93
217.52
219.79
200.11
170.37
141.83
121.24
110.48
107.82
109.65
118.23
133.12
154.80
180.01
200.37
205.45
186.91
142.01
74.33
-6.97
-93.66
-171.93
-225.52
-244.66
-230.20
-192.07
-143.39
-96.37
-59.40
-36.77
-27.04
-25.75
-27.73
-28.50
-26.15
-21.21
-17.56
-17.09
-20.68
-27.46
-36.82
-49.25
-65.06
-84.13
-104.53
-123.55
-138.48
-147.47
-150.62
-151.17
-154.66
-161.31
-171.06
-181.32
-188.03
-187.21
-175.52
-152.35
-121.01
-87.34
-56.72
-32.61
-14.78
0.37
18.58
46.92
89.35
143.60
201.60
253.40
290.23
307.95
308.11
284.40
239.89
187.37
141.64
110.05
91.96
82.17
75.24
67.43
59.90
52.15
43.06
30.46
11.46
-13.64
-42.24
-70.88
-96.38
-116.77
-129.45
-134.16
-134.40
-136.23
-140.72
-144.00
-142.87
-131.18
-105.43
-65.96
-16.66
37.26
89.34
137.65
182.65
225.27
257.75
272.09
265.38
240.81
213.92
184.12
150.75
114.72
75.26
36.94
5.82
-13.61
-21.06
-19.80
-18.79
-26.06
-47.37
-81.43
-119.80
-151.71
-169.13
-169.61
-156.42
-142.42
-130.64
-122.20
-116.36
-111.13
-104.80
-96.90
-88.35
-81.13
-78.03
-75.54
-72.56
-68.63
-63.96
-59.83
-58.24
-61.02
-68.74
-80.28
-91.07
-96.39
-91.74
-74.74
-46.71
-12.72
19.68
42.90
51.80
46.19
29.57
8.57
-9.56
-19.52
-19.18
-9.38
7.29
27.94
50.49
73.01
93.89
111.20
122.72
126.64
122.34
110.85
94.62
76.71
59.55
44.58
32.20
22.07
13.68
6.72
1.14
-2.95
-5.62
-7.40
-9.12
-11.77
-16.27
-23.28
-33.11
-45.55
-59.85
-74.82
-88.84
-99.89
-105.88
-104.98
-96.17
-79.62
-56.56
-29.27
-0.83
25.54
47.25
62.78
71.80
74.84
72.86
67.40
60.09
52.15
44.16
36.37
28.93
21.85
14.99
8.21
2.25
-1.53
-2.22
0.11
4.58
10.05
15.44
19.99
23.43
26.98
32.74
42.09
54.96
70.31
86.99
104.24
122.17
134.00
135.59
129.14
121.76
119.60
123.53
129.86
133.44
130.44
124.21
115.68
107.12
100.53
96.62
94.94
94.66
94.95
95.19
92.83
87.46
80.24
72.38
64.42
56.22
47.14
36.10
21.69
2.42
-22.33
-51.86
-84.78
-119.45
-154.15
-187.43
-218.48
-247.30
-274.37
-299.69
-322.08
-339.43
-349.16
-348.89
-336.94
-312.78
-277.09
-231.67
-179.14
-122.75
-66.38
-14.09
30.62
65.64
90.63
106.92
116.82
122.84
127.03
130.72
134.47
138.19
141.32
142.89
141.80
137.07
128.29
115.67
99.87
81.47
60.71
37.56
12.15
-14.63
-40.94
-64.35
-82.63
-94.58
-100.50
-101.96
-100.95
-99.02
-96.73
-93.61
-88.36
-79.44
-65.59
-46.47
-22.63
4.60
33.38
61.59
86.94
107.52
122.04
129.81
130.28
123.13
108.54
87.32
61.03
31.33
0.60
-28.45
-53.07
-71.87
-84.39
-90.88
-92.21
-89.97
-87.38
-87.50
-92.47
-102.62
-117.55
-135.48
-153.35
-167.65
-175.53
-176.55
-170.97
-159.14
-140.95
-117.69
-91.00
-62.44
-33.31
1.85
42.39
82.87
113.17
133.73
147.54
157.40
164.45
169.15
171.54
170.56
166.13
159.10
151.18
142.37
131.92
119.22
104.45
88.52
72.08
56.41
43.10
33.80
28.35
25.69
24.49
23.63
22.25
19.21
14.04
6.89
-1.41
-10.59
-20.57
-31.15
-41.92
-52.20
-61.26
-67.95
-70.90
-68.82
-61.35
-49.01
-32.97
-14.77
4.00
21.80
37.33
49.66
58.17
62.43
62.33
58.09
50.25
39.43
26.34
11.77
-3.37
-17.94
-30.77
-40.86
-47.78
-51.84
-54.02
-55.67
-57.95
-61.32
-65.38
-69.09
-71.35
-71.50
-69.77
-67.15
-65.07
-64.52
-65.66
-67.74
-69.43
-69.33
-66.31
-59.70
-49.30
-35.69
-19.93
-3.63
11.24
22.79
29.95
32.88
32.76
30.84
26.88
19.22
5.43
-16.37
-45.86
-79.74
-112.62
-138.85
-154.38
-158.40
-152.22
-138.21
-118.70
-95.57
-70.37
-44.70
-19.88
7.13
37.33
70.72
104.99
135.11
154.86
159.73
149.56
129.29
107.27
90.95
84.23
86.18
92.08
96.41
97.37
95.02
90.73
86.19
81.90
77.48
71.97
64.18
53.95
41.23
29.67
23.38
25.50
36.79
54.34
73.44
88.79
96.80
96.92
91.47
82.60
72.19
61.59
50.65
40.00
29.84
20.36
12.06
5.30
-2.51
-15.34
-36.70
-67.57
-105.97
-147.47
-186.18
-216.41
-224.68
-205.47
-165.31
-118.79
-78.37
-50.00
-34.46
-30.17
-34.39
-43.91
-57.31
-73.44
-93.18
-114.01
-133.17
-148.28
-157.31
-158.51
-151.54
-139.55
-127.13
-118.05
-113.13
-111.42
-108.99
-103.77
-94.78
-82.62
-69.99
-59.88
-53.99
-51.57
-52.51
-58.07
-70.23
-89.16
-111.73
-131.75
-141.45
-134.07
-105.36
-58.50
-2.82
50.22
92.55
121.86
140.86
154.88
170.02
193.62
229.12
276.57
334.37
401.00
474.12
548.70
615.92
665.95
693.64
695.51
671.02
623.09
557.75
481.51
398.53
309.29
190.57
42.44
-114.25
-250.83
-348.04
-401.24
-416.50
-405.88
-389.23
-376.92
-370.89
-370.93
-375.61
-381.98
-385.60
-382.40
-365.39
-333.23
-287.81
-231.82
-170.94
-112.16
-61.62
-22.77
3.50
17.73
20.49
14.35
4.31
-5.15
-11.52
-14.74
-16.88
-21.07
-30.38
-46.96
-69.28
-92.21
-109.45
-115.59
-107.64
-85.71
-52.87
-14.47
22.86
54.01
76.23
89.20
94.70
95.74
95.33
95.48
96.31
96.08
93.59
87.74
77.73
63.24
44.84
23.80
2.68
-15.99
-30.39
-37.39
-35.28
-24.65
-8.18
10.50
27.37
40.23
47.46
48.46
47.94
51.34
61.64
77.73
95.67
110.22
120.20
127.14
134.89
152.65
186.91
237.20
296.23
354.54
403.67
441.51
467.56
452.80
381.31
260.29
118.45
-12.49
-103.70
-159.34
-186.62
-192.80
-184.34
-162.68
-128.50
-84.93
-38.42
3.31
32.28
45.34
41.01
19.26
-14.57
-54.09
-94.34
-132.82
-168.30
-200.38
-226.06
-242.43
-247.34
-237.56
-212.11
-173.89
-128.99
-83.49
-41.19
-0.64
41.51
87.37
136.50
184.17
222.41
243.15
241.74
218.42
178.49
129.23
77.38
28.25
-14.78
-49.82
-75.85
-92.41
-99.84
-99.47
-94.07
-87.57
-83.92
-85.76
-93.61
-105.86
-119.84
-133.40
-146.01
-159.05
-174.79
-194.99
-219.63
-246.43
-271.46
-290.35
-299.42
-296.42
-280.47
-251.70
-210.88
-159.29
-98.83
-32.23
36.99
105.02
168.38
224.59
272.32
311.15
340.81
360.46
368.31
362.10
340.03
301.91
249.92
188.50
123.50
60.89
5.39
-40.39
-76.09
-102.88
-122.41
-135.71
-142.40
-140.88
-129.20
-106.60
-74.86
-39.08
-7.09
12.72
14.33
-3.46
-36.37
-76.32
-114.85
-146.39
-169.98
-188.61
-207.08
-229.54
-258.00
-292.20
-329.96
-367.97
-402.27
-428.59
-443.43
-445.67
-437.31
-422.88
-407.34
-393.59
-381.22
-367.27
-347.89
-320.56
-285.18
-243.42
-197.32
-148.04
-95.40
-38.94
20.93
83.05
146.04
208.87
271.36
333.52
394.36
451.39
499.95
533.99
549.72
547.25
530.24
504.63
476.54
450.48
429.77
415.19
404.32
395.35
387.42
379.49
370.50
359.97
348.88
342.03
344.46
357.13
379.37
407.63
434.20
450.11
448.55
427.25
390.97
346.15
295.68
243.67
195.21
153.98
122.08
99.24
68.02
20.33
-25.34
-64.16
-98.85
-126.59
-145.06
-154.74
-159.47
-164.77
-172.90
-184.69
-202.21
-223.85
-245.76
-265.36
-281.34
-293.42
-301.66
-304.19
-300.22
-292.72
-284.08
-275.99
-270.81
-270.83
-277.31
-289.87
-305.14
-319.22
-330.23
-336.49
-336.92
-331.92
-322.16
-307.56
-286.73
-256.93
-216.17
-165.13
-106.33
-43.73
17.83
73.78
120.65
156.40
180.66
194.21
198.37
195.24
187.11
175.87
162.85
148.94
134.89
121.43
109.18
98.37
88.66
79.25
69.28
58.30
46.47
34.55
23.57
14.37
7.20
1.44
-4.41
-12.37
-24.36
-41.46
-63.50
-89.29
-117.08
-145.12
-171.92
-196.01
-215.75
-229.45
-235.85
-234.87
-227.90
-217.24
-205.04
-192.13
-177.60
-159.41
-135.51
-105.09
-69.01
-29.47
10.81
49.56
85.43
117.92
147.04
172.63
194.00
209.77
218.35
218.51
210.03
194.03
172.75
148.97
125.20
103.14
83.52
66.26
50.90
36.86
23.55
10.35
-3.32
-17.89
-33.38
-49.28
-64.60
-78.23
-89.29
-97.41
-102.71
-105.64
-106.63
-105.88
-103.32
-98.76
-92.08
-83.49
-73.66
-63.78
-55.41
-50.16
-49.40
-53.85
-63.26
-76.24
-90.45
-102.94
-110.85
-112.17
-106.28
-94.14
-77.98
-60.60
-44.56
-31.58
-22.37
-16.89
-14.74
-15.65
-19.43
-25.75
-33.73
-41.78
-47.76
-49.53
-45.56
-35.39
-19.66
0.09
21.94
43.98
64.62
82.86
98.38
111.47
122.92
133.59
144.06
154.40
164.12
172.47
178.69
182.23
182.81
180.36
174.98
166.97
156.81
145.10
132.28
118.52
103.63
87.35
69.81
51.89
35.38
22.54
15.52
15.58
22.78
35.92
52.99
71.68
89.94
106.14
119.08
127.76
131.42
129.58
122.40
110.79
96.32
80.71
65.22
50.18
35.15
19.45
2.83
-14.26
-30.91
-46.48
-61.13
-75.74
-91.37
-108.52
-126.73
-144.79
-161.13
-174.17
-182.37
-184.30
-178.80
-165.58
-145.78
-122.21
-98.78
-79.37
-66.61
-61.27
-62.08
-66.47
-71.16
-72.89
-69.11
-58.47
-41.34
-19.76
3.17
24.40
42.06
55.92
67.14
77.26
87.15
96.33
103.08
105.13
100.59
88.78
70.55
48.09
24.30
2.04
-16.51
-30.19
-38.82
-43.03
-44.07
-43.71
-43.93
-46.47
-51.94
-59.27
-65.68
-67.58
-62.13
-48.59
-28.90
-6.93
12.99
27.81
36.55
40.08
40.24
38.81
36.83
34.56
31.83
28.32
23.75
17.99
11.20
4.02
-2.40
-6.53
-6.87
-2.54
6.18
17.81
29.97
40.18
46.64
48.68
46.98
43.14
39.11
36.52
36.16
37.70
39.80
40.55
38.08
31.15
19.50
3.88
-14.35
-33.58
-52.38
-69.68
-84.68
-96.73
-105.09
-108.83
-106.95
-98.62
-83.64
-62.83
-38.13
-12.40
11.24
30.19
43.01
49.53
50.50
47.01
40.01
30.17
18.03
4.31
-9.84
-23.05
-33.93
-41.46
-45.18
-45.06
-41.42
-34.63
-25.07
-13.22
0.26
14.43
28.22
40.71
51.35
60.19
67.68
74.39
80.65
86.33
90.94
93.92
95.00
94.36
92.62
90.55
88.81
87.73
87.25
87.04
86.72
86.04
84.97
83.70
82.47
81.36
80.20
78.57
75.97
72.09
66.98
61.06
54.98
49.24
44.00
39.03
33.85
27.99
21.12
13.11
4.00
-5.95
-16.16
-25.58
-32.77
-36.23
-35.00
-29.08
-19.55
-8.13
3.64
14.95
25.83
36.80
48.16
59.73
70.86
80.85
89.27
95.98
100.79
103.06
101.57
94.91
81.96
62.44
37.18
7.91
-23.15
-53.66
-81.60
-105.53
-124.72
-139.15
-149.25
-155.52
-158.23
-157.36
-152.98
-145.71
-136.99
-128.92
-123.59
-122.46
-125.99
-133.79
-145.14
-159.22
-175.01
-190.92
-204.48
-212.63
-212.49
-202.30
-182.08
-153.51
-119.31
-82.49
-45.76
-11.44
18.52
42.59
59.90
70.53
75.54
76.59
75.44
73.33
70.80
67.89
64.56
60.94
57.42
54.38
51.98
49.96
47.85
45.21
41.84
37.89
33.65
29.38
25.12
20.69
15.78
10.15
3.78
-3.13
-10.21
-17.09
-23.49
-29.28
-34.55
-39.51
-44.53
-49.96
-56.11
-63.14
-71.02
-79.54
-88.32
-96.79
-104.16
-109.41
-111.42
-109.23
-102.34
-91.03
-76.37
-60.10
-44.39
-31.45
-23.21
-20.83
-24.40
-32.75
-43.75
-54.85
-63.72
-68.63
-68.45
-62.49
-50.40
-32.25
-8.83
18.35
47.32
76.15
103.18
126.87
145.55
157.29
160.57
155.26
143.53
129.62
118.42
113.42
115.12
120.77
125.81
126.10
119.68
107.35
91.86
76.36
63.11
52.97
45.62
40.31
36.33
33.23
30.70
28.42
26.05
23.25
19.78
15.47
10.19
3.95
-3.07
-10.52
-18.11
-25.98
-34.82
-45.73
-59.56
-76.21
-94.32
-111.68
-126.08
-136.28
-142.43
-145.63
-147.27
-148.11
-147.97
-145.92
-140.80
-131.87
-119.16
-103.46
-85.96
-67.93
-50.48
-34.43
-20.23
-7.94
2.60
11.68
19.54
26.68
33.47
40.18
46.97
54.01
61.50
69.65
78.56
88.12
98.60
109.77
120.70
129.92
136.11
138.88
138.96
137.83
137.03
138.89
144.50
153.29
163.24
172.08
178.27
181.25
181.09
177.95
173.99
170.74
168.26
165.08
159.38
150.34
138.40
124.73
110.56
99.66
94.95
97.41
105.86
118.39
133.73
151.52
171.81
177.09
156.28
109.26
47.79
-13.40
-65.25
-105.78
-137.21
-163.03
-186.25
-205.63
-218.82
-223.91
-220.90
-211.44
-197.87
-182.72
-168.20
-155.79
-143.95
-130.96
-115.98
-100.21
-85.69
-73.74
-64.51
-57.49
-52.23
-47.42
-42.28
-36.73
-31.16
-25.97
-21.23
-17.08
-14.13
-13.39
-15.14
-19.31
-25.64
-33.34
-41.59
-49.41
-55.86
-60.18
-61.94
-60.96
-57.48
-52.25
-46.25
-40.49
-35.65
-32.03
-29.63
-28.20
-27.39
-26.76
-25.85
-24.28
-22.02
-19.41
-17.27
-16.71
-18.86
-24.60
-34.16
-46.92
-61.37
-75.36
-86.69
-93.73
-96.02
-94.24
-89.76
-83.76
-76.47
-66.95
-53.46
-34.47
-9.49
20.43
52.76
84.04
110.51
128.85
136.71
133.29
119.47
97.88
72.39
47.38
26.77
13.15
7.17
7.61
12.11
18.19
24.23
29.82
35.25
40.81
46.12
50.09
51.73
50.89
48.58
46.37
45.29
44.97
43.64
39.10
30.16
17.45
3.28
-9.43
-18.37
-22.67
-23.00
-21.06
-19.01
-18.90
-22.48
-30.87
-44.23
-61.44
-79.83
-95.40
-103.58
-100.50
-84.20
-55.35
-17.22
25.21
66.54
102.26
129.69
148.15
158.63
162.98
163.17
160.78
156.74
151.00
142.42
129.08
109.09
82.01
49.92
17.40
-10.06
-28.44
-36.99
-38.55
-37.90
-39.16
-43.92
-50.97
-57.89
-63.03
-66.65
-70.50
-76.34
-84.48
-93.39
-100.42
-103.28
-101.11
-94.82
-86.51
-78.53
-72.51
-69.02
-67.69
-67.72
-68.43
-69.35
-70.02
-69.69
-67.20
-61.35
-51.48
-38.04
-22.62
-7.41
5.49
14.81
20.15
21.84
20.51
16.90
11.75
5.93
0.47
-3.65
-5.71
-5.49
-3.30
0.22
4.39
8.86
13.60
18.80
24.57
30.61
36.09
39.88
41.00
39.06
34.51
28.59
22.85
18.60
16.47
16.27
17.10
17.73
16.83
13.33
6.60
-3.26
-15.43
-28.48
-40.89
-51.45
-59.67
-65.60
-69.51
-71.40
-70.86
-67.43
-61.16
-53.00
-44.74
-38.38
-35.35
-36.06
-40.01
-46.42
-54.74
-64.79
-76.57
-89.76
-103.46
-116.25
-126.69
-133.88
-137.70
-138.56
-136.88
-132.80
-125.99
-115.78
-101.39
-82.14
-57.91
-29.31
2.08
33.84
62.75
85.38
99.23
103.82
101.23
95.57
91.46
92.13
98.63
108.87
118.71
123.95
122.53
115.38
105.67
97.18
92.67
94.22
101.68
113.01
125.32
136.25
144.70
150.69
154.83
157.91
162.49
170.11
180.52
191.96
202.33
209.94
213.54
212.10
205.02
194.84
184.13
174.48
166.51
160.67
157.48
156.84
157.44
142.33
102.93
42.83
-24.41
-84.97
-130.84
-159.64
-172.71
-173.70
-168.57
-159.31
-147.27
-134.34
-122.85
-114.53
-109.98
-109.19
-112.24
-117.87
-123.37
-126.93
-128.29
-128.35
-128.07
-127.59
-126.38
-123.60
-118.50
-109.53
-96.27
-79.86
-62.70
-47.45
-36.16
-29.97
-29.10
-32.87
-39.42
-46.89
-53.83
-59.49
-63.56
-65.85
-66.34
-65.16
-62.66
-59.18
-55.20
-51.12
-47.16
-43.16
-38.78
-33.85
-28.65
-23.94
-20.65
-19.50
-20.57
-23.36
-27.00
-30.53
-33.14
-34.11
-32.77
-28.66
-21.64
-12.13
-1.15
9.91
19.69
27.19
31.91
33.79
33.08
30.19
25.79
20.79
16.27
13.27
12.48
14.10
17.70
22.52
27.61
32.11
35.38
36.94
36.56
34.14
29.79
23.83
16.87
9.82
3.81
-0.11
-1.25
0.35
3.85
7.94
11.32
13.17
13.46
12.79
11.94
11.44
11.34
11.33
11.07
10.46
9.64
8.85
8.12
7.29
6.07
4.37
2.39
0.57
-0.63
-1.07
-1.00
-1.05
-2.04
-4.60
-8.91
-14.45
-19.96
-23.65
-23.70
-18.87
-9.07
4.49
19.68
34.19
46.38
55.77
62.92
68.83
74.11
78.60
81.45
81.61
78.50
72.34
64.07
55.00
46.18
38.17
31.04
24.77
19.58
15.90
14.14
14.37
16.12
18.26
19.34
18.04
13.61
6.07
-3.85
-15.06
-26.37
-36.41
-44.09
-48.77
-50.42
-49.64
-47.48
-45.18
-43.84
-44.02
-44.89
-45.25
-44.12
-41.05
-36.00
-29.06
-20.50
-10.93
-1.39
8.06
16.95
24.30
29.00
30.72
30.15
28.50
26.64
24.69
24.16
25.82
29.29
33.44
37.65
42.44
49.16
59.21
73.48
94.83
124.31
159.93
196.85
229.60
254.25
269.55
277.06
263.44
224.59
167.91
108.60
58.81
21.58
-6.70
-30.88
-53.71
-75.49
-92.62
-102.61
-105.92
-105.49
-104.02
-102.36
-99.69
-94.92
-87.95
-78.29
-66.91
-55.66
-47.06
-42.04
-39.69
-38.02
-35.31
-31.06
-25.24
-18.87
-13.47
-10.24
-8.78
-7.95
-6.15
-2.00
4.79
13.23
21.64
28.53
33.16
36.30
38.91
41.34
43.95
46.42
47.22
45.01
39.44
31.22
22.30
12.87
3.15
-5.58
-12.28
-17.85
-23.91
-32.15
-43.93
-59.72
-81.38
-108.91
-139.62
-158.37
-154.29
-126.92
-86.83
-59.67
-51.22
-61.18
-86.84
-117.34
-146.32
-171.89
-194.59
-215.38
-234.30
-251.48
-268.01
-283.08
-293.68
-297.84
-295.41
-286.76
-271.52
-231.36
-159.12
-64.51
33.12
117.77
181.69
224.32
248.66
258.98
259.72
252.60
238.53
219.87
202.33
187.94
177.63
171.26
168.32
168.43
169.27
168.60
165.47
160.26
152.98
143.65
132.25
118.13
102.82
87.57
73.95
63.60
57.80
56.37
58.27
61.66
64.36
64.38
59.15
47.03
28.14
4.43
-21.15
-45.38
-65.93
-81.90
-93.54
-102.32
-109.64
-116.24
-122.04
-126.66
-129.83
-131.78
-133.26
-135.05
-137.65
-140.71
-142.94
-142.39
-137.03
-125.40
-107.06
-82.71
-53.93
-22.91
7.90
36.12
59.74
77.32
88.21
92.52
90.91
84.37
74.01
61.12
47.33
34.57
24.85
19.57
19.16
22.79
28.84
35.46
41.26
45.48
47.84
48.04
45.49
39.38
29.09
14.67
-2.85
-21.59
-39.26
-53.85
-64.13
-69.88
-71.64
-70.36
-67.07
-62.68
-58.07
-54.04
-51.34
-50.43
-51.33
-53.50
-55.94
-57.42
-56.68
-52.83
-45.52
-35.29
-23.62
-12.74
-4.91
-1.52
-2.47
-6.11
-10.16
-12.87
-13.99
-14.71
-16.73
-21.06
-27.09
-32.91
-36.27
-35.90
-32.18
-26.87
-22.12
-19.41
-18.90
-19.47
-19.40
-17.14
-11.95
-4.21
4.84
13.53
20.45
24.87
26.92
27.36
27.15
27.10
27.65
28.92
30.78
32.81
34.31
34.40
32.36
28.04
22.16
16.17
11.71
9.82
10.57
13.06
15.87
17.75
18.01
16.61
13.79
9.81
4.78
-1.20
-7.89
-14.85
-21.58
-27.78
-33.41
-38.64
-43.52
-47.72
-50.42
-50.64
-47.74
-41.68
-33.17
-23.29
-13.20
-3.80
4.45
11.48
17.30
21.72
24.41
25.05
23.63
20.49
16.24
11.59
7.31
3.95
1.80
0.96
1.48
3.50
6.95
11.45
16.35
21.45
26.54
31.23
35.11
37.94
40.03
41.68
43.04
43.95
45.27
47.57
50.66
53.82
56.28
58.24
59.88
61.23
61.96
63.37
66.25
70.02
73.13
74.25
74.23
74.77
77.98
85.57
100.85
125.24
156.66
189.91
218.59
238.46
246.58
241.39
210.24
150.54
72.44
-6.39
-69.87
-117.64
-151.19
-173.27
-184.37
-188.27
-188.24
-187.52
-188.08
-189.57
-189.22
-182.09
-165.18
-138.88
-106.95
-72.52
-38.91
-9.67
11.73
22.59
22.56
12.37
-6.21
-30.77
-57.07
-81.26
-101.37
-117.55
-131.18
-142.98
-152.96
-160.20
-163.40
-160.83
-151.70
-136.63
-117.25
-95.20
-71.13
-45.21
-17.71
10.34
37.34
61.16
79.77
91.77
96.81
95.78
90.25
82.11
73.09
64.49
57.01
50.69
45.07
39.51
33.57
27.25
21.14
16.09
12.90
11.96
13.03
15.30
17.68
19.22
19.42
18.35
16.50
14.45
12.52
10.69
8.80
6.88
5.48
5.59
8.43
14.83
25.10
39.07
56.51
77.64
102.86
131.75
161.86
188.56
206.53
212.18
205.69
191.29
175.52
164.27
160.56
163.76
170.78
177.91
182.35
182.49
177.41
166.42
148.86
124.67
94.80
61.28
26.73
-6.40
-36.22
-61.65
-82.33
-98.67
-111.42
-121.60
-130.46
-139.50
-150.37
-164.41
-181.90
-201.36
-219.78
-233.53
-240.12
-239.40
-233.71
-226.70
-221.32
-218.49
-216.84
-213.93
-207.69
-197.58
-184.44
-169.54
-153.46
-135.67
-115.11
-91.29
-65.26
-39.56
-17.42
-1.33
7.95
11.61
12.06
11.78
12.32
13.88
15.71
16.87
16.88
16.04
15.16
15.15
16.53
19.28
22.96
26.89
30.39
32.96
34.33
34.52
33.82
32.82
31.97
31.28
30.20
27.87
23.55
17.16
9.40
1.34
-5.82
-11.56
-16.26
-20.92
-26.55
-33.55
-41.37
-48.77
-54.23
-56.08
-53.22
-45.43
-33.25
-17.82
-0.63
16.77
32.70
45.56
55.01
61.12
63.92
63.28
59.29
52.20
43.08
32.93
22.47
13.81
8.27
5.54
4.00
2.17
-0.78
-3.67
-5.26
-4.77
0.91
14.06
34.51
59.81
86.96
113.07
137.97
161.86
184.89
210.88
242.48
278.83
315.69
348.14
371.93
386.97
393.91
370.45
305.64
207.53
100.13
7.01
-52.97
-86.33
-100.33
-101.00
-93.14
-78.31
-57.57
-34.39
-14.22
-1.93
-0.86
-9.48
-25.04
-44.63
-62.59
-74.80
-81.26
-85.28
-90.63
-99.64
-110.34
-119.68
-125.10
-123.58
-114.90
-102.92
-93.33
-90.30
-94.67
-102.82
-110.18
-113.37
-109.83
-100.11
-88.18
-78.96
-76.30
-82.07
-96.20
-118.74
-149.83
-187.95
-221.76
-239.13
-232.76
-205.10
-165.55
-123.80
-86.59
-60.66
-42.15
-26.98
-13.45
-1.53
8.08
15.03
20.61
25.24
29.32
34.02
39.49
44.67
48.20
49.14
47.70
45.08
42.60
41.43
42.69
46.09
50.23
53.52
54.80
53.65
50.08
43.92
34.84
22.98
8.41
-8.37
-26.13
-42.88
-56.17
-63.45
-62.81
-53.31
-35.20
-10.44
17.69
45.36
68.96
85.89
94.98
96.34
91.27
81.82
70.27
58.71
48.56
40.22
33.09
25.94
17.55
7.28
-4.57
-17.04
-28.96
-39.47
-48.31
-55.85
-62.84
-70.07
-78.09
-86.75
-94.95
-100.63
-101.16
-94.27
-78.82
-55.35
-25.82
7.06
40.62
72.60
101.14
124.56
141.39
150.82
153.24
150.46
145.20
140.25
137.41
137.00
138.09
139.04
138.27
134.83
128.63
120.50
112.00
104.97
101.02
101.00
104.64
110.72
117.41
122.80
125.23
123.36
116.18
103.12
84.32
60.76
34.24
6.82
-19.87
-45.11
-69.04
-92.05
-114.06
-134.10
-150.61
-162.17
-168.15
-168.99
-165.82
-159.92
-152.22
-143.23
-133.31
-122.99
-113.05
-104.33
-97.25
-91.58
-86.46
-80.91
-74.39
-67.22
-60.59
-56.11
-54.95
-57.32
-62.14
-67.68
-72.43
-75.81
-78.38
-81.44
-86.11
-92.50
-99.32
-104.07
-103.64
-95.21
-77.13
-49.44
-13.87
26.49
68.12
107.80
143.38
173.88
199.26
219.74
235.11
244.54
246.76
240.78
226.70
206.24
182.59
159.53
140.03
124.89
112.46
99.36
82.26
59.62
32.58
4.55
-20.31
-38.96
-50.63
-56.94
-60.96
-65.87
-73.71
-84.90
-98.32
-112.05
-123.93
-132.10
-135.23
-132.51
-123.70
-109.19
-90.08
-68.11
-45.63
-25.19
-9.20
0.61
3.54
0.14
-7.91
-18.32
-28.69
-37.19
-42.95
-46.12
-47.62
-48.62
-49.98
-51.82
-53.51
-53.87
-51.82
-46.97
-39.97
-32.36
-25.92
-21.98
-20.71
-21.17
-21.78
-21.25
-19.11
-15.94
-12.87
-10.98
-10.68
-11.56
-12.63
-12.78
-11.19
-7.49
-1.82
5.31
13.26
21.43
29.35
36.66
42.97
47.82
50.58
50.73
48.05
42.93
36.39
29.78
24.42
21.18
20.35
21.55
23.95
26.28
27.04
24.86
18.90
9.34
-2.55
-14.76
-25.19
-32.26
-35.39
-34.93
-31.96
-27.78
-23.61
-20.31
-18.14
-16.74
-15.25
-12.67
-8.36
-2.33
4.69
11.63
17.53
22.00
25.38
28.81
33.78
41.34
51.32
62.00
70.58
74.58
73.25
68.43
63.86
63.47
69.42
81.05
95.38
108.73
118.56
124.42
127.68
130.34
133.90
138.78
144.52
150.34
155.65
160.37
164.87
169.74
175.36
181.59
187.60
192.11
193.79
191.82
186.24
177.89
168.02
157.60
147.05
136.15
124.40
111.44
97.08
81.02
62.45
39.84
11.15
-25.50
-71.10
-125.07
-184.98
-246.81
-305.63
-356.66
-396.25
-422.61
-436.05
-438.53
-432.82
-421.61
-406.94
-390.25
-372.87
-356.22
-341.65
-330.12
-321.84
-316.27
-312.38
-308.93
-304.86
-299.41
-291.93
-281.78
-268.41
-251.76
-232.47
-211.87
-191.24
-171.65
-153.59
-136.85
-120.57
-103.77
-85.84
-66.80
-46.94
-25.70
-2.89
20.73
43.26
62.35
76.09
83.99
87.43
89.84
97.19
114.09
141.94
178.97
222.00
267.85
313.83
357.25
395.99
430.93
462.23
488.67
508.37
520.53
525.88
525.61
519.64
507.70
492.83
477.26
461.71
445.93
430.30
415.77
402.29
386.90
343.00
258.92
143.99
22.64
-83.60
-165.06
-221.42
-256.49
-280.26
-297.51
-306.51
-306.38
-299.81
-292.67
-290.96
-298.66
-310.10
-320.63
-324.49
-314.75
-288.90
-250.33
-206.58
-165.24
-130.61
-103.19
-82.00
-64.74
-48.52
-32.82
-19.54
-11.62
-11.16
-18.50
-32.57
-52.29
-75.54
-99.03
-119.69
-135.39
-145.32
-149.79
-149.69
-146.07
-140.28
-133.00
-124.45
-114.98
-105.39
-96.58
-89.10
-82.72
-76.51
-69.42
-60.45
-49.29
-36.49
-23.28
-10.87
-0.05
9.30
17.97
26.68
35.76
44.91
53.74
62.35
71.66
83.07
97.71
115.58
135.38
154.87
171.55
183.19
188.04
184.93
173.56
154.81
130.96
105.34
81.41
61.84
47.55
37.83
31.43
28.00
28.75
36.01
51.65
75.34
103.57
129.91
146.70
147.64
130.18
96.23
51.22
2.07
-44.95
-85.13
-116.04
-137.07
-148.80
-151.97
-148.05
-139.78
-131.13
-126.27
-126.83
-131.87
-138.13
-141.33
-136.51
-121.09
-96.66
-68.74
-44.96
-29.53
-23.10
-23.13
-24.63
-20.08
-3.44
26.85
66.95
108.43
144.79
170.46
181.13
175.33
158.03
138.36
126.06
127.95
144.75
175.65
215.14
253.91
265.98
233.43
158.95
66.09
-7.47
-58.14
-91.13
-112.15
-126.67
-135.65
-136.07
-125.78
-107.15
-87.80
-78.56
-83.75
-102.39
-129.71
-158.82
-181.65
-192.74
-191.47
-181.46
-168.37
-153.02
-133.42
-107.22
-73.57
-33.33
10.25
52.22
87.56
112.58
128.53
139.16
148.89
162.13
183.52
217.23
265.53
327.12
395.99
463.31
518.95
554.36
565.48
553.65
524.08
482.76
434.07
379.83
320.75
257.60
192.00
126.28
62.36
0.71
-59.82
-120.98
-183.47
-245.50
-302.45
-347.93
-376.02
-383.73
-372.56
-348.36
-319.33
-293.06
-274.07
-262.76
-256.38
-251.13
-244.37
-235.68
-226.60
-219.35
-215.53
-215.23
-217.07
-218.86
-218.51
-214.78
-207.52
-197.34
-185.02
-171.07
-155.59
-138.57
-120.17
-100.87
-81.37
-62.33
-44.24
-27.71
-13.76
-3.95
0.02
-2.79
-11.86
-25.01
-39.04
-50.87
-58.46
-61.10
-59.01
-52.63
-42.25
-28.06
-10.70
8.46
27.28
43.45
55.39
62.73
66.28
67.41
67.12
65.40
61.25
53.42
41.38
26.02
9.56
-5.16
-15.59
-20.28
-19.08
-12.96
-3.57
7.19
17.39
25.55
30.91
33.64
34.45
34.02
32.42
29.13
23.73
16.98
11.28
10.07
16.29
30.82
52.07
76.61
100.73
121.44
136.87
145.80
147.29
140.92
127.48
109.42
90.49
74.46
63.59
57.72
54.63
51.17
44.84
34.76
21.79
7.95
-4.58
-14.20
-20.44
-23.85
-25.55
-26.61
-27.60
-28.50
-28.99
-28.84
-28.13
-27.27
-26.59
-26.23
-26.09
-26.02
-26.04
-26.31
-26.93
-27.75
-28.28
-27.95
-26.42
-23.72
-20.26
-16.60
-13.27
-10.71
-9.32
-9.39
-10.94
-13.53
-16.24
-17.95
-17.74
-15.38
-11.39
-6.84
-2.95
-0.64
-0.42
-2.28
-5.72
-9.99
-14.14
-17.15
-17.88
-15.28
-8.75
1.49
14.15
27.06
37.61
43.49
43.59
38.58
30.57
22.17
15.35
10.60
7.23
3.82
-0.84
-6.94
-13.12
-17.30
-17.91
-14.72
-9.21
-3.26
1.17
2.68
0.83
-3.19
-7.87
-12.40
-16.92
-22.41
-28.19
-32.61
-33.90
-30.65
-21.45
-6.41
12.32
31.08
45.50
54.41
58.49
59.15
58.19
58.69
63.26
73.17
88.00
105.35
124.65
145.15
165.04
171.75
156.57
120.82
76.53
45.48
29.20
23.51
23.47
21.86
15.64
6.18
-3.20
-9.93
-13.87
-18.14
-24.29
-32.97
-43.92
-55.41
-64.03
-66.78
-62.71
-53.24
-41.79
-29.58
-16.38
-1.26
17.11
40.17
68.20
99.83
132.15
161.17
184.41
200.27
207.73
206.56
197.43
181.58
160.36
134.87
105.87
74.82
43.83
15.65
-6.49
-19.55
-21.67
-12.87
4.95
28.61
54.90
81.22
105.75
127.21
144.27
155.29
158.29
151.29
132.81
102.17
59.61
6.25
-55.93
-123.88
-193.45
-259.62
-317.32
-362.70
-394.20
-412.94
-422.08
-425.31
-425.15
-421.99
-414.27
-399.65
-376.54
-345.17
-307.64
-267.03
-226.15
-186.63
-148.68
-111.64
-74.79
-37.97
-1.82
32.52
63.79
90.91
113.10
129.85
140.92
146.48
147.14
143.73
136.90
126.65
112.35
93.19
68.90
40.22
8.84
-23.21
-54.16
-82.84
-108.56
-130.64
-148.24
-160.44
-166.27
-164.60
-154.32
-134.73
-106.31
-71.26
-33.50
2.06
30.92
50.22
59.37
59.56
52.67
40.43
24.21
5.72
-12.68
-28.17
-38.11
-40.72
-35.69
-24.26
-8.83
7.69
23.39
37.13
48.46
56.94
62.14
63.60
60.82
53.30
40.88
25.48
9.76
-4.10
-15.45
-24.71
-32.30
-38.17
-41.70
-42.24
-37.28
-24.91
-5.22
19.24
44.97
69.37
91.02
109.48
124.77
140.38
160.60
188.71
225.11
268.28
315.94
364.88
411.14
432.69
411.55
344.86
249.26
148.34
59.93
-7.64
-53.93
-82.85
-100.59
-110.40
-113.70
-111.09
-104.87
-97.91
-92.60
-91.79
-96.23
-106.33
-119.66
-133.22
-144.97
-156.39
-170.33
-184.82
-198.17
-206.26
-204.43
-188.55
-161.51
-124.92
-84.53
-46.89
-16.15
6.52
22.27
32.23
37.15
37.00
32.14
22.84
10.72
-3.60
-18.19
-31.36
-42.34
-50.71
-56.13
-57.73
-55.02
-47.15
-33.02
-11.65
16.89
51.12
88.16
124.41
156.55
182.22
201.19
215.13
226.63
237.06
245.92
251.05
249.76
239.84
220.72
194.36
164.77
137.26
116.09
105.07
107.03
123.05
149.58
179.33
203.11
212.45
202.26
170.47
121.42
64.96
13.94
-23.54
-44.69
-51.73
-50.21
-47.09
-51.84
-69.91
-100.78
-137.91
-177.58
-217.87
-258.32
-299.34
-341.85
-390.35
-445.32
-500.91
-544.72
-569.28
-570.68
-548.39
-504.57
-419.00
-292.83
-149.22
-34.05
48.52
105.21
144.65
171.09
188.24
199.68
204.07
201.20
193.50
187.15
182.32
176.53
166.84
149.87
126.27
96.63
64.29
34.47
14.29
4.86
3.54
5.71
6.86
4.04
-5.54
-21.07
-39.46
-53.41
-58.75
-54.14
-40.50
-20.14
3.76
26.26
42.96
51.10
48.87
36.60
18.26
-0.16
-13.17
-17.89
-14.99
-7.12
2.60
11.72
18.29
21.09
19.70
14.68
7.58
-1.08
-9.31
-15.02
-16.42
-12.42
-3.32
8.98
21.51
31.47
37.61
41.09
44.71
51.39
62.42
76.24
88.66
94.67
90.67
75.90
52.43
23.59
-7.55
-38.82
-68.79
-95.76
-117.06
-129.12
-128.71
-114.48
-88.29
-54.91
-20.54
9.14
30.62
42.99
47.26
44.97
36.97
22.93
2.04
-25.93
-59.57
-95.57
-129.21
-155.34
-169.40
-168.45
-152.05
-122.65
-85.27
-46.31
-11.93
13.32
27.29
30.24
24.34
12.99
0.18
-10.46
-16.56
-17.88
-16.38
-15.31
-17.58
-24.12
-33.37
-42.03
-46.79
-45.97
-40.11
-31.69
-23.88
-19.49
-20.37
-26.95
-38.24
-51.93
-64.65
-72.72
-73.21
-64.81
-48.15
-25.50
0.15
25.82
49.16
68.74
84.13
95.91
105.61
115.25
126.66
140.69
156.57
172.14
184.68
192.20
194.27
192.18
188.01
183.27
177.94
170.26
157.53
137.45
109.32
74.72
37.38
2.38
-25.08
-40.83
-42.79
-31.65
-10.47
16.15
43.56
68.14
87.64
101.03
107.85
107.79
100.75
87.49
70.07
51.72
35.88
24.90
19.48
18.86
21.63
26.35
32.28
39.50
48.54
60.13
74.28
90.58
108.51
127.35
145.38
160.39
170.54
175.25
176.11
175.13
174.54
175.88
179.17
181.85
180.34
172.04
156.37
135.51
111.49
86.14
60.92
36.68
12.23
-14.20
-43.80
-76.96
-112.75
-152.07
-196.22
-244.99
-289.48
-318.50
-325.72
-312.72
-293.25
-271.46
-249.48
-228.73
-210.12
-190.08
-168.84
-147.87
-128.63
-111.63
-95.36
-79.07
-62.25
-44.47
-25.76
-8.21
5.70
14.32
17.56
17.46
15.44
12.53
9.39
6.33
2.47
-2.99
-10.25
-18.65
-26.57
-33.07
-37.61
-39.87
-39.69
-37.82
-35.36
-33.55
-33.50
-35.48
-39.46
-44.74
-50.24
-55.03
-59.07
-63.08
-68.03
-74.55
-82.27
-90.19
-96.98
-101.57
-103.48
-102.74
-99.49
-93.71
-85.44
-75.05
-63.43
-51.87
-41.42
-32.42
-24.41
-16.33
-7.36
2.45
12.01
19.82
24.69
26.46
25.87
24.06
22.28
21.26
21.12
21.52
22.05
22.30
22.14
21.31
19.53
17.26
15.19
13.72
12.66
11.50
9.34
6.16
2.14
-2.49
-6.39
-8.79
-10.65
-14.32
-21.73
-33.56
-46.89
-57.65
-62.21
-56.57
-38.89
-11.11
21.72
53.91
79.99
98.47
109.38
113.66
116.01
122.35
136.96
161.21
194.32
232.57
273.94
315.72
336.59
321.45
271.26
202.66
134.70
88.95
60.74
44.65
37.26
37.64
43.28
54.26
68.48
81.01
86.70
81.11
66.19
45.63
23.32
2.84
-14.87
-32.56
-54.88
-84.38
-120.78
-157.91
-190.31
-210.34
-212.47
-198.36
-176.80
-156.96
-142.21
-134.78
-129.80
-125.64
-123.46
-125.72
-134.13
-145.27
-155.52
-161.14
-160.24
-147.23
-121.93
-87.64
-49.68
-13.07
18.46
41.93
55.69
59.82
57.53
52.81
49.77
50.01
51.79
52.02
47.27
36.90
23.11
9.72
-0.96
-8.48
-14.11
-19.63
-25.67
-31.46
-34.92
-34.09
-28.17
-18.32
-7.01
3.28
10.92
15.58
17.79
18.72
19.52
20.64
21.42
20.59
17.08
10.82
3.09
-3.71
-6.91
-4.54
3.25
13.89
23.32
27.71
25.20
16.55
4.95
-5.10
-9.16
-5.03
6.26
20.87
33.72
40.41
38.36
27.87
12.46
-1.00
-4.56
8.13
39.47
86.32
139.96
187.37
215.94
218.64
197.95
163.83
128.85
102.54
88.10
82.94
80.95
77.39
66.10
47.05
24.69
2.43
-21.91
-53.31
-93.24
-137.92
-179.28
-209.40
-223.50
-222.63
-212.42
-200.07
-194.55
-196.22
-203.20
-211.76
-216.96
-212.96
-196.01
-165.35
-124.00
-77.31
-30.65
10.73
43.26
65.15
74.56
69.02
48.63
16.33
-21.54
-56.03
-79.19
-85.81
-74.43
-45.45
-2.68
51.07
112.98
179.50
245.54
303.65
345.76
365.64
362.69
339.16
303.35
265.50
234.41
214.85
206.03
202.51
188.33
167.10
132.91
85.65
28.68
-32.81
-93.20
-147.78
-192.87
-225.79
-243.36
-246.10
-234.77
-212.52
-185.15
-159.60
-142.05
-135.94
-140.94
-152.28
-165.67
-176.08
-180.37
-178.54
-172.27
-163.81
-154.74
-145.38
-134.39
-121.59
-106.83
-90.59
-75.35
-63.12
-55.15
-51.43
-50.83
-51.44
-52.21
-52.23
-50.19
-46.60
-41.04
-33.21
-23.29
-12.18
-1.20
8.06
14.62
19.49
22.08
23.29
23.88
24.56
26.26
30.38
38.68
45.70
59.98
78.67
98.81
117.23
132.00
143.22
152.81
163.40
176.73
194.08
212.95
231.55
248.67
264.03
277.52
288.08
292.94
287.99
270.15
236.63
188.81
131.39
71.22
15.60
-29.50
-60.52
-76.67
-79.06
-71.61
-58.59
-44.41
-33.05
-27.55
-29.80
-40.19
-57.65
-79.51
-102.75
-124.14
-141.37
-153.77
-162.24
-168.58
-174.58
-181.20
-188.26
-195.17
-201.02
-204.97
-206.29
-204.18
-197.80
-186.60
-170.80
-151.69
-131.38
-112.11
-95.42
-81.66
-70.16
-59.89
-50.09
-40.62
-31.76
-23.81
-16.90
-10.98
-6.21
-3.01
-1.98
-3.65
-8.16
-15.21
-24.06
-33.62
-42.43
-48.68
-50.36
-45.69
-33.68
-14.58
10.08
37.88
66.17
92.72
116.05
135.43
150.66
161.73
168.65
171.45
170.39
166.26
160.47
154.93
151.50
151.32
154.38
159.58
165.26
169.93
172.74
173.65
173.08
171.50
169.13
165.84
161.12
154.05
143.36
127.55
105.42
76.89
43.55
8.71
-23.57
-49.82
-68.35
-79.53
-85.10
-87.08
-86.72
-84.41
-80.08
-73.92
-66.69
-59.52
-53.45
-48.99
-46.12
-44.53
-43.94
-44.20
-45.02
-45.80
-45.46
-42.78
-36.70
-26.75
-13.15
3.36
21.82
41.32
61.07
80.33
98.10
113.10
123.88
129.35
129.39
125.29
119.76
116.21
117.69
125.59
138.93
154.43
167.43
173.40
169.32
154.66
131.48
104.08
77.98
58.61
49.71
51.77
61.37
71.71
74.76
64.01
36.83
-4.87
-56.10
-111.38
-167.10
-222.37
-277.79
-333.23
-385.90
-430.09
-458.67
-465.64
-448.34
-408.47
-351.44
-284.63
-215.38
-149.34
-89.96
-38.58
4.84
41.04
70.72
94.24
111.40
121.71
124.75
120.71
110.64
96.39
80.00
62.82
44.96
25.47
3.25
-21.80
-48.08
-72.65
-92.50
-106.05
-113.91
-118.43
-122.24
-126.68
-130.99
-132.90
-130.13
-122.01
-110.24
-98.11
-88.95
-84.40
-83.63
-83.68
-80.97
-73.05
-59.67
-42.86
-25.77
-11.20
-0.29
7.71
14.92
23.56
34.83
48.26
61.91
73.09
79.36
79.40
73.29
62.47
49.08
35.32
22.97
13.06
5.88
1.11
-2.05
-4.77
-8.43
-14.21
-22.84
-34.27
-47.64
-61.47
-74.08
-83.97
-90.20
-92.52
-91.22
-86.93
-80.25
-71.64
-61.25
-48.98
-34.65
-18.14
0.47
20.74
41.81
62.46
81.38
97.52
110.54
121.11
130.73
141.00
152.69
164.96
175.18
179.66
175.08
159.87
134.69
102.28
66.52
31.40
0.20
-24.92
-43.04
-54.04
-58.39
-57.04
-50.89
-40.55
-26.22
-7.93
13.61
36.51
58.19
76.12
88.64
95.79
99.26
101.44
104.60
109.18
113.47
115.94
115.96
113.72
110.18
106.53
103.79
103.67
107.02
113.04
121.62
132.20
142.62
150.55
155.06
157.80
164.05
178.10
199.50
225.86
252.07
270.38
274.66
263.41
240.50
215.24
195.36
181.95
173.41
164.75
147.34
114.31
63.39
-14.41
-111.55
-200.53
-274.41
-334.64
-381.62
-417.47
-442.94
-457.23
-458.80
-445.01
-416.73
-379.70
-337.69
-283.88
-218.09
-146.48
-79.38
-25.43
13.51
39.28
54.35
63.96
74.76
86.29
95.80
99.83
95.54
82.42
61.01
32.21
-0.81
-33.40
-61.23
-80.63
-89.73
-88.75
-79.22
-63.92
-46.42
-29.62
-16.19
-10.02
-14.15
-29.35
-53.12
-79.98
-103.84
-120.54
-128.82
-130.47
-129.48
-129.21
-130.64
-132.14
-130.81
-124.51
-113.27
-99.42
-86.29
-76.64
-70.99
-67.24
-61.66
-50.55
-31.92
-6.30
23.59
54.01
81.53
104.01
120.63
131.45
136.82
137.02
132.28
123.09
110.52
96.21
82.02
69.58
59.59
52.14
46.78
42.59
38.36
32.95
25.75
17.38
9.80
5.56
7.79
19.13
40.48
70.52
106.16
143.58
179.12
209.53
231.00
240.68
237.05
220.12
191.51
154.21
111.55
65.98
18.21
-33.16
-87.90
-142.54
-190.69
-225.40
-241.96
-240.03
-223.36
-191.85
-150.78
-107.96
-69.62
-37.93
-12.54
7.41
21.05
27.79
28.95
25.02
18.97
14.02
11.80
11.87
12.74
13.28
13.65
14.90
16.89
19.07
20.04
18.01
11.93
2.51
-7.81
-16.06
-19.98
-19.62
-16.02
-9.85
-2.37
4.62
9.49
11.45
10.28
6.48
0.78
-5.30
-10.34
-14.06
-17.51
-23.00
-31.04
-40.57
-48.66
-52.19
-49.23
-40.78
-30.56
-23.06
-21.18
-23.69
-28.34
-31.57
-32.64
-32.20
-32.41
-35.28
-41.36
-48.11
-52.77
-53.63
-50.43
-44.54
-37.75
-31.44
-26.01
-20.86
-15.03
-8.05
-0.42
6.98
13.12
17.65
20.93
23.97
28.01
33.98
42.12
51.89
62.34
72.21
80.39
85.89
88.10
86.77
82.01
74.35
64.79
54.61
44.89
36.28
28.88
22.38
16.27
10.05
3.54
-2.85
-8.39
-12.45
-14.86
-16.15
-17.30
-19.73
-24.77
-33.00
-43.75
-55.29
-65.32
-71.60
-72.37
-66.61
-54.78
-39.01
-22.52
-8.76
-0.56
0.52
-5.20
-16.21
-27.32
-31.07
-22.17
-0.84
27.76
56.44
78.95
92.00
95.84
93.49
88.31
82.18
75.30
67.03
57.12
46.30
36.14
28.17
23.06
19.92
16.80
12.19
5.27
-3.19
-11.44
-17.85
-21.81
-23.86
-25.57
-28.70
-34.30
-41.25
-48.36
-54.43
-59.05
-62.56
-65.45
-67.74
-68.51
-66.18
-59.48
-48.40
-34.67
-21.22
-11.07
-5.90
-5.30
-7.37
-9.11
-8.12
-3.61
3.61
11.64
18.42
22.86
25.18
26.34
27.36
28.65
29.86
30.39
30.11
29.55
29.64
31.35
35.13
40.93
48.57
57.91
68.75
80.55
92.03
101.42
107.21
108.90
106.15
100.46
94.47
91.17
92.83
100.31
112.75
127.57
141.21
150.28
152.68
147.85
136.46
119.56
97.89
71.52
39.86
2.32
-41.29
-90.42
-144.25
-202.03
-263.30
-328.01
-395.97
-465.83
-533.85
-593.44
-636.04
-653.57
-641.23
-599.39
-533.82
-453.44
-367.11
-280.85
-197.48
-118.22
-45.18
17.40
64.42
92.13
100.70
95.13
83.90
75.98
77.58
90.34
111.71
137.94
165.16
190.27
211.02
225.67
232.70
230.60
217.98
195.00
165.68
135.49
109.32
89.94
78.04
72.75
71.98
72.63
72.82
75.10
82.96
98.51
121.23
148.97
179.12
208.45
232.41
247.70
256.46
262.69
270.39
282.24
300.17
325.46
357.29
391.68
400.05
364.55
288.59
195.58
109.73
42.34
-7.42
-40.42
-68.04
-96.31
-122.96
-144.23
-158.98
-169.96
-181.06
-191.58
-197.33
-195.96
-188.24
-175.68
-160.36
-143.56
-125.37
-104.24
-77.74
-46.79
-13.54
18.85
48.48
74.33
95.89
113.04
126.41
137.64
148.40
158.53
169.00
181.39
196.05
210.89
221.27
221.37
206.26
173.26
122.56
57.47
-16.49
-93.03
-166.68
-233.48
-291.37
-340.12
-381.07
-416.74
-450.26
-485.13
-524.30
-569.02
-617.42
-664.16
-701.22
-720.36
-716.24
-688.67
-642.79
-586.74
-528.39
-472.58
-420.43
-370.59
-321.31
-272.07
-223.65
-177.31
-133.46
-91.25
-49.17
-6.21
37.37
79.96
119.14
152.89
180.45
202.63
221.68
240.49
261.57
286.08
313.22
340.33
363.62
379.31
384.76
379.18
363.68
340.66
313.02
283.40
253.89
225.95
200.56
178.28
159.12
142.62
127.88
113.99
100.43
87.32
75.62
66.86
62.82
65.03
74.29
90.47
112.32
137.64
163.74
188.03
208.64
224.94
237.50
247.69
256.87
265.62
273.22
277.73
276.55
267.24
248.22
219.34
182.07
139.57
96.46
58.20
29.91
15.11
14.55
25.89
44.50
65.02
82.90
95.47
101.95
102.75
98.79
91.01
80.45
68.35
56.08
44.82
35.21
27.21
20.21
13.21
4.95
-6.03
-21.18
-41.50
-66.97
-96.15
-126.33
-153.94
-175.27
-187.05
-187.03
-174.55
-151.29
-121.58
-91.92
-69.32
-59.02
-62.56
-77.13
-96.75
-114.48
-124.74
-124.60
-114.04
-95.48
-73.11
-52.19
-38.11
-35.10
-44.72
-65.10
-91.27
-116.81
-136.17
-146.29
-147.16
-140.96
-130.59
-118.40
-105.71
-93.14
-81.24
-70.85
-63.03
-58.52
-57.23
-58.15
-59.66
-60.31
-59.52
-57.79
-56.34
-56.31
-58.08
-61.06
-64.03
-65.91
-66.37
-65.94
-65.57
-65.98
-67.12
-68.22
-68.22
-66.44
-63.01
-58.79
-54.83
-51.60
-48.49
-43.87
-35.73
-22.65
-4.56
17.13
40.11
61.95
80.90
96.14
107.66
115.88
121.24
124.02
124.13
121.08
113.97
101.70
83.47
59.34
30.60
-0.32
-30.41
-56.93
-77.99
-92.72
-101.03
-103.21
-99.85
-91.88
-80.75
-68.31
-56.57
-47.14
-40.73
-36.93
-34.41
-31.38
-26.22
-18.08
-6.75
7.37
23.70
41.86
61.70
83.14
105.84
128.90
150.92
170.49
186.59
198.85
207.43
212.67
214.64
213.07
207.54
197.79
184.25
167.88
149.95
131.73
114.36
98.75
85.68
75.48
67.89
62.36
57.69
52.23
44.60
34.33
22.04
9.44
-1.91
-11.25
-17.68
-20.91
-21.30
-19.50
-16.01
-11.41
-5.51
1.57
9.32
18.66
30.09
42.80
54.82
64.20
69.61
72.31
74.05
76.09
81.04
90.35
103.67
119.22
135.13
149.46
162.28
173.39
167.97
137.82
85.59
24.37
-30.87
-65.70
-83.22
-88.43
-86.27
-81.20
-75.87
-71.73
-70.39
-73.42
-81.44
-94.45
-110.03
-126.05
-141.33
-153.80
-162.00
-165.87
-166.82
-166.84
-168.33
-171.82
-177.24
-184.16
-190.74
-195.08
-196.24
-194.40
-190.41
-185.48
-179.70
-172.98
-165.33
-156.38
-145.97
-134.48
-122.66
-111.30
-100.95
-91.27
-81.47
-70.60
-57.65
-42.08
-24.22
-5.34
12.70
27.87
38.72
44.60
45.75
43.24
38.65
33.61
29.45
26.96
26.30
27.26
29.39
32.25
35.44
38.40
40.36
40.39
37.77
32.41
25.04
16.98
9.70
4.33
1.33
0.58
1.66
4.32
8.50
14.22
21.10
28.18
34.35
38.45
39.70
37.94
33.57
27.32
19.91
11.86
3.50
-4.34
-10.76
-15.15
-17.52
-18.44
-18.73
-19.18
-20.24
-21.99
-23.03
-21.91
-18.02
-12.01
-5.32
0.66
5.19
8.33
10.77
15.30
24.41
39.10
58.27
79.45
100.22
118.76
133.94
145.19
154.55
164.20
175.50
188.64
203.49
220.53
240.66
264.39
277.21
267.90
233.64
182.73
127.78
77.58
35.06
-0.72
-32.00
-60.62
-85.19
-103.67
-114.87
-119.66
-120.23
-118.89
-117.29
-116.47
-117.78
-119.49
-119.74
-117.71
-114.24
-111.09
-109.95
-111.67
-116.14
-122.41
-128.42
-132.25
-133.02
-131.41
-129.02
-127.44
-127.78
-130.93
-134.20
-136.44
-137.32
-137.08
-136.18
-134.79
-132.55
-128.79
-123.06
-115.33
-106.29
-96.57
-86.70
-77.08
-68.13
-60.32
-54.20
-50.11
-47.90
-47.14
-46.67
-44.97
-40.73
-33.33
-23.00
-10.63
2.78
16.66
30.86
45.80
61.87
78.83
95.68
110.87
122.99
131.35
136.23
138.57
139.68
140.69
142.30
144.66
147.50
150.23
152.07
152.33
150.64
147.37
143.75
141.74
143.55
150.86
164.12
182.06
201.68
218.90
229.63
231.11
222.91
207.17
187.69
168.36
151.60
137.61
124.92
111.70
97.19
82.05
67.77
55.38
44.49
33.50
20.59
4.85
-13.24
-32.33
-51.22
-69.51
-87.62
-106.10
-124.99
-143.63
-161.06
-176.56
-189.97
-201.50
-211.29
-219.10
-224.20
-225.69
-222.84
-215.31
-203.22
-186.95
-167.01
-143.90
-118.15
-90.41
-61.50
-32.40
-4.20
22.05
45.45
65.28
81.04
92.45
99.41
101.99
100.24
94.20
83.88
69.37
51.05
29.82
7.03
-15.70
-36.95
-55.75
-71.66
-84.48
-93.87
-99.23
-99.89
-95.59
-87.00
-75.71
-63.91
-53.53
-45.49
-39.44
-33.96
-27.36
-18.60
-7.76
3.96
14.72
22.86
27.56
29.01
28.34
27.04
26.41
26.97
28.16
28.55
26.29
19.83
8.48
-7.37
-26.39
-46.75
-66.49
-83.83
-97.27
-105.73
-108.68
-106.38
-99.84
-90.64
-80.52
-70.80
-62.21
-54.88
-48.56
-42.97
-37.89
-33.21
-28.89
-24.95
-21.38
-18.09
-14.81
-11.04
-6.14
0.44
8.79
18.45
28.45
37.65
45.13
50.50
53.92
55.95
57.26
58.43
59.83
61.55
63.49
65.44
67.24
68.82
70.18
71.36
72.28
72.72
72.34
70.85
68.14
64.31
59.61
54.26
48.34
41.79
34.54
26.61
18.17
9.49
0.81
-7.68
-15.76
-23.05
-28.97
-32.83
-34.13
-32.81
-29.39
-24.90
-20.64
-17.89
-17.66
-20.54
-26.68
-35.68
-46.70
-58.44
-69.28
-77.49
-81.44
-79.93
-72.35
-58.96
-40.86
-19.92
1.64
21.76
39.06
53.05
64.05
72.71
79.61
84.95
88.61
90.45
90.63
89.69
88.45
87.63
87.54
87.94
88.22
87.78
86.43
84.59
83.13
82.91
84.29
86.97
90.08
92.71
94.36
95.14
95.51
95.82
95.99
95.48
93.61
89.88
84.16
76.47
66.86
55.33
41.92
27.02
11.44
-3.73
-17.45
-29.08
-38.52
-45.97
-51.77
-56.28
-59.87
-62.93
-65.83
-68.79
-71.79
-74.50
-76.25
-76.49
-75.14
-72.77
-70.36
-68.91
-69.18
-71.55
-75.93
-81.41
-86.75
-90.83
-93.04
-93.26
-91.67
-88.61
-84.53
-79.74
-73.75
-65.86
-55.66
-43.63
-30.69
-17.95
-6.28
3.73
12.03
19.97
29.24
41.03
55.15
70.85
87.41
104.71
123.06
137.48
143.61
139.76
128.10
111.98
94.37
77.36
62.71
51.44
43.67
39.44
38.29
39.90
42.11
43.50
43.50
42.35
40.34
37.86
35.96
35.43
37.40
39.85
39.57
32.36
17.35
-4.07
-28.93
-53.80
-76.83
-93.46
-103.18
-107.16
-106.93
-103.30
-96.45
-86.26
-72.61
-55.88
-36.96
-17.84
0.10
16.33
31.03
44.27
55.60
64.14
68.78
68.72
63.12
52.15
36.76
18.28
-2.38
-24.85
-49.06
-74.72
-100.80
-125.86
-147.86
-164.84
-175.58
-180.07
-179.32
-174.89
-168.20
-160.08
-150.87
-140.41
-128.44
-114.89
-100.11
-84.84
-69.93
-56.15
-43.93
-33.33
-24.16
-16.09
-8.94
-2.71
2.43
6.39
9.23
11.17
12.50
13.40
13.85
13.62
12.41
9.97
6.24
1.33
-4.53
-11.00
-17.74
-24.37
-30.39
-35.17
-37.97
-38.17
-35.56
-30.62
-24.48
-18.63
-14.29
-11.98
-11.40
-11.74
-12.20
-12.29
-11.74
-9.96
-5.73
2.68
16.72
36.57
60.63
85.81
108.67
126.81
139.72
148.62
155.42
161.55
167.02
170.70
171.08
167.23
159.30
148.18
134.62
118.60
99.28
75.64
47.50
16.18
-15.61
-44.62
-68.14
-84.77
-94.48
-98.20
-97.22
-92.81
-86.15
-78.45
-70.91
-64.54
-59.88
-56.88
-55.02
-53.79
-52.92
-52.54
-52.96
-54.38
-56.67
-59.35
-61.89
-63.88
-65.15
-65.72
-65.63
-64.87
-63.40
-61.27
-58.65
-55.77
-52.78
-49.70
-46.46
-43.05
-39.73
-36.91
-35.02
-34.24
-34.40
-35.00
-35.39
-34.93
-32.98
-28.92
-22.21
-12.63
-0.57
12.79
25.81
36.93
45.23
50.67
53.68
54.58
53.17
48.92
41.62
31.98
21.71
12.69
6.16
2.15
-0.10
-1.24
-0.95
1.95
8.74
19.76
33.90
48.98
62.58
72.93
79.22
81.42
79.86
75.12
68.12
60.23
53.22
48.65
47.32
49.00
52.58
56.60
59.92
61.98
62.75
62.42
61.07
58.57
54.85
50.23
45.53
41.87
40.20
40.93
43.88
48.75
55.52
64.59
76.37
90.64
106.15
120.68
131.78
137.60
137.30
130.97
119.17
102.59
82.10
59.02
35.31
13.27
-5.13
-18.96
-28.66
-35.72
-42.01
-49.08
-57.70
-67.99
-79.70
-92.47
-105.88
-119.28
-131.68
-141.77
-148.30
-150.50
-148.45
-142.99
-135.21
-125.66
-113.84
-98.25
-77.08
-49.17
-14.68
24.71
66.77
109.58
151.91
192.99
231.92
267.39
297.65
321.18
336.95
345.07
346.62
342.95
335.07
323.37
307.83
288.36
265.17
238.21
207.88
174.91
140.25
104.85
69.74
36.34
6.29
-18.71
-38.69
-53.86
-64.30
-70.44
-73.92
-77.53
-84.41
-97.57
-118.75
-150.80
-193.25
-241.68
-289.38
-330.57
-362.21
-383.77
-397.17
-405.03
-414.24
-428.65
-447.39
-466.50
-482.70
-494.88
-503.06
-508.42
-511.50
-518.16
-530.70
-545.94
-556.87
-557.46
-544.91
-518.93
-482.32
-402.34
-273.14
-117.68
28.36
142.52
221.27
268.81
298.67
318.88
334.63
344.50
350.13
354.84
364.25
380.70
401.47
420.97
432.22
430.88
411.75
375.41
328.27
279.56
236.08
200.25
171.63
147.88
127.40
106.84
85.01
63.12
43.77
28.40
16.83
8.31
1.79
-2.99
-7.16
-11.11
-14.44
-16.29
-16.49
-15.59
-14.19
-12.82
-11.36
-9.90
-8.29
-6.38
-4.08
-1.71
0.19
1.29
1.52
1.05
0.01
-1.73
-4.65
-9.15
-15.31
-22.61
-30.13
-36.86
-42.14
-45.78
-48.08
-49.48
-50.38
-51.01
-51.45
-51.78
-52.12
-52.57
-53.26
-54.12
-54.85
-54.95
-53.80
-50.88
-46.01
-39.46
-31.86
-24.01
-16.51
-9.66
-3.53
1.78
5.84
8.03
7.81
5.22
0.96
-3.82
-8.11
-11.63
-14.77
-18.18
-22.09
-25.89
-28.31
-28.06
-24.60
-18.55
-11.40
-4.84
-0.11
2.46
3.29
3.25
3.24
4.02
6.12
9.77
14.82
20.65
26.18
30.06
31.11
28.74
23.24
15.88
8.53
3.10
0.97
2.43
6.71
12.23
17.27
20.65
22.20
22.73
23.61
26.10
30.83
37.54
45.26
52.79
59.02
63.24
65.10
64.46
61.26
55.57
47.71
38.36
28.48
19.17
11.29
5.28
1.10
-1.58
-3.16
-3.85
-3.70
-2.68
-0.86
1.42
3.60
5.04
5.27
4.12
1.77
-1.38
-4.80
-8.10
-11.09
-13.83
-16.57
-19.60
-23.06
-26.79
-30.24
-32.50
-32.61
-29.87
-24.26
-16.51
-8.03
-0.45
4.80
6.89
5.62
1.26
-5.71
-14.82
-25.73
-38.07
-51.37
-64.86
-77.41
-87.62
-93.95
-94.99
-89.76
-78.08
-60.70
-39.37
-16.37
6.01
26.00
42.76
56.28
67.02
75.53
82.09
86.74
89.39
90.09
89.18
87.30
85.27
83.86
83.61
84.78
87.35
91.11
95.76
100.92
106.17
110.95
114.57
116.26
115.28
111.15
103.83
93.77
81.85
69.19
56.87
45.73
36.28
28.75
23.24
19.82
18.47
18.88
20.31
21.58
21.39
18.79
13.53
6.19
-2.09
-10.17
-17.38
-23.75
-29.87
-36.54
-44.28
-53.14
-62.53
-71.43
-78.57
-82.73
-83.01
-78.99
-70.86
-59.38
-45.69
-31.07
-16.72
-3.57
7.80
17.15
24.50
30.03
34.02
36.72
38.36
39.04
38.81
37.64
35.54
32.63
29.15
25.44
21.83
18.52
15.51
12.63
9.68
6.52
3.14
-0.32
-3.68
-6.73
-9.31
-11.32
-12.76
-13.74
-14.53
-15.50
-16.93
-18.86
-20.97
-22.56
-22.82
-21.15
-17.41
-12.00
-5.74
0.42
5.66
9.41
11.43
11.72
10.49
8.18
5.34
2.59
0.42
-0.87
-1.09
-0.07
2.55
7.27
14.54
24.53
36.81
50.41
64.09
76.62
87.13
95.28
101.15
105.12
107.73
109.56
111.15
112.90
114.89
116.75
117.64
116.37
111.81
103.38
91.32
76.81
61.50
46.93
33.91
22.38
11.63
0.90
-10.02
-20.62
-29.73
-35.94
-37.98
-34.99
-26.87
-14.40
0.53
14.91
25.04
27.49
20.25
3.61
-19.61
-44.89
-67.38
-83.50
-91.88
-93.49
-91.04
-87.79
-86.54
-89.01
-95.69
-106.10
-119.20
-133.69
-148.26
-161.67
-172.86
-181.14
-186.31
-188.72
-189.02
-187.83
-185.37
-181.24
-174.62
-164.68
-151.11
-134.52
-116.35
-98.54
-82.92
-70.70
-62.23
-57.09
-54.35
-53.01
-52.23
-51.44
-50.28
-48.50
-45.87
-42.20
-37.44
-31.74
-25.47
-19.11
-13.10
-7.81
-3.49
-0.45
0.98
0.45
-2.20
-6.78
-12.63
-18.76
-24.13
-27.99
-30.24
-31.47
-32.72
-35.07
-39.20
-45.04
-51.81
-58.26
-63.13
-65.65
-65.87
-64.68
-63.59
-64.15
-67.38
-73.50
-81.84
-91.21
-100.31
-108.06
-113.59
-116.07
-114.30
-106.71
-91.61
-67.94
-35.90
2.72
44.83
86.77
125.29
158.09
183.98
202.78
214.95
221.50
223.80
223.37
221.56
219.10
215.93
211.36
204.58
195.12
183.12
169.05
153.36
136.27
117.80
98.14
77.97
58.40
40.68
25.80
14.19
5.73
-0.00
-3.68
-6.03
-7.84
-9.89
-12.75
-16.62
-21.34
-26.48
-31.58
-36.39
-40.94
-45.50
-50.35
-55.64
-61.28
-66.98
-72.43
-77.33
-81.46
-84.67
-86.80
-87.79
-87.81
-87.20
-86.41
-85.80
-85.35
-84.67
-83.11
-80.16
-75.72
-70.20
-64.41
-59.10
-54.73
-51.30
-48.45
-45.62
-42.20
-37.63
-31.37
-23.09
-12.72
-0.65
12.31
25.03
36.44
45.83
52.96
58.03
61.44
63.44
64.08
63.24
60.86
57.17
52.76
48.38
44.79
42.40
41.24
41.00
41.27
41.73
42.19
42.66
43.12
43.53
43.82
43.93
43.98
44.32
45.50
48.11
52.58
58.95
66.70
74.79
81.92
86.89
88.96
87.99
84.36
78.61
71.13
62.10
51.48
39.30
25.77
11.37
-3.28
-17.59
-31.11
-43.59
-54.77
-64.37
-72.04
-77.35
-79.95
-79.55
-76.01
-69.31
-59.65
-47.41
-33.21
-17.89
-2.34
12.54
26.02
37.55
46.77
53.47
57.55
59.15
58.74
57.26
56.02
56.40
59.48
65.65
74.39
84.46
94.19
101.94
106.42
106.78
102.59
93.80
80.63
63.72
44.12
23.24
2.63
-16.29
-32.60
-46.00
-56.82
-65.75
-73.57
-80.87
-87.91
-94.63
-100.82
-106.45
-111.76
-117.12
-122.63
-127.83
-131.61
-132.59
-129.62
-122.35
-111.63
-99.34
-87.91
-79.24
-74.35
-73.15
-74.70
-77.47
-79.93
-80.97
-80.20
-77.80
-73.38
-66.38
-56.27
-42.84
-26.31
-7.18
13.66
34.96
55.25
74.39
92.31
108.23
120.32
126.54
126.06
120.02
111.43
104.45
104.98
116.60
138.24
163.93
185.54
196.70
195.27
183.55
166.78
153.66
150.99
161.39
183.01
211.86
244.23
277.20
307.40
314.38
283.36
213.80
122.84
34.32
-34.60
-78.17
-99.81
-107.85
-112.11
-115.91
-119.15
-120.84
-121.31
-122.23
-125.66
-131.13
-137.88
-144.83
-148.47
-145.87
-136.15
-121.29
-105.06
-91.21
-82.16
-78.94
-81.22
-86.53
-92.55
-98.11
-103.36
-109.01
-115.45
-122.17
-128.31
-132.95
-134.59
-132.39
-126.14
-116.25
-103.62
-89.62
-75.21
-61.15
-47.70
-34.42
-21.01
-7.06
7.71
22.99
37.07
47.97
53.86
54.24
50.66
46.15
44.91
51.20
70.37
103.12
144.85
186.93
221.32
245.96
261.31
268.30
268.48
264.07
253.91
239.00
220.50
198.84
173.24
141.66
102.35
54.93
0.53
-59.22
-121.77
-184.82
-246.36
-304.96
-359.88
-410.24
-454.19
-488.75
-510.53
-516.08
-503.72
-474.16
-430.48
-377.27
-318.73
-257.58
-195.18
-132.74
-72.00
-15.81
32.78
71.91
101.72
124.35
142.80
159.29
174.19
186.39
194.18
196.55
193.90
187.82
180.41
173.29
166.92
160.62
152.99
142.77
129.50
113.93
97.84
83.47
72.57
65.77
62.47
61.23
60.67
60.10
59.79
60.42
62.14
63.82
63.09
57.15
44.09
23.94
-1.03
-26.88
-49.36
-65.22
-73.08
-73.56
-68.58
-60.40
-50.65
-39.92
-27.96
-14.35
0.81
16.51
31.03
42.54
49.78
52.53
51.50
47.84
42.60
36.50
30.00
23.64
18.18
14.38
12.70
13.11
15.12
18.14
21.85
26.30
31.71
38.10
44.86
50.86
54.77
55.69
53.66
49.59
44.86
40.62
37.26
34.32
30.85
25.90
19.00
10.35
0.90
-7.83
-13.98
-15.66
-11.44
-0.88
15.23
34.89
55.51
74.77
91.18
104.27
114.21
121.34
125.82
127.81
127.63
125.93
123.42
120.43
116.81
111.99
105.57
97.61
88.67
79.47
70.58
62.28
54.76
48.15
42.01
34.71
22.93
2.32
-30.84
-77.40
-134.13
-194.12
-249.01
-292.06
-320.31
-334.97
-339.91
-339.30
-335.72
-329.67
-320.48
-307.65
-291.80
-274.64
-258.04
-242.85
-228.45
-213.05
-194.75
-172.56
-146.76
-118.57
-89.28
-59.68
-30.11
-1.14
25.84
48.58
64.72
72.88
73.20
67.32
57.36
45.02
31.10
15.82
-0.44
-16.66
-31.25
-42.65
-49.92
-53.00
-52.44
-48.92
-42.83
-34.25
-23.33
-10.49
3.31
16.65
28.07
36.31
40.74
41.48
39.35
35.57
31.31
27.33
23.83
20.65
17.58
14.61
11.86
9.34
6.66
3.06
-2.16
-9.22
-17.55
-26.00
-33.41
-39.12
-43.18
-46.07
-48.11
-49.06
-48.03
-43.89
-36.02
-24.73
-11.50
1.47
12.07
19.13
22.89
24.94
27.62
33.12
42.63
56.05
72.06
88.67
103.79
115.67
123.09
125.55
123.27
117.20
108.90
100.19
92.75
87.74
85.49
85.61
87.16
89.10
90.57
91.16
90.79
89.60
87.46
83.81
77.57
67.60
53.37
35.49
15.59
-4.36
-23.04
-40.41
-57.45
-75.14
-93.04
-108.74
-118.53
-119.15
-109.55
-91.40
-68.30
-43.86
-20.14
3.00
26.94
52.55
78.88
103.18
122.49
135.12
141.47
143.19
142.64
141.59
140.62
138.93
135.31
129.50
122.60
116.41
111.50
107.67
103.63
97.80
88.56
75.23
59.25
43.33
30.00
18.66
7.57
-5.38
-21.18
-39.89
-60.35
-79.74
-94.67
-102.14
-102.03
-93.81
-76.43
-48.11
-8.69
34.49
70.65
89.98
100.06
105.34
109.48
110.19
108.69
106.52
104.53
103.28
102.43
100.50
93.19
77.43
52.37
20.40
-15.07
-50.57
-82.95
-109.93
-130.43
-145.68
-156.52
-163.28
-165.65
-164.40
-161.36
-158.43
-156.75
-156.21
-156.43
-156.07
-153.86
-149.18
-143.15
-137.90
-135.23
-135.56
-137.66
-139.67
-139.47
-135.79
-128.42
-118.31
-106.56
-93.54
-78.60
-60.64
-39.24
-15.08
9.96
33.71
54.49
71.82
86.16
98.07
107.30
112.62
112.53
106.41
95.23
81.47
68.13
57.68
51.58
50.45
54.43
63.30
75.77
88.71
97.17
95.51
79.64
49.05
7.43
-38.51
-81.50
-116.11
-139.98
-153.46
-158.18
-155.76
-147.27
-133.58
-115.96
-96.23
-76.11
-56.30
-35.90
-12.92
14.55
46.92
82.55
118.23
150.55
177.10
197.04
210.71
218.78
221.65
219.42
212.04
199.76
183.14
163.04
140.60
117.32
95.07
75.81
60.98
50.81
44.17
38.99
33.24
25.80
16.85
7.49
-0.89
-7.16
-10.71
-11.45
-9.86
-7.07
-4.63
-3.97
-5.47
-7.80
-7.94
-2.25
11.82
34.25
61.73
88.38
107.55
114.06
105.91
85.20
57.54
30.38
10.62
2.48
6.32
18.86
34.79
48.82
57.23
58.25
51.39
36.44
12.93
-19.46
-59.97
-105.92
-152.74
-195.21
-229.11
-252.60
-266.29
-272.22
-272.30
-267.11
-255.83
-237.29
-211.32
-179.65
-145.50
-112.22
-81.97
-55.15
-31.14
-9.67
8.13
19.77
22.70
15.81
0.37
-20.33
-42.20
-61.84
-77.22
-87.72
-93.47
-94.81
-92.18
-86.32
-78.48
-70.31
-63.38
-58.69
-56.43
-56.04
-56.58
-57.03
-56.56
-54.69
-51.40
-47.17
-42.92
-39.73
-38.38
-39.00
-40.99
-43.20
-44.48
-44.07
-41.87
-38.39
-34.52
-31.15
-28.91
-28.11
-28.59
-29.81
-30.91
-30.85
-28.64
-23.53
-15.15
-3.53
10.83
26.97
43.32
57.87
68.47
73.46
72.24
65.49
55.03
43.19
32.17
23.66
18.73
17.99
21.70
29.74
41.53
56.00
71.65
86.89
100.29
110.78
117.72
120.79
120.00
115.61
108.11
98.40
87.84
78.28
71.61
69.30
71.67
77.73
85.52
93.06
99.26
104.38
109.74
116.84
126.56
138.71
152.18
165.64
178.07
188.98
198.31
206.25
213.15
219.39
225.13
229.83
231.86
228.45
216.23
192.07
154.19
102.85
40.57
-28.21
-98.03
-163.38
-219.73
-264.16
-295.60
-314.52
-322.39
-320.88
-311.35
-294.72
-271.71
-243.15
-210.15
-173.99
-135.93
-97.08
-58.49
-21.32
13.04
42.97
66.75
82.74
89.78
87.48
76.45
58.44
36.05
12.17
-10.63
-30.70
-47.40
-60.84
-71.54
-80.06
-86.96
-92.89
-98.66
-104.97
-112.16
-119.78
-126.66
-131.29
-132.46
-129.78
-123.85
-115.99
-107.67
-99.96
-93.26
-87.31
-81.54
-75.35
-68.36
-60.41
-51.55
-41.99
-32.08
-22.18
-12.56
-3.33
5.65
14.61
23.80
33.32
43.07
52.81
62.24
71.05
78.83
85.03
88.94
89.90
87.66
82.70
76.27
70.09
65.87
64.67
66.60
70.89
76.28
81.60
86.17
89.90
92.98
95.52
97.19
97.38
95.41
90.93
84.18
75.86
66.94
58.27
50.47
43.87
38.58
34.55
31.52
29.01
26.36
22.98
18.53
13.13
7.31
1.87
-2.39
-5.01
-5.93
-5.57
-4.74
-4.42
-5.50
-8.55
-13.74
-20.76
-28.91
-37.24
-44.74
-50.55
-54.14
-55.46
-54.87
-53.04
-50.64
-48.08
-45.52
-42.96
-40.48
-38.25
-36.44
-34.99
-33.54
-31.48
-28.42
-24.40
-19.94
-15.81
-12.77
-11.63
-13.22
-18.35
-27.27
-39.28
-52.52
-64.22
-71.49
-72.28
-66.17
-54.47
-39.66
-24.07
-9.36
3.76
15.28
25.40
34.35
42.06
48.25
52.72
56.26
59.91
64.39
69.70
75.23
80.73
86.11
91.39
96.52
102.49
109.76
117.71
124.84
129.42
131.77
133.30
136.00
141.78
154.08
174.92
203.25
234.59
262.29
281.82
290.58
288.13
275.64
258.10
240.63
226.64
217.38
212.53
213.68
221.24
232.73
228.25
194.44
131.58
53.88
-16.78
-77.75
-129.32
-172.93
-207.56
-234.14
-252.60
-264.17
-272.03
-281.08
-296.35
-318.12
-343.67
-368.08
-386.69
-392.49
-380.14
-349.47
-306.89
-263.38
-227.78
-204.41
-191.32
-182.99
-169.46
-142.68
-101.96
-56.03
-19.52
-4.77
-17.31
-53.94
-106.73
-162.64
-208.51
-235.01
-238.63
-220.37
-182.87
-130.13
-55.59
31.61
112.36
169.40
198.23
205.52
201.72
195.22
189.69
184.68
176.09
162.26
144.37
125.32
106.76
89.25
73.25
59.76
49.99
42.83
39.98
41.36
45.55
48.57
46.71
38.79
26.96
14.98
4.33
-5.25
-15.68
-28.55
-45.59
-66.18
-87.75
-107.30
-123.50
-137.29
-148.94
-156.31
-145.92
-110.25
-54.01
5.97
51.19
71.27
66.73
46.65
22.94
4.94
-6.44
-14.19
-21.77
-30.63
-40.05
-48.27
-53.74
-56.04
-56.01
-56.38
-57.32
-58.52
-58.32
-54.81
-47.06
-35.61
-22.19
-9.07
1.02
6.38
6.55
2.65
-3.28
-9.13
-13.25
-14.70
-13.26
-9.59
-4.45
1.44
7.82
14.62
21.58
28.06
33.19
36.29
36.82
34.71
30.12
23.68
16.33
9.15
3.16
-0.74
-1.59
1.17
7.52
16.71
27.67
39.44
51.23
62.50
73.08
84.09
96.80
111.81
128.28
144.14
156.85
164.18
164.83
158.64
147.80
134.67
120.62
105.50
88.48
69.66
50.33
32.45
17.94
9.53
8.66
14.89
26.21
40.20
55.86
73.27
92.86
104.25
99.99
79.35
49.66
20.55
-2.09
-16.50
-24.17
-28.09
-31.42
-34.85
-38.11
-40.81
-41.22
-41.46
-42.76
-45.58
-49.89
-55.34
-60.22
-62.98
-63.00
-61.00
-58.67
-57.00
-56.31
-56.67
-57.35
-56.57
-52.77
-45.34
-34.97
-23.39
-11.99
-1.78
6.65
13.14
18.11
22.08
25.32
27.64
28.53
27.83
25.55
21.89
17.13
11.67
6.13
0.96
-3.65
-7.78
-11.48
-14.83
-17.90
-20.89
-24.04
-27.17
-30.07
-32.79
-35.46
-38.15
-40.93
-43.82
-47.06
-50.77
-54.05
-55.71
-54.98
-51.23
-44.21
-34.20
-22.02
-9.31
2.08
11.99
20.81
28.54
35.37
41.33
46.18
49.44
49.86
46.22
39.31
30.19
18.93
5.24
-11.74
-33.27
-55.99
-74.50
-93.04
-113.00
-128.19
-134.38
-129.89
-116.42
-98.11
-79.72
-65.61
-57.80
-54.92
-53.92
-51.32
-42.45
-22.26
13.63
66.60
132.31
201.40
261.62
301.44
313.82
299.10
263.47
216.34
166.63
119.82
78.48
41.94
7.72
-24.60
-52.81
-74.25
-87.67
-93.97
-102.14
-113.72
-127.75
-142.46
-156.54
-164.49
-165.10
-159.91
-151.51
-142.46
-133.89
-127.41
-124.09
-123.73
-125.08
-126.43
-126.93
-126.41
-125.28
-123.18
-119.75
-112.92
-98.79
-73.62
-31.17
25.12
82.14
124.15
142.70
138.90
121.04
102.37
88.82
82.47
81.94
84.87
89.79
96.96
104.88
112.20
117.23
118.13
114.61
106.67
95.28
82.67
71.86
65.70
65.34
69.70
76.17
83.07
89.13
93.93
98.51
104.75
114.79
128.88
144.68
158.17
166.37
167.02
158.76
141.81
113.28
76.25
38.11
4.99
-25.37
-56.32
-87.20
-116.27
-141.15
-159.83
-170.97
-175.56
-176.71
-178.03
-181.05
-185.53
-190.36
-193.94
-195.02
-192.87
-188.52
-184.40
-182.95
-184.81
-189.10
-194.02
-196.92
-194.87
-184.81
-165.01
-135.56
-98.69
-58.18
-18.94
14.27
39.20
57.51
74.49
96.55
127.96
168.57
213.79
256.18
288.39
305.94
308.19
297.59
277.74
251.80
222.04
190.29
158.55
129.02
103.68
83.58
68.43
56.61
45.92
34.44
21.31
6.86
-7.79
-21.38
-33.30
-43.86
