1699288590.00
64.000000
-0.00
-0.00
-0.00
-0.00
-0.00
-0.00
-0.00
-0.00
-0.00
-0.00
0.00
0.01
0.01
-0.00
-0.03
-0.05
-0.05
0.00
0.13
0.36
0.66
1.01
1.37
1.72
2.06
2.40
2.79
3.24
3.80
4.42
5.06
5.66
6.20
6.68
7.15
7.68
8.31
9.14
10.09
11.04
11.88
12.56
13.14
13.76
14.65
15.96
17.91
20.32
22.90
25.38
27.58
29.57
31.68
34.32
37.81
42.54
48.15
54.10
59.83
64.97
69.58
74.14
79.34
85.71
93.76
103.00
112.62
121.73
129.77
136.75
143.30
150.75
157.77
166.64
177.95
191.79
206.97
220.57
228.25
225.36
208.53
176.87
132.76
80.05
23.07
-34.94
-92.44
-149.16
-205.23
-260.37
-313.74
-363.87
-409.83
-450.91
-486.50
-515.74
-537.23
-549.22
-549.96
-538.37
-514.21
-478.67
-433.88
-382.45
-327.02
-269.84
-212.63
-156.66
-102.95
-52.37
-5.90
35.58
71.43
101.35
125.50
144.38
158.69
169.15
176.37
180.75
182.57
182.07
179.51
175.23
169.65
163.18
156.15
148.81
141.30
133.69
126.02
118.33
110.69
103.16
95.80
88.68
81.83
75.25
68.95
62.95
57.25
51.86
46.78
42.03
37.59
33.45
29.61
26.07
22.81
19.83
17.11
14.67
12.48
10.54
8.83
7.35
6.07
4.97
4.04
3.26
2.62
2.09
1.67
1.32
1.03
0.78
0.57
0.38
0.23
0.10
0.02
-0.04
-0.08
-0.12
-0.16
-0.21
-0.28
-0.34
-0.39
-0.41
-0.40
-0.38
-0.37
-0.40
-0.47
-0.58
-0.69
-0.78
-0.80
-0.77
-0.72
-0.71
-0.80
-1.01
-1.30
-1.60
-1.84
-1.95
-1.93
-1.87
-1.90
-2.12
-2.57
-3.20
-3.87
-4.40
-4.65
-4.63
-4.48
-4.41
-4.63
-5.23
-6.15
-7.14
-7.96
-8.42
-8.46
-8.20
-7.85
-7.70
-7.98
-8.92
-10.54
-12.63
-14.48
-15.14
-13.63
-9.46
-2.87
5.12
13.13
19.96
24.95
28.12
29.97
31.12
32.05
32.92
33.64
33.99
33.64
32.34
29.98
26.71
22.89
18.98
15.41
12.22
9.40
6.89
4.57
2.30
-0.16
-3.22
-7.15
-11.94
-17.11
-21.76
-24.99
-26.20
-25.26
-22.50
-18.54
-14.02
-9.56
-5.71
-2.98
-1.73
-2.00
-3.43
-5.33
-6.97
-7.86
-7.97
-7.67
-7.44
-7.62
-8.18
-8.72
-8.73
-7.78
-5.72
-2.71
0.93
4.83
8.63
11.98
14.49
15.81
15.67
14.07
11.30
7.85
4.26
0.89
-2.04
-4.51
-6.45
-7.75
-8.22
-7.71
-6.24
-4.08
-1.68
0.46
1.93
2.47
2.05
0.76
-1.26
-3.71
-6.32
-8.88
-11.17
-13.00
-14.32
-15.15
-15.71
-16.24
-16.84
-17.31
-17.10
-15.41
-11.59
-5.47
2.44
11.01
18.87
24.83
28.27
29.20
28.10
25.57
22.08
17.84
12.96
7.65
2.34
-2.33
-5.69
-7.30
-7.13
-5.56
-3.29
-1.07
0.47
1.02
0.64
-0.29
-1.20
-1.56
-1.05
0.33
2.31
4.45
6.23
7.13
6.68
4.50
0.50
-5.02
-11.23
-17.00
-21.20
-23.12
-22.80
-20.91
-18.49
-16.42
-15.17
-14.70
-14.79
-15.20
-15.92
-17.01
-18.46
-19.94
-20.95
-20.90
-19.48
-16.81
-13.36
-9.80
-6.71
-4.39
-2.90
-2.06
-1.71
-1.79
-2.40
-3.70
-5.82
-8.68
-11.99
-15.24
-17.94
-19.73
-20.52
-20.47
-19.89
-19.20
-18.76
-18.91
-19.78
-21.19
-22.58
-23.13
-21.99
-18.70
-13.43
-6.94
-0.30
5.56
10.08
13.14
14.93
15.69
15.70
15.34
15.18
15.87
17.89
21.37
25.97
31.12
36.27
41.19
45.92
50.62
55.29
59.66
63.29
65.80
67.00
66.96
65.86
63.93
61.37
58.39
55.26
52.26
49.64
47.51
45.82
44.38
42.92
41.17
38.93
36.17
33.10
30.13
27.71
26.13
25.16
24.09
21.84
17.45
10.54
1.59
-8.25
-17.58
-25.33
-31.05
-34.92
-37.33
-38.61
-38.80
-37.74
-35.35
-31.82
-27.66
-23.55
-20.02
-17.34
-15.41
-13.93
-12.50
-10.84
-8.80
-6.46
-4.00
-1.61
0.63
2.82
5.28
8.29
12.10
16.66
21.70
26.83
31.65
35.84
39.12
41.15
41.46
39.58
35.20
28.41
19.69
9.83
-0.41
-10.43
-19.94
-28.81
-36.94
-44.13
-50.18
-54.93
-58.48
-61.21
-63.68
-66.37
-69.61
-73.36
-77.39
-81.39
-85.11
-88.50
-91.64
-94.59
-97.36
-99.72
-101.31
-101.73
-100.62
-97.82
-93.24
-86.85
-78.58
-68.42
-56.55
-43.42
-29.80
-16.54
-4.32
6.56
16.17
24.79
32.52
39.25
44.64
48.42
50.60
51.58
51.92
52.15
52.51
52.97
53.34
53.44
53.21
52.65
51.72
50.34
48.37
45.75
42.56
39.03
35.52
32.30
29.52
27.08
24.68
21.92
18.48
14.33
9.85
5.87
3.35
3.17
5.65
10.42
16.51
22.60
27.58
30.74
31.97
31.56
30.08
28.07
25.88
23.65
21.32
18.78
16.04
13.26
10.83
9.15
8.57
9.14
10.69
12.90
15.42
17.90
20.09
21.73
22.68
22.92
22.66
22.25
21.99
21.90
21.70
20.88
19.00
15.89
11.80
7.29
3.05
-0.27
-2.23
-2.65
-1.58
0.65
3.52
6.40
8.68
9.91
9.92
8.76
6.69
4.01
1.00
-2.18
-5.43
-8.70
-11.89
-14.83
-17.24
-18.85
-19.49
-19.16
-18.07
-16.60
-15.20
-14.29
-14.14
-14.93
-16.66
-19.25
-22.49
-26.07
-29.64
-32.84
-35.37
-37.02
-37.67
-37.19
-35.48
-32.47
-28.14
-22.63
-16.25
-9.41
-2.63
3.54
8.59
12.11
13.82
13.67
11.80
8.56
4.45
0.02
-4.23
-7.84
-10.48
-12.00
-12.45
-12.07
-11.25
-10.42
-9.98
-10.14
-10.89
-12.01
-13.17
-14.04
-14.50
-14.61
-14.67
-15.09
-16.18
-18.05
-20.52
-23.11
-25.15
-25.90
-24.83
-21.73
-16.83
-10.77
-4.36
1.60
6.55
10.18
12.35
13.04
12.24
10.08
6.86
3.07
-0.77
-4.24
-7.18
-9.67
-11.88
-13.95
-15.88
-17.58
-18.99
-20.12
-21.18
-22.39
-24.03
-26.29
-29.33
-33.26
-38.18
-44.12
-51.03
-58.74
-66.95
-75.25
-83.14
-90.05
-95.34
-98.26
-98.06
-94.08
-85.97
-73.86
-58.40
-40.65
-21.91
-3.44
13.59
28.32
40.15
48.82
54.44
57.48
58.60
58.45
57.48
55.86
53.56
50.52
46.95
43.28
40.12
38.03
37.26
37.69
38.85
40.16
41.23
41.93
42.52
43.51
45.51
49.06
54.44
61.45
69.27
76.53
81.47
82.46
78.58
69.98
58.00
44.74
32.46
22.79
16.41
12.99
11.59
11.17
10.97
10.54
9.71
8.28
6.03
2.73
-1.68
-6.88
-12.18
-16.73
-19.76
-20.90
-20.21
-18.16
-15.34
-12.31
-9.37
-6.56
-3.60
0.07
5.31
13.05
24.02
38.30
55.08
72.54
88.23
99.62
104.81
102.93
94.38
80.50
63.27
44.75
26.80
10.83
-2.16
-11.66
-17.68
-20.72
-21.72
-21.84
-22.11
-23.17
-25.05
-27.30
-29.26
-30.42
-30.65
-30.21
-29.57
-29.11
-28.97
-29.02
-29.00
-28.61
-27.71
-26.30
-24.54
-22.71
-21.13
-20.11
-19.90
-20.54
-21.91
-23.71
-25.53
-27.02
-27.93
-28.21
-27.96
-27.40
-26.74
-26.09
-25.43
-24.56
-23.07
-20.46
-16.25
-10.19
-2.44
6.42
15.50
23.93
31.03
36.46
40.16
42.11
42.18
40.13
35.75
29.10
20.62
11.04
1.37
-7.39
-14.28
-18.49
-19.45
-17.00
-11.43
-3.60
5.20
13.49
19.87
23.24
22.99
19.06
11.86
2.22
-8.90
-20.56
-32.03
-42.89
-52.85
-61.60
-68.74
-73.76
-76.19
-75.77
-72.58
-67.04
-59.79
-51.52
-42.93
-34.60
-27.03
-20.68
-15.90
-12.88
-11.52
-11.38
-11.76
-11.78
-10.74
-8.33
-4.67
-0.26
4.32
8.58
12.27
15.38
17.94
19.99
21.50
22.44
22.87
22.93
22.82
22.76
22.95
23.51
24.40
25.38
26.00
25.78
24.44
22.11
19.43
17.32
16.52
17.27
19.25
21.81
24.39
26.87
29.44
32.36
35.50
38.30
39.86
39.37
36.43
31.23
24.44
17.04
10.10
4.61
1.39
0.95
3.32
8.02
13.99
19.74
23.65
24.28
20.86
13.51
3.25
-8.41
-19.89
-30.04
-38.33
-44.74
-49.50
-52.92
-55.25
-56.76
-57.77
-58.54
-59.13
-59.30
-58.47
-55.93
-51.16
-44.00
-34.82
-24.41
-13.79
-4.04
3.90
9.41
12.17
12.14
9.53
4.70
-1.78
-9.09
-16.22
-22.00
-25.37
-25.67
-22.83
-17.45
-10.61
-3.50
2.97
8.35
12.75
16.61
20.49
24.76
29.55
34.66
39.59
43.74
46.38
46.93
45.03
40.77
34.58
27.20
19.43
12.09
5.92
1.59
-0.42
-0.05
2.24
5.52
8.68
10.83
11.47
10.44
7.65
2.86
-4.23
-13.65
-24.83
-36.58
-47.56
-56.79
-64.04
-69.66
-74.02
-77.07
-78.24
-76.87
-72.74
-66.41
-59.00
-51.52
-44.42
-37.37
-29.76
-21.17
-11.74
-1.95
7.74
17.25
26.74
36.14
44.82
51.75
55.87
56.77
54.79
50.74
45.34
38.82
31.04
21.96
12.08
2.46
-5.64
-11.38
-14.61
-15.82
-15.64
-14.53
-12.69
-10.17
-7.21
-4.22
-1.74
-0.18
0.34
0.07
-0.51
-0.82
-0.44
0.72
2.40
4.03
5.09
5.34
4.97
4.51
4.63
5.81
8.23
11.86
16.52
21.96
27.77
33.36
38.04
41.28
43.04
43.75
44.19
44.95
46.01
46.69
45.88
42.60
36.41
27.63
17.18
6.30
-3.86
-12.47
-19.06
-23.56
-26.15
-27.20
-27.11
-26.23
-24.80
-22.97
-20.80
-18.40
-15.98
-13.81
-12.19
-11.36
-11.36
-12.20
-13.79
-16.09
-18.99
-22.16
-24.98
-26.49
-25.79
-22.30
-16.12
-7.95
1.19
10.32
18.77
26.11
31.98
35.99
37.78
37.26
34.86
31.42
27.98
25.29
23.46
21.87
19.51
15.38
8.99
0.57
-9.11
-19.00
-28.15
-35.89
-41.77
-45.43
-46.41
-44.36
-39.22
-31.64
-22.94
-14.89
-9.03
-6.13
-5.88
-7.08
-8.22
-7.96
-5.59
-0.94
5.77
14.15
23.70
33.66
42.96
50.27
54.41
54.76
51.58
45.94
39.28
32.90
27.43
22.95
19.07
15.48
12.17
9.42
7.62
6.94
7.23
8.02
8.75
8.95
8.36
6.93
4.75
1.97
-1.24
-4.74
-8.38
-11.95
-15.10
-17.38
-18.19
-17.05
-13.71
-8.35
-1.56
5.77
12.69
18.40
22.44
24.69
25.34
24.74
23.19
20.77
17.31
12.49
6.20
-1.19
-8.70
-15.08
-19.36
-21.24
-21.11
-19.68
-17.45
-14.53
-10.79
-6.29
-1.56
2.75
6.34
9.65
13.67
19.23
26.24
33.51
39.31
42.20
41.79
38.77
34.47
30.27
27.16
25.66
25.84
27.42
29.79
32.18
33.89
34.65
34.73
34.75
35.26
36.39
37.73
38.60
38.44
37.00
34.32
30.59
25.88
20.21
13.60
6.10
-2.21
-11.28
-21.08
-31.56
-42.49
-53.39
-63.53
-72.12
-78.55
-82.61
-84.56
-84.95
-84.46
-83.56
-82.51
-81.27
-79.78
-77.92
-75.64
-72.78
-69.02
-63.87
-56.85
-47.91
-37.60
-27.11
-17.92
-11.27
-7.70
-6.86
-7.69
-8.99
-9.81
-9.77
-8.99
-7.92
-7.01
-6.63
-6.94
-7.93
-9.36
-10.78
-11.65
-11.57
-10.48
-8.78
-7.23
-6.63
-7.45
-9.59
-12.43
-15.11
-16.94
-17.64
-17.42
-16.78
-16.29
-16.35
-17.25
-19.20
-22.32
-26.58
-31.51
-36.15
-39.12
-39.13
-35.47
-28.34
-18.92
-8.89
0.14
7.07
11.51
13.71
14.30
14.01
13.51
13.25
13.44
14.12
15.29
17.17
20.29
25.30
32.59
41.90
52.21
61.93
69.47
73.75
74.48
72.08
67.33
61.07
54.02
46.85
40.30
35.10
31.87
30.83
31.64
33.52
35.50
36.80
37.15
36.89
36.81
37.69
39.72
42.23
43.82
42.94
38.78
31.77
23.71
17.10
14.24
16.29
22.95
32.66
43.26
52.74
59.62
63.22
63.56
61.42
58.30
56.24
57.40
63.34
74.21
88.42
102.82
113.72
118.31
115.53
106.35
92.96
77.65
62.02
46.79
32.34
19.26
8.54
1.15
-2.55
-3.24
-2.47
-1.98
-2.99
-5.86
-10.18
-15.25
-20.39
-25.15
-29.23
-32.49
-34.97
-37.08
-39.57
-43.30
-48.94
-56.66
-66.07
-76.31
-86.30
-94.92
-101.33
-105.09
-106.34
-105.78
-104.41
-103.29
-103.15
-104.11
-105.74
-107.20
-107.59
-106.18
-102.65
-97.08
-89.92
-81.83
-73.46
-65.35
-57.80
-51.00
-45.19
-40.80
-38.27
-37.72
-38.63
-39.85
-40.04
-38.24
-34.37
-29.13
-23.55
-18.30
-13.46
-8.72
-3.88
0.76
4.45
6.45
6.60
5.49
4.16
3.52
3.85
4.83
5.79
6.13
5.49
3.72
0.76
-3.22
-7.47
-10.58
-10.82
-7.02
0.68
10.59
20.17
27.31
31.38
33.51
35.69
39.49
45.10
51.26
56.09
58.15
56.99
53.02
46.83
38.66
28.42
16.12
2.38
-11.48
-23.80
-33.26
-39.34
-42.39
-43.30
-42.92
-41.76
-39.87
-37.02
-32.86
-27.23
-20.19
-12.09
-3.54
4.64
11.62
16.81
20.11
21.87
22.78
23.44
24.16
24.81
25.05
24.56
23.19
21.09
18.47
15.47
12.07
8.17
3.82
-0.63
-4.57
-7.27
-8.15
-7.00
-4.06
0.04
4.45
8.29
10.85
11.69
10.68
8.02
4.18
-0.22
-4.61
-8.58
-11.96
-14.77
-17.09
-19.04
-20.68
-22.05
-23.17
-23.97
-24.24
-23.63
-21.77
-18.46
-13.81
-8.31
-2.75
2.13
5.75
7.87
8.54
7.97
6.43
4.14
1.39
-1.34
-3.41
-3.94
-2.18
2.27
9.16
17.58
26.19
33.66
39.15
42.48
44.04
44.46
44.17
43.27
41.54
38.76
34.92
30.35
25.58
21.07
17.11
13.84
11.37
9.91
9.73
10.96
13.35
16.20
18.57
19.61
18.92
16.74
13.70
10.58
7.83
5.45
3.09
0.25
-3.46
-8.14
-13.59
-19.41
-25.07
-29.96
-33.53
-35.43
-35.60
-34.33
-32.12
-29.54
-27.04
-24.92
-23.38
-22.61
-22.67
-23.41
-24.36
-24.82
-24.10
-21.88
-18.26
-13.75
-8.88
-4.03
0.66
5.16
9.37
13.10
16.20
18.68
20.76
22.68
24.63
26.58
28.30
29.48
29.74
28.68
26.07
21.90
16.71
11.37
6.86
3.67
1.57
-0.28
-2.86
-6.65
-11.40
-16.44
-21.18
-25.63
-30.39
-36.25
-43.52
-51.88
-60.52
-68.69
-76.04
-82.60
-88.50
-93.52
-97.17
-98.92
-98.70
-96.96
-94.43
-91.64
-88.60
-84.91
-80.19
-74.45
-68.14
-61.71
-55.17
-47.85
-38.69
-26.79
-12.01
5.02
23.18
41.45
59.29
76.57
93.25
109.06
123.55
136.30
147.19
156.57
165.04
173.06
180.57
186.73
190.04
188.69
181.17
166.85
146.30
121.20
94.02
67.31
43.13
22.69
6.26
-6.48
-16.13
-23.30
-28.58
-32.54
-35.76
-38.74
-41.83
-45.09
-48.33
-51.12
-52.99
-53.54
-52.54
-49.99
-46.13
-41.33
-36.02
-30.54
-25.08
-19.76
-14.59
-9.55
-4.57
0.49
5.83
11.72
18.41
26.03
34.54
43.58
52.54
60.64
67.13
71.52
73.69
73.78
72.02
68.55
63.40
56.59
48.36
39.13
29.35
19.14
8.20
-4.06
-18.05
-33.54
-49.54
-64.56
-77.11
-86.17
-91.36
-92.84
-91.11
-86.79
-80.60
-73.32
-65.73
-58.53
-52.19
-46.94
-42.81
-39.80
-37.88
-37.04
-37.24
-38.37
-40.24
-42.60
-45.10
-47.34
-48.96
-49.72
-49.49
-48.34
-46.48
-44.21
-41.90
-40.01
-39.18
-40.10
-43.39
-49.32
-57.69
-67.88
-79.07
-90.50
-101.61
-111.96
-121.01
-128.06
-132.34
-133.24
-130.72
-125.30
-117.79
-108.73
-97.88
-84.25
-66.55
-44.18
-17.81
10.40
37.47
60.66
78.49
90.93
98.78
102.66
102.29
96.92
86.25
71.70
56.58
45.00
40.09
42.54
50.55
61.09
71.74
81.76
91.79
102.51
113.53
123.21
129.83
132.77
133.00
132.43
132.51
133.20
133.06
130.37
124.22
115.18
104.90
95.13
87.04
80.99
76.88
74.62
74.25
75.76
78.78
82.41
85.27
85.69
81.98
72.91
58.03
37.94
13.94
-12.47
-40.34
-69.43
-99.87
-131.31
-162.30
-190.42
-213.13
-228.88
-237.58
-240.26
-238.03
-231.22
-219.36
-201.82
-178.88
-152.16
-124.18
-97.53
-74.04
-54.51
-39.11
-27.94
-21.32
-19.65
-22.91
-30.28
-40.12
-50.31
-58.76
-63.97
-65.36
-63.34
-59.07
-54.15
-50.15
-48.28
-49.22
-53.09
-59.47
-67.58
-76.41
-84.91
-92.22
-97.73
-101.11
-102.00
-99.88
-93.87
-82.89
-65.89
-41.92
-10.30
29.32
76.71
130.60
188.26
245.52
297.38
339.22
368.12
383.62
387.71
383.96
376.35
368.13
361.20
355.93
351.33
345.49
336.13
321.22
299.42
270.44
234.90
194.13
149.77
103.54
57.03
11.82
-30.52
-68.30
-99.89
-123.92
-139.63
-147.23
-148.00
-143.96
-137.40
-130.17
-123.28
-116.92
-110.76
-104.49
-98.11
-91.92
-86.28
-81.24
-76.53
-71.61
-66.01
-59.51
-52.30
-44.82
-37.62
-31.09
-25.43
-20.63
-16.58
-13.21
-10.57
-8.86
-8.28
-8.92
-10.58
-12.82
-14.98
-16.48
-17.02
-16.79
-16.29
-16.25
-17.27
-19.66
-23.35
-27.98
-33.12
-38.37
-43.49
-48.33
-52.80
-56.78
-60.14
-62.74
-64.50
-65.45
-65.75
-65.66
-65.49
-65.44
-65.54
-65.59
-65.24
-64.19
-62.30
-59.74
-56.92
-54.36
-52.53
-51.79
-52.39
-54.60
-58.73
-65.02
-73.54
-83.97
-95.69
-107.99
-120.43
-133.17
-147.02
-163.35
-183.58
-208.63
-238.15
-270.00
-300.16
-323.19
-333.43
-326.58
-301.13
-259.08
-205.62
-147.85
-92.77
-45.62
-8.87
17.80
36.99
52.71
69.67
92.32
123.83
164.89
213.12
263.58
310.32
348.44
375.58
391.92
398.91
397.72
388.54
371.18
346.31
316.06
283.47
250.84
218.29
183.78
144.71
100.16
52.17
5.42
-34.62
-63.86
-80.74
-86.08
-81.82
-69.87
-51.72
-28.72
-2.74
23.56
47.07
65.08
76.10
80.34
79.51
76.19
72.85
71.22
72.05
75.16
79.96
85.86
92.43
99.37
106.37
112.91
118.26
121.48
121.72
118.67
112.93
106.30
101.50
101.32
107.32
118.77
132.30
142.77
144.93
135.28
113.28
81.52
44.79
8.83
-20.94
-40.30
-46.87
-40.55
-23.67
-0.53
23.86
45.51
62.96
77.42
91.56
107.40
124.84
141.53
154.23
160.57
159.96
153.46
142.56
128.19
110.54
89.88
67.39
45.39
26.67
13.20
5.22
1.16
-1.72
-6.29
-14.83
-28.73
-48.40
-73.24
-101.89
-132.40
-162.66
-190.83
-215.56
-236.00
-251.61
-262.02
-266.95
-266.45
-261.06
-251.84
-240.16
-227.27
-213.93
-200.31
-186.08
-170.87
-154.68
-138.13
-122.36
-108.76
-98.45
-91.96
-89.03
-88.64
-89.20
-88.99
-86.52
-80.82
-71.61
-59.25
-44.58
-28.70
-12.80
1.90
14.34
23.61
29.18
31.00
29.55
25.77
20.87
16.11
12.50
10.63
10.48
11.51
12.81
13.36
12.39
9.57
5.05
-0.67
-6.92
-13.09
-18.71
-23.45
-27.02
-29.20
-29.89
-29.13
-27.13
-24.17
-20.49
-16.16
-11.20
-5.64
0.24
5.90
10.64
13.87
15.30
15.08
13.72
11.82
9.85
8.03
6.33
4.64
2.86
1.07
-0.56
-1.82
-2.51
-2.59
-2.10
-1.18
0.02
1.40
2.88
4.35
5.59
6.21
5.74
3.76
0.06
-5.23
-11.78
-19.06
-26.55
-33.77
-40.27
-45.50
-48.82
-49.53
-47.16
-41.60
-33.25
-23.02
-12.08
-1.66
7.20
13.86
18.02
19.84
19.68
18.12
15.68
12.89
10.10
7.63
5.74
4.70
4.68
5.70
7.50
9.57
11.30
12.11
11.62
9.73
6.54
2.15
-3.35
-9.90
-17.36
-25.42
-33.54
-41.08
-47.42
-52.10
-54.84
-55.45
-53.79
-49.73
-43.31
-34.87
-25.12
-15.08
-5.82
1.80
7.32
10.71
12.18
12.09
10.85
8.87
6.64
4.65
3.32
2.88
3.25
4.09
4.94
5.39
5.23
4.54
3.53
2.46
1.49
0.64
-0.29
-1.64
-3.88
-7.41
-12.49
-18.99
-26.36
-33.60
-39.49
-42.86
-42.92
-39.43
-32.78
-23.84
-13.70
-3.42
6.12
14.30
20.75
25.32
28.02
29.02
28.59
27.11
25.02
22.71
20.48
18.51
16.81
15.34
13.94
12.44
10.71
8.66
6.28
3.60
0.65
-2.66
-6.47
-10.96
-16.32
-22.66
-29.88
-37.66
-45.36
-52.07
-56.66
-58.04
-55.47
-48.84
-38.77
-26.52
-13.62
-1.48
8.96
17.28
23.48
27.76
30.30
31.28
30.87
29.43
27.55
26.01
25.59
26.84
29.87
34.25
39.15
43.58
46.76
48.33
48.45
47.64
46.45
45.25
44.04
42.55
40.47
37.61
34.10
30.28
26.62
23.63
21.82
21.71
23.85
28.73
36.59
47.20
59.79
73.09
85.51
95.49
101.83
103.85
101.43
94.79
84.23
70.04
52.49
32.13
9.96
-12.55
-33.82
-52.74
-69.08
-83.63
-97.78
-112.94
-129.98
-149.00
-169.38
-190.13
-210.11
-228.22
-243.60
-255.72
-264.60
-270.93
-275.93
-281.06
-287.47
-295.56
-304.70
-313.35
-319.35
-320.51
-315.10
-302.34
-282.53
-256.86
-227.06
-194.90
-161.80
-128.67
-95.99
-63.84
-32.09
-0.36
31.94
65.73
102.06
141.85
185.34
231.55
278.01
321.11
356.79
381.79
394.56
395.70
387.59
373.39
355.93
337.12
317.90
298.84
280.66
264.49
251.48
242.14
235.82
230.80
224.88
216.39
205.04
192.31
181.08
174.71
175.83
185.12
200.63
218.15
232.08
237.11
229.97
210.62
182.03
149.19
117.08
88.89
65.00
42.97
18.53
-13.18
-55.79
-110.00
-172.25
-234.65
-286.17
-315.43
-314.30
-281.27
-222.92
-152.53
-86.01
-36.54
-10.33
-5.31
-13.13
-23.50
-28.45
-24.87
-14.46
-1.57
9.27
14.85
13.25
2.93
-18.12
-51.63
-97.39
-151.49
-205.95
-250.16
-273.85
-270.58
-240.07
-188.66
-127.15
-67.37
-18.46
15.42
35.33
45.84
52.27
58.20
64.33
68.71
68.26
60.51
44.84
22.53
-4.21
-33.53
-64.82
-98.69
-136.25
-178.26
-224.48
-273.45
-322.67
-368.85
-408.10
-436.36
-449.96
-446.43
-425.21
-387.85
-337.59
-278.37
-213.97
-147.30
-80.58
-15.60
46.22
103.91
157.40
207.72
257.01
307.71
361.50
418.06
474.34
524.88
563.18
583.95
584.97
568.01
538.09
501.47
463.32
426.26
390.20
353.45
314.32
272.10
227.24
180.66
133.12
85.14
37.59
-7.65
-47.73
-79.65
-102.04
-116.33
-126.60
-137.89
-153.62
-173.81
-194.91
-211.58
-219.28
-216.19
-203.78
-185.75
-166.42
-149.02
-134.89
-123.49
-113.09
-101.89
-88.99
-74.92
-61.27
-49.88
-41.82
-36.85
-33.77
-31.28
-28.92
-27.27
-27.38
-29.93
-34.63
-40.35
-45.88
-50.70
-55.19
-60.34
-67.04
-75.69
-86.09
-97.75
-110.18
-123.03
-135.86
-147.84
-157.72
-164.11
-166.01
-163.09
-155.80
-145.00
-131.58
-116.18
-99.19
-81.06
-62.43
-44.06
-26.59
-10.17
5.56
21.37
37.94
55.61
74.16
92.82
110.50
126.02
138.42
147.25
152.69
155.35
155.92
154.81
152.02
147.38
140.91
133.18
125.18
117.95
112.13
107.76
104.49
101.94
99.92
98.40
97.15
95.56
92.70
87.74
80.43
71.34
61.54
52.08
43.46
35.49
27.57
19.13
10.09
0.87
-7.69
-14.58
-18.81
-19.59
-16.45
-9.36
1.30
14.84
30.46
47.50
65.54
84.27
103.27
121.64
137.97
150.44
157.35
157.64
151.36
139.71
124.82
109.21
95.19
84.43
77.67
74.68
74.40
75.04
74.31
69.76
59.31
42.17
19.85
-3.50
-21.82
-29.39
-23.45
-6.11
15.85
33.39
38.80
28.65
4.71
-27.61
-62.09
-94.31
-122.62
-147.45
-169.89
-190.64
-210.01
-228.38
-246.59
-265.47
-284.97
-303.26
-316.58
-320.02
-309.02
-280.99
-236.42
-178.85
-113.76
-47.03
16.62
74.33
124.83
167.57
201.74
225.92
238.31
237.61
223.70
198.09
163.53
123.38
80.82
38.36
-2.36
-40.41
-75.37
-106.77
-133.87
-155.66
-171.22
-180.24
-183.35
-182.04
-178.19
-173.51
-169.12
-165.61
-163.15
-161.75
-161.22
-161.05
-160.45
-158.60
-154.97
-149.44
-142.27
-133.67
-123.50
-111.28
-96.49
-79.11
-59.82
-39.88
-20.69
-3.39
11.50
23.84
33.65
40.84
45.18
46.52
45.08
41.60
37.16
32.82
29.11
25.82
22.09
16.82
9.25
-0.67
-12.21
-24.27
-35.90
-46.65
-56.61
-66.16
-75.60
-84.88
-93.57
-101.12
-107.13
-111.46
-114.25
-115.63
-115.56
-113.61
-109.16
-101.50
-90.19
-75.10
-56.52
-35.07
-11.67
12.59
36.44
58.48
77.27
91.58
100.66
104.48
103.74
99.77
94.08
88.06
82.71
78.51
75.65
74.08
73.70
74.31
75.54
76.80
77.35
76.54
73.99
69.78
64.34
58.31
52.18
46.21
40.29
34.13
27.44
20.09
12.29
4.66
-1.88
-6.25
-7.41
-4.77
1.67
11.20
22.62
34.52
45.64
55.11
62.36
67.10
69.10
68.25
64.62
58.64
51.16
43.23
35.87
29.90
25.73
23.48
22.96
23.78
25.33
26.89
27.75
27.43
25.87
23.39
20.58
17.95
15.69
13.64
11.34
8.32
4.24
-0.86
-6.57
-12.11
-16.37
-18.15
-16.43
-10.68
-1.07
11.49
25.61
39.81
52.78
63.65
71.93
77.44
80.23
80.57
79.04
76.49
73.88
72.02
71.38
71.99
73.64
76.07
79.18
82.96
87.33
91.92
96.03
98.80
99.48
97.72
93.69
88.04
81.64
75.28
69.37
63.77
57.79
50.45
40.93
29.02
15.48
1.98
-9.29
-16.42
-18.38
-15.43
-8.91
-0.71
7.44
14.33
19.44
22.66
24.03
23.65
21.74
18.86
15.90
13.89
13.67
15.49
18.86
22.67
25.50
25.93
22.74
15.17
2.92
-13.62
-33.41
-54.83
-76.03
-95.39
-111.91
-125.39
-136.32
-145.65
-154.37
-163.29
-172.77
-182.73
-192.67
-201.95
-210.17
-217.55
-225.08
-234.12
-245.71
-259.74
-274.64
-287.92
-297.12
-300.87
-299.33
-293.88
-286.21
-277.35
-267.19
-254.47
-237.41
-214.36
-184.51
-148.14
-106.46
-61.41
-15.02
31.01
75.74
119.03
161.75
205.64
252.87
304.86
360.92
417.22
467.32
504.20
522.96
522.92
507.62
482.88
453.76
422.64
388.95
350.84
307.12
258.19
205.37
149.43
89.90
25.68
-42.95
-112.69
-177.13
-228.66
-261.36
-273.52
-268.31
-252.25
-232.44
-213.82
-198.07
-184.15
-170.08
-154.49
-137.32
-119.32
-101.17
-82.91
-64.12
-44.54
-24.54
-5.08
12.80
28.59
42.74
56.47
71.48
89.48
111.76
138.70
169.46
201.96
233.22
260.27
281.06
294.93
302.26
303.66
299.13
287.85
268.70
241.04
205.30
162.88
115.68
65.65
14.68
-35.29
-82.07
-123.48
-157.78
-184.25
-203.48
-217.10
-227.24
-235.76
-243.68
-251.04
-257.04
-260.60
-260.85
-257.63
-251.67
-244.26
-236.77
-229.97
-223.72
-217.12
-208.89
-197.94
-183.67
-166.01
-145.33
-122.23
-97.42
-71.67
-45.78
-20.50
3.52
25.73
45.64
62.63
76.03
85.15
89.51
89.04
84.19
75.92
65.70
55.33
46.84
42.14
42.67
49.05
60.98
77.25
96.13
115.80
134.71
151.88
167.01
180.27
192.02
202.46
211.36
217.94
221.18
220.20
214.64
204.83
191.54
175.76
158.35
140.04
121.43
103.05
85.33
68.47
52.51
37.41
23.39
10.98
1.08
-5.29
-7.26
-4.39
3.13
14.24
26.96
38.54
45.89
46.31
38.37
22.36
0.04
-25.98
-53.04
-79.05
-102.51
-122.38
-138.02
-149.39
-157.37
-163.88
-171.33
-181.71
-195.44
-210.82
-224.40
-232.32
-231.90
-222.87
-207.49
-189.69
-173.61
-162.37
-157.34
-158.23
-163.52
-171.08
-178.60
-183.79
-184.44
-178.39
-163.80
-139.41
-105.17
-62.67
-15.19
32.78
76.75
113.45
141.64
161.94
175.95
185.03
189.71
189.81
185.19
176.56
165.58
154.46
145.29
139.55
137.93
140.20
145.14
150.37
152.70
149.13
138.14
120.48
98.93
77.15
58.05
42.75
30.76
21.05
13.27
8.22
7.03
9.76
14.34
16.75
12.47
-1.62
-25.73
-56.86
-89.64
-117.90
-136.33
-141.55
-132.83
-112.00
-83.00
-50.94
-21.16
1.78
14.95
17.30
9.33
-7.37
-30.57
-57.47
-84.73
-108.79
-126.47
-135.98
-137.39
-132.58
-124.29
-115.01
-106.17
-98.11
-90.59
-83.54
-77.46
-73.25
-71.69
-72.94
-76.31
-80.46
-83.91
-85.40
-84.20
-80.20
-73.91
-66.16
-57.81
-49.59
-42.02
-35.54
-30.65
-27.88
-27.55
-29.52
-33.04
-37.08
-40.86
-44.43
-48.81
-55.62
-66.19
-80.73
-97.86
-115.11
-129.81
-140.07
-145.22
-145.43
-141.09
-132.33
-119.23
-102.38
-83.57
-65.54
-51.26
-42.69
-40.11
-42.15
-46.66
-51.59
-55.40
-56.99
-55.34
-49.38
-38.46
-22.78
-3.55
17.63
39.65
62.68
88.16
117.90
152.93
192.44
233.67
272.48
304.47
326.04
335.08
331.14
315.22
289.30
255.98
218.12
178.60
140.34
106.07
78.26
58.71
48.24
46.39
51.46
60.97
72.33
83.46
93.13
100.89
106.81
111.14
114.12
115.87
116.36
115.28
112.13
106.38
97.71
86.43
73.46
60.12
47.63
36.50
26.38
16.28
5.11
-7.66
-21.76
-36.27
-50.12
-62.49
-73.07
-81.97
-89.38
-95.42
-100.04
-103.28
-105.43
-107.19
-109.31
-112.32
-116.00
-119.26
-120.40
-117.64
-109.85
-96.98
-80.11
-61.11
-42.00
-24.49
-9.74
1.58
9.14
12.89
13.16
10.79
7.05
3.38
0.80
-0.38
-0.65
-0.88
-1.75
-3.40
-5.42
-7.16
-8.16
-8.44
-8.34
-8.28
-8.40
-8.50
-8.18
-7.09
-5.21
-2.85
-0.55
1.13
1.81
1.43
0.28
-0.94
-1.29
0.30
4.72
12.36
22.95
35.51
48.60
60.56
69.90
75.58
77.22
75.27
70.88
65.70
61.30
58.62
57.65
57.48
56.77
54.39
49.83
43.34
35.68
27.69
20.00
12.91
6.50
0.76
-4.29
-8.64
-12.25
-15.15
-17.37
-18.91
-19.77
-19.94
-19.51
-18.82
-18.51
-19.50
-22.67
-28.51
-36.75
-46.25
-55.21
-61.74
-64.42
-62.82
-57.46
-49.62
-40.82
-32.33
-24.92
-18.84
-13.90
-9.82
-6.49
-4.07
-2.91
-3.31
-5.22
-8.06
-10.80
-12.26
-11.70
-9.06
-5.05
-0.84
2.47
4.23
4.54
4.28
4.99
8.47
16.20
28.63
44.62
61.52
75.74
84.01
84.51
77.51
65.07
50.15
35.40
22.35
11.37
1.99
-6.36
-13.99
-20.75
-26.21
-29.89
-31.49
-31.02
-28.77
-25.30
-21.34
-17.67
-14.98
-13.69
-13.83
-15.09
-16.88
-18.37
-18.78
-17.46
-14.08
-8.71
-1.84
5.73
13.08
19.36
24.02
26.93
28.37
28.87
28.90
28.67
28.05
26.63
23.98
19.96
14.77
8.95
3.07
-2.52
-7.80
-13.03
-18.47
-24.13
-29.65
-34.44
-37.83
-39.32
-38.67
-35.86
-31.08
-24.67
-17.13
-9.13
-1.44
5.17
10.15
13.25
14.59
14.55
13.66
12.38
11.03
9.80
8.76
7.98
7.50
7.40
7.64
8.08
8.46
8.52
8.03
6.92
5.24
3.07
0.46
-2.51
-5.77
-9.18
-12.57
-15.85
-19.01
-22.24
-25.75
-29.66
-33.79
-37.61
-40.28
-41.01
-39.20
-34.69
-27.76
-19.06
-9.45
0.13
8.83
15.95
21.02
23.88
24.69
23.81
21.80
19.29
16.87
14.98
13.89
13.67
14.11
14.91
15.72
16.29
16.52
16.49
16.24
15.77
14.93
13.44
11.14
8.05
4.44
0.74
-2.70
-5.73
-8.39
-10.87
-13.36
-15.94
-18.62
-21.32
-23.89
-26.06
-27.36
-27.12
-24.74
-19.89
-12.74
-4.02
5.18
13.72
20.66
25.49
28.03
28.45
27.06
24.31
20.71
16.79
13.10
10.16
8.35
7.84
8.49
9.90
11.51
12.82
13.47
13.38
12.61
11.30
9.49
7.22
4.48
1.34
-1.98
-5.21
-8.02
-10.20
-11.68
-12.56
-13.05
-13.46
-14.08
-15.13
-16.69
-18.65
-20.64
-22.12
-22.43
-20.96
-17.39
-11.81
-4.74
2.92
10.22
16.32
20.73
23.25
23.85
22.60
19.64
15.24
9.94
4.48
-0.36
-3.95
-5.97
-6.53
-6.01
-4.93
-3.81
-3.05
-2.94
-3.56
-4.84
-6.54
-8.35
-10.03
-11.56
-13.09
-14.90
-17.20
-19.96
-22.86
-25.48
-27.41
-28.46
-28.72
-28.43
-27.96
-27.68
-27.83
-28.50
-29.57
-30.63
-31.02
-30.00
-26.95
-21.61
-14.25
-5.59
3.41
11.78
18.77
23.92
27.03
28.07
27.15
24.52
20.66
16.20
11.91
8.40
6.06
4.88
4.60
4.84
5.31
5.85
6.48
7.23
8.04
8.72
8.96
8.51
7.25
5.28
2.86
0.35
-1.94
-3.79
-5.20
-6.36
-7.57
-9.19
-11.48
-14.46
-17.89
-21.17
-23.35
-23.38
-20.30
-13.56
-3.38
9.27
22.77
35.26
45.17
51.54
54.18
53.53
50.38
45.55
39.74
33.49
27.23
21.40
16.44
12.67
10.22
8.93
8.39
8.07
7.52
6.52
5.12
3.51
1.84
0.18
-1.56
-3.53
-5.79
-8.31
-10.95
-13.57
-16.10
-18.57
-21.09
-23.80
-26.70
-29.62
-32.18
-33.88
-34.16
-32.62
-29.09
-23.70
-16.93
-9.48
-2.29
3.67
7.59
9.05
8.15
5.55
2.22
-0.97
-3.49
-5.23
-6.41
-7.20
-7.71
-7.87
-7.50
-6.27
-3.50
1.86
10.91
24.14
40.74
58.40
73.85
84.01
87.16
83.42
74.47
62.49
49.21
35.47
21.49
7.50
-5.77
-17.08
-25.15
-29.13
-29.03
-25.51
-19.58
-12.28
-4.40
3.50
10.96
17.46
22.38
25.06
24.99
21.99
16.27
8.50
-0.38
-9.30
-17.35
-23.92
-28.81
-32.18
-34.45
-36.05
-37.23
-38.01
-38.20
-37.64
-36.36
-34.65
-32.99
-31.88
-31.63
-32.24
-33.50
-34.98
-36.16
-36.55
-35.76
-33.71
-30.66
-27.30
-24.46
-22.81
-22.49
-22.97
-23.14
-21.74
-17.85
-11.23
-2.27
8.18
19.17
29.83
39.47
47.44
53.14
56.09
56.12
53.67
49.84
46.15
44.15
44.82
48.25
53.59
59.43
64.40
67.59
68.74
68.05
65.78
61.93
56.19
48.18
37.83
25.56
12.30
-0.83
-12.88
-23.27
-31.92
-38.98
-44.69
-49.21
-52.60
-54.95
-56.45
-57.54
-58.71
-60.37
-62.55
-64.77
-66.13
-65.58
-62.29
-55.99
-47.02
-36.15
-24.18
-11.68
1.09
13.87
26.05
36.53
43.93
47.01
45.27
39.16
29.96
19.29
8.57
-1.26
-9.73
-16.58
-21.63
-24.70
-25.78
-25.20
-23.59
-21.73
-20.24
-19.47
-19.44
-19.95
-20.77
-21.73
-22.67
-23.50
-24.21
-24.86
-25.66
-26.80
-28.24
-29.71
-30.61
-30.28
-28.15
-24.04
-18.13
-10.93
-3.09
4.77
12.12
18.58
23.87
27.83
30.34
31.33
30.74
28.59
24.96
20.18
14.76
9.36
4.61
1.02
-1.19
-2.04
-1.80
-0.87
0.32
1.38
2.01
2.07
1.51
0.39
-1.16
-2.96
-4.81
-6.52
-7.99
-9.28
-10.55
-12.05
-13.95
-16.20
-18.46
-20.09
-20.35
-18.59
-14.58
-8.55
-1.31
6.07
12.52
17.30
20.15
21.22
20.90
19.59
17.62
15.23
12.62
10.06
7.79
6.02
4.87
4.36
4.49
5.21
6.42
7.86
9.12
9.73
9.30
7.66
4.95
1.55
-2.03
-5.35
-8.11
-10.29
-12.11
-13.93
-16.09
-18.76
-21.65
-24.08
-25.09
-23.76
-19.66
-13.03
-4.81
3.69
11.15
16.69
20.08
21.78
22.83
24.50
27.81
33.21
40.27
47.75
54.03
57.60
57.59
54.04
47.70
39.65
30.90
22.05
13.38
5.01
-2.88
-9.93
-15.71
-19.83
-22.14
-22.82
-22.32
-21.23
-20.01
-18.96
-18.14
-17.61
-17.42
-17.72
-18.52
-19.57
-20.26
-19.79
-17.53
-13.31
-7.64
-1.47
3.98
7.66
8.95
7.75
4.50
-0.06
-5.04
-9.62
-13.20
-15.49
-16.40
-16.00
-14.48
-12.03
-8.93
-5.54
-2.19
0.83
3.40
5.58
7.53
9.38
11.19
12.88
14.34
15.42
15.99
15.91
15.05
13.21
10.26
6.16
1.01
-4.96
-11.38
-17.86
-23.97
-29.26
-33.24
-35.34
-35.04
-32.00
-26.27
-18.39
-9.32
-0.22
7.84
14.07
18.14
19.98
19.78
17.74
14.11
9.25
3.71
-1.76
-6.31
-9.28
-10.30
-9.44
-7.07
-3.68
0.26
4.50
8.89
13.28
17.43
20.98
23.47
24.60
24.28
22.75
20.55
18.36
16.77
16.07
16.18
16.60
16.67
15.80
13.74
10.76
7.55
5.03
4.05
5.16
8.42
13.54
19.90
26.68
33.07
38.32
41.84
43.36
42.87
40.66
37.26
33.29
29.36
25.99
23.49
21.93
21.18
20.92
20.81
20.54
19.94
18.93
17.49
15.54
12.96
9.70
5.82
1.51
-2.98
-7.43
-11.72
-15.81
-19.70
-23.41
-27.07
-30.90
-35.19
-40.17
-45.68
-51.15
-55.58
-57.95
-57.54
-54.27
-48.60
-41.41
-33.65
-26.15
-19.58
-14.42
-11.01
-9.49
-9.73
-11.27
-13.48
-15.69
-17.36
-18.26
-18.36
-17.82
-16.81
-15.47
-13.90
-12.17
-10.39
-8.72
-7.36
-6.54
-6.39
-6.89
-7.88
-9.05
-10.10
-10.88
-11.42
-11.98
-12.85
-14.19
-15.89
-17.51
-18.43
-18.08
-16.16
-12.74
-8.22
-3.06
2.37
7.85
13.25
18.27
22.40
24.96
25.36
23.43
19.55
14.58
9.74
6.44
6.11
9.96
18.55
31.36
46.49
60.99
71.62
75.93
73.08
63.97
50.74
35.83
21.21
7.99
-3.39
-12.80
-20.19
-25.55
-29.08
-31.30
-32.92
-34.56
-36.46
-38.29
-39.23
-38.35
-35.07
-29.44
-22.22
-14.57
-7.76
-2.69
0.17
0.69
-1.05
-4.90
-10.70
-18.09
-26.42
-34.74
-41.96
-47.06
-49.34
-48.47
-44.60
-38.21
-30.14
-21.41
-13.15
-6.43
-1.98
-0.09
-0.54
-2.66
-5.59
-8.53
-11.00
-12.91
-14.56
-16.45
-19.06
-22.58
-26.79
-30.95
-34.07
-35.15
-33.51
-28.98
-21.91
-13.03
-3.26
6.52
15.56
23.25
29.17
33.06
34.86
34.73
32.98
30.11
26.64
23.05
19.69
16.81
14.55
13.00
12.20
12.09
12.48
13.01
13.24
12.81
11.56
9.53
6.95
4.12
1.25
-1.47
-3.98
-6.23
-8.30
-10.38
-12.79
-15.83
-19.70
-24.22
-28.87
-32.78
-34.97
-34.64
-31.39
-25.35
-17.21
-7.95
1.35
9.80
16.88
22.38
26.33
28.83
30.04
30.13
29.31
27.82
25.94
23.94
22.07
20.57
19.64
19.33
19.55
20.07
20.60
20.91
20.90
20.57
19.94
18.98
17.58
15.69
13.34
10.68
7.93
5.25
2.73
0.31
-2.05
-4.46
-6.94
-9.53
-12.30
-15.37
-18.86
-22.93
-27.52
-32.29
-36.56
-39.40
-39.85
-37.26
-31.57
-23.32
-13.51
-3.26
6.46
14.93
21.72
26.55
29.22
29.72
28.25
25.39
21.90
18.65
16.27
15.07
14.92
15.39
15.99
16.30
16.16
15.66
14.95
14.13
13.12
11.67
9.51
6.54
2.91
-0.98
-4.67
-7.82
-10.38
-12.61
-14.89
-17.63
-20.97
-24.74
-28.40
-31.19
-32.30
-31.12
-27.42
-21.41
-13.70
-5.10
3.58
11.65
18.68
24.35
28.47
30.85
31.36
30.05
27.16
23.21
18.92
15.22
13.05
13.37
16.90
24.03
34.49
47.22
60.40
71.77
79.18
81.16
77.28
68.07
54.75
38.74
21.37
3.79
-12.96
-27.86
-39.97
-48.64
-53.78
-55.94
-56.22
-55.93
-56.17
-57.48
-59.59
-61.56
-62.12
-60.14
-55.09
-47.19
-37.30
-26.59
-16.12
-6.65
1.31
7.37
11.13
12.27
10.73
6.95
1.82
-3.59
-8.42
-12.31
-15.37
-17.90
-20.03
-21.56
-21.97
-20.61
-16.87
-10.16
-0.01
13.76
30.64
49.06
66.43
79.71
86.42
85.44
77.45
64.42
48.78
32.50
16.67
1.64
-12.41
-25.01
-35.20
-41.87
-44.25
-42.23
-36.54
-28.60
-20.06
-12.46
-6.86
-3.75
-3.03
-4.29
-6.91
-10.33
-14.09
-17.76
-21.02
-23.58
-25.17
-25.57
-24.72
-22.70
-19.81
-16.53
-13.41
-10.92
-9.24
-8.27
-7.56
-6.63
-5.07
-2.83
-0.22
2.19
3.77
4.09
3.06
1.00
-1.55
-3.93
-5.61
-6.37
-6.34
-6.01
-6.02
-7.03
-9.40
-13.12
-17.71
-22.29
-25.80
-27.18
-25.70
-21.08
-13.62
-4.10
6.48
17.23
27.82
38.54
50.11
63.10
77.33
91.53
103.58
111.14
112.55
107.41
96.67
82.18
65.98
49.82
34.89
21.94
11.53
4.09
-0.20
-1.63
-0.99
0.54
1.75
1.86
0.65
-1.54
-4.14
-6.72
-9.16
-11.70
-14.74
-18.61
-23.44
-29.06
-35.14
-41.23
-46.80
-51.34
-54.34
-55.51
-54.75
-52.24
-48.30
-43.36
-37.84
-32.18
-26.88
-22.47
-19.45
-18.05
-18.11
-19.12
-20.36
-21.08
-20.78
-19.23
-16.43
-12.59
-8.01
-3.04
1.89
6.40
10.15
12.96
14.77
15.62
15.60
14.82
13.41
11.57
9.54
7.46
5.29
2.80
-0.32
-4.31
-9.16
-14.50
-19.60
-23.56
-25.45
-24.56
-20.60
-13.82
-5.07
4.40
13.20
20.18
24.71
26.69
26.40
24.34
20.97
16.67
11.84
6.91
2.38
-1.32
-3.96
-5.56
-6.32
-6.53
-6.46
-6.26
-6.05
-5.88
-5.86
-6.09
-6.71
-7.81
-9.37
-11.32
-13.52
-15.82
-18.05
-20.17
-22.16
-24.15
-26.33
-28.93
-32.06
-35.58
-38.96
-41.32
-41.61
-38.97
-33.10
-24.41
-13.94
-3.03
7.12
15.66
22.20
26.62
28.91
29.18
27.67
24.93
21.72
18.87
16.93
16.08
16.08
16.42
16.71
16.70
16.46
16.12
15.83
15.55
15.15
14.41
13.15
11.28
8.84
6.04
3.10
0.24
-2.44
-4.98
-7.56
-10.44
-13.81
-17.73
-22.01
-26.20
-29.58
-31.35
-30.77
-27.46
-21.56
-13.66
-4.70
4.36
12.68
19.68
25.00
28.46
30.06
29.99
28.62
26.47
24.11
22.03
20.65
20.19
20.67
21.95
23.64
25.27
26.41
26.85
26.63
26.03
25.33
24.60
23.69
22.32
20.36
18.00
15.74
14.13
13.45
13.47
13.45
12.42
9.62
4.80
-1.57
-8.44
-14.52
-18.57
-19.79
-17.91
-13.17
-6.21
2.17
11.10
19.74
27.33
33.21
36.80
37.74
35.96
31.73
25.69
18.76
11.99
6.27
2.20
-0.14
-1.12
-1.39
-1.69
-2.53
-4.08
-6.19
-8.48
-10.58
-12.25
-13.44
-14.22
-14.67
-14.72
-14.18
-12.73
-10.15
-6.44
-1.98
2.51
6.18
8.29
8.51
7.11
4.88
2.91
2.22
3.42
6.46
10.63
14.72
17.34
17.30
14.06
7.88
-0.12
-8.18
-14.31
-16.87
-15.06
-9.19
-0.73
8.10
14.95
17.93
16.15
9.83
0.06
-11.60
-23.64
-34.83
-44.39
-51.89
-57.23
-60.62
-62.53
-63.65
-64.56
-65.64
-66.94
-68.26
-69.30
-69.80
-69.42
-67.74
-64.12
-57.90
-48.75
-36.97
-23.55
-9.94
2.46
12.77
20.67
26.30
29.88
31.56
31.42
29.63
26.70
23.41
20.69
19.35
19.76
21.87
25.16
28.86
32.18
34.52
35.59
35.46
34.48
33.01
31.28
29.20
26.46
22.76
18.08
12.75
7.37
2.39
-2.11
-6.51
-11.39
-17.09
-23.27
-28.86
-32.45
-32.76
-29.17
-21.75
-11.07
2.12
17.05
32.76
47.83
60.40
68.47
70.55
66.29
56.61
43.34
28.59
14.10
1.01
-10.04
-18.71
-24.73
-27.98
-28.55
-26.79
-23.32
-18.80
-13.90
-9.25
-5.41
-2.83
-1.70
-1.94
-3.21
-5.12
-7.40
-10.08
-13.36
-17.52
-22.74
-29.00
-36.08
-43.58
-50.90
-57.22
-61.57
-62.96
-60.68
-54.55
-45.13
-33.60
-21.44
-10.13
-0.78
6.00
10.06
11.68
11.40
9.94
8.10
6.71
6.40
7.49
9.93
13.32
17.05
20.58
23.54
25.78
27.34
28.24
28.48
27.96
26.57
24.30
21.30
17.88
14.44
11.24
8.35
5.64
2.82
-0.36
-4.01
-8.07
-12.25
-16.11
-19.11
-20.66
-20.26
-17.59
-12.70
-6.02
1.60
9.08
15.33
19.52
21.22
20.47
17.72
13.59
8.75
3.76
-0.89
-4.75
-7.43
-8.58
-8.05
-5.95
-2.70
1.09
4.79
7.96
10.37
12.09
13.32
14.30
15.15
15.88
16.37
16.50
16.15
15.24
13.69
11.44
8.42
4.65
0.36
-3.97
-7.60
-9.74
-9.71
-7.23
-2.52
3.69
10.37
16.40
20.90
23.35
23.65
22.08
19.07
15.06
10.44
5.50
0.59
-3.90
-7.48
-9.79
-10.67
-10.37
-9.43
-8.50
-8.12
-8.43
-9.24
-10.11
-10.60
-10.53
-10.04
-9.46
-9.21
-9.64
-10.95
-13.22
-16.41
-20.34
-24.57
-28.36
-30.74
-30.76
-27.80
-21.91
-13.83
-4.78
3.90
11.15
16.40
19.56
20.81
20.40
18.63
15.80
12.32
8.72
5.55
3.26
2.08
1.93
2.54
3.53
4.49
5.15
5.34
5.02
4.21
2.94
1.22
-0.92
-3.42
-6.16
-8.97
-11.70
-14.32
-16.90
-19.53
-22.15
-24.40
-25.62
-25.08
-22.18
-16.81
-9.37
-0.67
8.25
16.36
22.86
27.15
28.90
28.06
24.93
20.12
14.50
9.02
4.47
1.28
-0.51
-1.19
-1.11
-0.51
0.53
2.05
4.04
6.31
8.45
9.93
10.28
9.31
7.11
4.07
0.76
-2.23
-4.39
-5.45
-5.43
-4.63
-3.47
-2.30
-1.16
0.22
2.36
5.77
10.69
17.01
24.23
31.63
38.41
43.84
47.28
48.30
46.72
42.74
36.87
29.92
22.78
16.18
10.60
6.17
2.77
0.10
-2.19
-4.39
-6.66
-9.04
-11.48
-13.91
-16.33
-18.76
-21.24
-23.75
-26.17
-28.33
-30.10
-31.52
-32.81
-34.33
-36.40
-39.11
-42.18
-45.03
-46.93
-47.25
-45.63
-42.03
-36.64
-29.75
-21.70
-12.90
-3.92
4.49
11.42
16.12
18.19
17.85
15.96
13.95
13.48
16.21
23.38
35.45
51.71
70.21
88.01
101.85
109.12
108.59
100.73
87.45
71.32
54.71
39.23
25.67
14.22
4.81
-2.66
-8.38
-12.77
-16.57
-20.63
-25.61
-31.58
-37.95
-43.57
-47.18
-47.92
-45.72
-41.34
-36.06
-31.25
-27.89
-26.31
-26.21
-26.91
-27.62
-27.82
-27.26
-26.04
-24.46
-22.84
-21.45
-20.43
-19.83
-19.68
-19.99
-20.79
-22.09
-23.89
-26.13
-28.71
-31.40
-33.92
-35.92
-37.18
-37.68
-37.72
-37.79
-38.42
-39.92
-42.22
-44.87
-47.19
-48.44
-47.94
-45.22
-39.98
-32.28
-22.61
-11.87
-1.26
8.02
15.01
19.32
21.08
20.87
19.59
18.16
17.42
17.96
20.03
23.52
28.01
32.80
37.17
40.44
42.21
42.35
40.99
38.36
34.76
30.42
25.54
20.31
14.99
9.84
5.14
0.97
-2.75
-6.31
-10.06
-14.25
-18.87
-23.52
-27.50
-29.96
-30.06
-27.36
-21.89
-14.28
-5.53
3.25
11.11
17.44
21.92
24.48
25.12
23.92
21.11
17.16
12.80
8.87
6.08
4.81
4.95
6.05
7.51
8.85
9.85
10.48
10.78
10.70
10.03
8.55
6.16
3.03
-0.47
-3.88
-6.91
-9.47
-11.79
-14.19
-16.97
-20.29
-24.08
-27.98
-31.39
-33.50
-33.54
-30.95
-25.61
-17.98
-8.94
0.36
8.87
15.79
20.67
23.40
24.12
23.15
20.98
18.17
15.27
12.75
10.87
9.73
9.33
9.62
10.51
11.82
13.27
14.48
15.11
14.89
13.84
12.07
9.82
7.26
4.50
1.56
-1.56
-4.86
-8.32
-11.89
-15.54
-19.26
-23.03
-26.79
-30.35
-33.26
-34.78
-34.08
-30.48
-23.86
-14.87
-4.78
4.79
12.44
17.34
19.36
18.96
16.88
13.91
10.69
7.66
5.02
2.84
1.07
-0.38
-1.47
-1.98
-1.37
1.09
6.07
13.87
24.05
35.29
45.69
53.30
56.80
55.88
51.27
44.23
35.99
27.25
18.09
8.34
-2.01
-12.48
-22.10
-29.66
-34.15
-35.06
-32.49
-27.06
-19.69
-11.42
-3.19
4.13
9.81
13.23
13.93
11.81
7.20
0.86
-6.08
-12.40
-17.05
-19.44
-19.47
-17.63
-14.71
-11.63
-9.19
-7.83
-7.57
-8.14
-9.18
-10.41
-11.72
-13.20
-14.93
-16.95
-19.20
-21.65
-24.39
-27.66
-31.72
-36.65
-42.04
-46.99
-50.20
-50.36
-46.62
-38.90
-27.91
-14.94
-1.46
11.22
22.16
30.77
36.71
39.79
40.00
37.59
33.15
27.60
21.97
17.21
13.98
12.51
12.71
14.20
16.46
18.94
21.11
22.48
22.75
21.82
19.84
17.14
14.15
11.22
8.52
6.04
3.57
0.85
-2.31
-5.97
-9.98
-13.90
-17.06
-18.65
-17.88
-14.29
-7.97
0.35
9.48
18.13
25.29
30.42
33.49
34.72
34.33
32.45
29.16
24.70
19.58
14.54
10.32
7.39
5.80
5.23
5.16
5.06
4.66
3.84
2.59
0.93
-1.15
-3.67
-6.59
-9.79
-13.05
-16.08
-18.72
-20.95
-22.95
-24.96
-27.03
-28.91
-29.93
-29.22
-25.98
-19.86
-11.18
-0.80
10.06
20.29
29.06
35.93
40.68
43.11
43.04
40.33
35.21
28.38
20.99
14.43
9.86
7.94
8.64
11.32
15.03
18.91
22.41
25.41
28.09
30.71
33.36
35.90
37.98
39.28
39.64
39.12
37.95
36.36
34.46
32.30
30.05
27.98
26.34
25.04
23.43
20.48
15.24
7.40
-2.38
-12.58
-21.47
-27.93
-32.01
-34.69
-37.23
-40.42
-44.12
-47.59
-49.95
-50.77
-50.35
-49.45
-48.72
-48.32
-47.95
-47.24
-46.24
-45.31
-45.04
-46.06
-48.83
-53.38
-59.30
-66.01
-73.06
-80.32
-87.52
-94.24
-100.31
-105.99
-111.56
-116.83
-121.03
-123.03
-121.91
-116.67
-106.45
-91.44
-72.99
-52.82
-32.16
-11.62
8.39
27.40
45.72
64.95
86.73
111.94
140.65
172.47
206.76
242.86
273.17
290.01
291.49
282.32
268.82
253.84
236.48
214.86
188.51
162.53
137.87
116.29
98.77
84.65
72.30
60.27
47.65
33.62
18.20
1.62
-14.89
-30.35
-44.52
-57.56
-69.41
-79.72
-87.96
-93.51
-95.92
-94.27
-88.37
-79.24
-68.72
-58.72
-50.62
-44.99
-41.47
-39.21
-36.59
-32.35
-26.20
-18.87
-11.64
-5.87
-2.44
-1.52
-2.83
-5.65
-9.52
-14.48
-20.82
-28.56
-37.09
-45.20
-51.54
-55.28
-56.28
-54.96
-51.92
-47.41
-41.25
-33.15
-23.25
-12.43
-2.28
5.40
9.23
8.58
3.68
-4.74
-15.74
-28.53
-42.50
-57.22
-72.29
-87.15
-101.09
-113.33
-123.16
-130.09
-133.98
-134.93
-133.25
-129.30
-123.45
-116.08
-107.71
-98.88
-90.19
-82.15
-75.17
-69.61
-65.82
-64.16
-64.94
-68.27
-73.85
-80.92
-88.27
-94.38
-97.65
-96.69
-90.67
-79.62
-64.54
-47.19
-29.69
-13.89
-0.93
8.90
15.87
20.45
22.80
22.78
20.13
14.86
7.53
-0.84
-9.13
-16.50
-22.67
-27.73
-31.91
-35.28
-37.69
-39.00
-39.34
-39.20
-39.15
-39.50
-39.98
-39.92
-38.61
-35.82
-31.96
-27.89
-24.34
-21.48
-18.66
-14.67
-8.19
1.57
14.62
30.14
46.75
62.87
77.19
88.93
98.03
105.00
110.71
115.97
121.28
126.62
131.56
135.50
137.90
138.46
137.08
133.75
128.36
120.77
110.84
98.58
84.27
68.48
51.85
35.02
18.39
2.03
-14.26
-30.85
-47.97
-65.42
-82.33
-97.16
-108.11
-113.62
-112.89
-106.08
-94.11
-78.21
-59.34
-37.99
-14.21
12.06
40.67
71.07
102.42
133.82
164.55
194.10
221.89
247.02
268.05
283.06
290.11
287.78
275.74
254.93
227.41
195.82
162.81
130.39
99.77
71.40
45.18
20.82
-1.94
-23.28
-43.26
-61.83
-78.75
-93.46
-105.08
-112.57
-115.15
-112.70
-106.02
-96.67
-86.55
-77.39
-70.36
-65.98
-64.27
-65.01
-67.85
-72.45
-78.45
-85.39
-92.79
-100.10
-106.75
-112.25
-116.17
-118.30
-118.75
-117.99
-116.78
-116.01
-116.38
-118.18
-121.20
-124.82
-128.24
-130.87
-132.57
-133.73
-135.15
-137.67
-141.73
-147.01
-152.37
-156.09
-156.51
-152.62
-144.55
-133.41
-120.62
-107.08
-92.51
-75.32
-52.96
-22.63
18.16
71.07
136.31
211.85
292.64
370.61
435.95
479.60
496.01
484.79
450.61
401.21
344.66
287.20
232.35
181.27
133.85
89.58
48.23
10.00
-24.38
-53.69
-76.38
-91.00
-96.70
-93.50
-82.19
-63.94
-40.04
-11.84
19.22
51.41
82.90
111.96
137.30
158.23
174.53
186.26
193.56
196.60
195.69
191.27
183.93
174.29
162.88
150.14
136.43
122.16
107.75
93.50
79.57
65.85
52.15
38.37
24.65
11.31
-1.35
-13.33
-24.99
-36.78
-48.88
-60.95
-72.20
-81.87
-89.73
-96.30
-102.66
-109.84
-118.21
-127.09
-135.08
-140.55
-142.44
-140.59
-135.85
-129.60
-123.19
-117.47
-112.59
-108.11
-103.34
-97.59
-90.35
-81.31
-70.22
-56.78
-40.71
-21.78
0.10
24.88
52.24
81.55
111.75
141.31
168.21
190.05
204.45
209.45
204.02
188.42
164.29
134.43
102.14
70.47
41.66
17.00
-2.85
-17.21
-25.05
-25.08
-16.43
0.50
23.54
48.80
71.63
87.82
94.91
92.98
84.40
72.80
61.40
51.81
43.61
35.10
24.78
12.67
0.59
-8.64
-12.68
-10.91
-4.77
2.92
9.16
11.71
9.41
1.97
-10.35
-26.98
-47.00
-69.25
-92.54
-116.08
-139.62
-163.29
-186.95
-209.70
-229.77
-245.04
-253.99
-256.43
-253.62
-247.67
-240.58
-233.47
-226.22
-217.84
-207.00
-192.86
-175.56
-156.40
-137.75
-122.35
-112.60
-109.52
-112.36
-118.88
-126.37
-132.87
-138.05
-143.50
-152.05
-166.98
-190.17
-221.20
-257.17
-293.35
-324.30
-345.05
-352.47
-345.79
-327.39
-301.10
-271.16
-241.14
-213.36
-188.45
-165.28
-141.76
-115.51
-86.18
-54.51
-22.22
8.45
35.35
57.08
73.51
85.13
93.34
98.54
101.89
105.00
109.16
114.46
119.52
122.50
121.33
125.39
139.45
163.97
195.19
227.07
252.73
264.43
260.65
242.11
212.77
177.78
143.67
116.66
100.79
95.58
95.94
94.69
85.10
64.61
34.98
3.02
-22.26
-33.62
-28.57
-9.86
16.76
45.02
71.07
93.02
110.67
123.75
131.05
130.97
123.33
110.72
97.73
89.30
87.88
92.68
100.17
105.89
106.45
100.71
89.83
76.03
61.48
47.24
33.35
19.27
4.54
-10.77
-25.97
-39.96
-51.68
-60.47
-66.17
-69.04
-69.72
-69.04
-68.04
-67.79
-69.13
-72.32
-76.84
-81.44
-84.59
-85.13
-82.75
-78.09
-72.39
-66.94
-62.56
-59.44
-57.21
-55.31
-53.21
-50.53
-47.09
-42.83
-37.77
-31.98
-25.52
-18.54
-11.14
-3.57
3.87
10.78
16.78
21.61
25.34
28.23
30.70
33.09
35.58
38.11
40.49
42.51
44.14
45.56
47.22
49.73
53.76
59.80
67.99
78.00
88.95
99.58
108.41
114.11
115.79
113.27
107.06
98.26
88.27
78.32
69.31
61.63
55.26
49.96
45.42
41.42
37.75
34.24
30.66
26.78
22.51
18.00
13.69
10.16
7.85
6.77
6.41
5.84
4.13
0.74
-4.33
-10.67
-17.61
-24.54
-30.92
-36.22
-39.76
-40.83
-38.96
-34.28
-27.55
-20.12
-13.33
-8.25
-5.36
-4.68
-5.96
-8.79
-12.59
-16.50
-19.42
-20.22
-18.16
-13.15
-5.77
2.91
11.72
19.64
25.89
29.93
31.37
30.02
26.01
19.77
12.02
3.51
-5.02
-13.01
-19.90
-25.16
-28.28
-28.89
-26.78
-21.94
-14.50
-4.71
7.06
20.09
33.26
45.15
54.27
59.58
60.68
57.97
52.37
45.03
37.02
29.23
22.39
17.07
13.79
12.85
14.28
17.79
22.85
28.88
35.42
42.16
48.92
55.39
61.06
65.26
67.35
67.01
64.41
60.17
55.19
50.40
46.57
44.19
43.57
44.87
48.22
53.79
61.82
72.55
86.06
102.03
119.59
137.44
154.17
168.78
180.91
190.96
199.84
208.58
218.00
228.48
239.90
251.65
262.81
272.40
279.68
284.24
285.97
284.80
280.45
272.33
259.65
241.71
218.24
189.43
156.08
119.66
82.33
46.85
16.06
-8.04
-24.98
-36.12
-44.03
-51.44
-60.07
-70.31
-81.59
-93.35
-105.80
-120.01
-137.38
-158.76
-184.02
-212.38
-242.95
-275.22
-308.79
-342.69
-374.90
-402.71
-423.90
-438.10
-447.35
-455.24
-464.90
-476.92
-488.43
-493.95
-487.59
-465.31
-426.21
-372.34
-307.58
-236.45
-163.65
-94.38
-34.57
9.75
34.14
37.61
23.67
-0.72
-27.77
-51.94
-71.61
-88.16
-103.39
-116.63
-123.51
-117.06
-90.89
-42.57
24.24
100.04
172.06
228.05
259.49
263.37
242.13
202.18
151.78
99.10
50.90
12.03
-14.88
-29.34
-32.94
-29.01
-21.83
-15.62
-13.39
-16.47
-24.57
-36.36
-50.02
-63.69
-75.79
-85.19
-91.39
-94.41
-94.70
-92.69
-88.74
-83.02
-75.67
-66.88
-56.81
-45.53
-33.01
-19.36
-5.16
8.50
20.40
29.70
36.53
41.91
47.16
53.16
59.74
65.91
70.50
72.76
72.63
70.42
66.36
60.41
52.44
42.57
31.22
18.86
5.54
-9.15
-25.70
-43.91
-62.28
-78.10
-88.05
-89.28
-80.28
-61.50
-35.25
-5.27
24.08
48.84
66.48
76.55
80.82
82.69
85.99
93.61
106.59
123.87
142.90
160.74
174.94
183.95
187.06
183.96
174.59
159.19
138.58
114.51
89.58
66.41
46.76
30.79
17.21
4.17
-9.43
-23.04
-34.43
-40.66
-39.42
-30.27
-15.06
2.55
18.18
27.86
28.96
20.81
4.90
-15.30
-34.73
-48.14
-52.02
-46.25
-35.06
-26.33
-29.40
-51.89
-96.56
-159.49
-230.66
-296.48
-343.61
-362.51
-349.71
-308.17
-246.11
-174.85
-106.46
-51.69
-18.39
-10.25
-26.01
-59.53
-100.87
-138.34
-161.33
-162.82
-141.15
-100.20
-48.05
5.09
49.78
79.80
93.50
93.58
85.50
75.03
66.30
60.81
57.87
55.91
53.62
50.51
46.72
42.57
38.23
33.95
30.43
28.98
31.26
38.51
50.83
66.87
84.17
100.01
112.21
119.64
122.22
120.58
115.54
107.76
97.66
85.46
71.33
55.44
37.98
19.27
-0.21
-19.69
-38.04
-54.00
-66.37
-74.41
-78.11
-78.15
-75.80
-72.51
-69.61
-68.06
-68.40
-70.78
-75.02
-80.66
-87.02
-93.41
-99.17
-103.84
-107.21
-109.18
-109.83
-109.25
-107.65
-105.42
-103.25
-101.94
-102.22
-104.36
-108.11
-112.68
-117.11
-120.60
-122.64
-123.18
-122.36
-120.50
-117.87
-114.69
-110.98
-106.54
-100.92
-93.65
-84.53
-73.93
-62.81
-52.44
-43.93
-37.85
-34.10
-32.21
-31.76
-32.68
-35.25
-39.74
-45.98
-53.10
-59.64
-63.95
-64.73
-61.40
-54.29
-44.43
-33.28
-22.38
-12.99
-5.77
-0.65
3.29
7.58
13.98
23.72
37.01
52.65
68.24
80.86
88.02
88.56
83.09
73.94
64.54
58.59
59.25
68.47
86.69
112.76
144.29
178.19
211.43
241.65
267.69
289.57
308.08
324.07
337.81
348.72
355.61
357.35
353.42
344.18
330.69
314.20
295.73
275.89
254.96
233.23
211.15
189.26
168.04
147.76
128.55
110.63
94.36
80.12
67.94
57.11
46.16
33.24
16.90
-3.34
-26.70
-51.41
-75.17
-95.87
-111.87
-122.25
-126.75
-125.77
-120.37
-112.16
-103.12
-95.16
-89.60
-86.82
-86.06
-85.82
-84.42
-80.63
-74.12
-65.45
-55.74
-46.09
-37.20
-29.15
-21.62
-14.22
-6.81
0.37
6.72
11.61
14.58
15.68
15.53
15.22
15.93
18.59
23.39
29.87
37.07
44.16
50.73
57.07
63.90
72.03
81.92
93.48
105.94
118.06
128.26
134.92
136.72
132.93
123.55
109.43
92.08
73.38
55.07
38.28
23.19
8.94
-5.94
-22.87
-42.52
-64.42
-87.06
-108.36
-126.31
-139.43
-146.86
-148.35
-144.06
-134.60
-120.94
-104.36
-86.04
-66.70
-46.38
-24.61
-0.91
24.56
50.75
75.84
97.81
115.15
127.24
134.42
137.63
137.91
135.88
131.59
124.57
114.13
99.80
81.62
60.37
37.53
15.12
-4.66
-19.76
-28.74
-31.08
-27.33
-19.06
-8.45
2.29
11.59
18.87
24.55
29.58
34.82
40.52
46.24
51.18
54.59
56.19
56.14
54.75
52.08
47.72
40.92
30.95
17.53
1.19
-16.79
-34.63
-50.48
-62.78
-70.48
-73.20
-71.22
-65.44
-57.34
-48.64
-40.93
-35.30
-31.93
-30.16
-28.78
-26.64
-23.01
-17.83
-11.49
-4.49
2.83
10.30
17.73
24.57
29.93
32.72
32.12
27.89
20.62
11.53
2.09
-6.38
-13.11
-17.97
-21.46
-24.39
-27.56
-31.42
-35.85
-40.22
-43.69
-45.65
-46.16
-45.98
-46.40
-48.59
-53.34
-60.95
-71.55
-85.50
-103.43
-125.81
-152.30
-181.31
-210.13
-235.76
-255.79
-268.79
-273.99
-270.48
-256.77
-231.18
-193.11
-144.41
-89.90
-36.34
9.72
44.14
66.42
79.12
86.17
90.83
94.59
97.35
98.50
98.03
96.86
96.31
97.02
98.22
97.79
93.15
82.54
66.09
46.06
26.17
10.43
1.70
0.78
6.24
15.14
24.25
31.21
35.10
36.27
35.62
33.84
30.97
26.62
20.51
12.70
3.72
-5.83
-15.57
-25.36
-35.14
-44.67
-53.54
-61.45
-68.52
-75.22
-82.07
-89.14
-95.81
-101.03
-103.95
-104.45
-103.24
-101.51
-100.24
-99.76
-99.58
-98.57
-95.22
-87.86
-74.81
-54.82
-27.60
5.61
42.00
77.59
108.30
130.95
143.85
146.84
140.80
127.21
107.86
84.79
60.28
36.64
15.82
-0.97
-13.33
-21.46
-25.84
-26.96
-25.30
-21.44
-16.11
-10.17
-4.44
0.48
4.26
6.75
7.93
7.78
6.31
3.63
-0.08
-4.54
-9.35
-14.02
-17.97
-20.59
-21.31
-19.72
-15.77
-9.90
-2.99
3.78
9.17
12.19
12.31
9.53
4.37
-2.35
-9.61
-16.44
-21.99
-25.74
-27.55
-27.68
-26.66
-25.14
-23.58
-22.23
-21.05
-19.81
-18.30
-16.39
-14.07
-11.45
-8.71
-6.03
-3.55
-1.32
0.63
2.32
3.74
4.85
5.76
6.82
8.67
12.07
17.58
25.25
34.40
43.84
52.22
58.43
61.95
62.78
61.23
57.73
52.73
46.76
40.51
34.73
30.02
26.63
24.33
22.48
20.34
17.30
13.05
7.60
1.16
-5.95
-13.29
-20.40
-26.87
-32.54
-37.58
-42.39
-47.31
-52.31
-56.89
-60.28
-61.87
-61.60
-59.91
-57.46
-54.63
-51.22
-46.59
-40.11
-31.70
-21.99
-12.18
-3.51
3.19
7.70
10.35
11.62
11.98
11.67
10.81
9.52
8.03
6.70
5.89
5.87
6.68
8.16
9.99
11.80
13.28
14.28
14.80
15.03
15.16
15.36
15.69
16.08
16.42
16.65
16.75
16.83
16.96
17.15
17.28
17.21
16.82
16.18
15.52
15.27
15.88
17.64
20.53
24.00
27.11
28.76
28.16
25.24
20.82
16.36
13.43
13.06
15.44
19.93
25.52
31.42
37.44
44.08
52.26
62.88
76.35
92.45
110.31
128.70
146.31
162.11
175.36
185.66
192.75
196.37
196.21
191.99
183.48
170.59
153.45
132.35
107.96
81.48
54.58
29.21
7.03
-11.17
-25.74
-38.03
-49.72
-62.09
-75.41
-89.07
-101.97
-113.12
-121.96
-128.27
-131.83
-132.21
-128.95
-121.98
-112.11
-101.00
-90.77
-83.34
-79.79
-80.17
-83.65
-88.88
-94.37
-98.75
-100.95
-100.36
-97.01
-91.64
-85.43
-79.62
-75.02
-71.74
-69.26
-66.74
-63.43
-58.93
-53.24
-46.73
-39.95
-33.50
-27.91
-23.59
-20.79
-19.64
-20.20
-22.53
-26.74
-32.82
-40.62
-49.66
-59.18
-68.23
-75.96
-81.79
-85.56
-87.47
-87.95
-87.40
-86.00
-83.66
-80.01
-74.56
-66.89
-56.90
-44.94
-31.83
-18.73
-6.89
2.55
8.74
11.17
9.94
5.94
0.91
-2.99
-4.07
-1.97
1.94
5.20
5.63
2.71
-1.83
-4.51
-1.41
10.51
32.61
64.55
104.65
150.13
197.40
242.30
280.76
309.70
327.87
335.84
335.46
328.74
317.08
301.16
281.34
258.12
232.51
205.78
179.10
153.25
128.62
105.53
84.42
65.94
50.73
39.05
30.61
24.56
19.74
15.15
10.23
5.00
-0.04
-4.19
-6.76
-7.28
-5.65
-2.10
2.74
7.97
12.68
16.10
17.87
18.11
17.24
15.77
14.04
12.11
9.90
7.34
4.53
1.78
-0.64
-2.76
-5.04
-8.31
-13.39
-20.79
-30.34
-41.22
-52.21
-62.18
-70.40
-76.74
-81.55
-85.30
-88.32
-90.61
-91.92
-92.05
-91.14
-89.71
-88.52
-88.29
-89.31
-91.31
-93.46
-94.71
-94.08
-90.97
-85.35
-77.66
-68.71
-59.39
-50.49
-42.55
-35.89
-30.61
-26.70
-24.05
-22.36
-21.16
-19.82
-17.79
-14.74
-10.73
-6.10
-1.36
3.10
7.10
10.58
13.55
15.88
17.34
17.74
17.05
15.54
13.69
12.05
11.10
11.15
12.35
14.73
18.21
22.54
27.32
32.13
36.70
41.06
45.60
50.84
57.12
64.40
72.11
79.36
85.10
88.35
88.29
84.30
76.06
63.67
47.79
29.61
10.57
-7.97
-25.12
-40.51
-54.21
-66.39
-77.11
-86.18
-93.31
-98.25
-101.02
-102.08
-102.31
-102.92
-105.04
-109.29
-115.21
-121.07
-124.10
-121.55
-112.02
-96.61
-78.89
-63.74
-55.36
-55.56
-63.21
-75.02
-87.30
-97.41
-104.45
-108.68
-110.67
-110.58
-108.19
-103.44
-97.00
-90.30
-84.97
-82.12
-81.91
-83.69
-86.49
-89.51
-92.33
-94.82
-96.81
-97.90
-97.60
-95.57
-91.85
-86.94
-81.56
-76.28
-71.31
-66.47
-61.39
-55.89
-50.13
-44.63
-40.08
-36.98
-35.53
-35.53
-36.48
-37.82
-39.08
-40.07
-40.86
-41.75
-43.11
-45.16
-47.96
-51.30
-54.80
-57.88
-59.90
-60.11
-57.91
-52.92
-45.28
-35.74
-25.46
-15.76
-7.72
-1.86
1.85
3.83
4.52
4.15
2.71
0.12
-3.65
-8.41
-13.87
-19.78
-25.95
-32.28
-38.60
-44.57
-49.68
-53.45
-55.67
-56.60
-56.90
-57.39
-58.70
-60.88
-63.36
-64.97
-64.27
-59.85
-50.84
-37.20
-19.93
-0.90
17.57
33.32
44.90
51.89
54.89
55.30
54.89
55.42
58.13
63.45
70.87
79.23
87.20
93.77
98.48
101.36
102.55
102.17
100.42
97.90
95.95
96.42
101.17
111.33
126.86
146.68
169.16
192.64
215.66
236.93
255.19
269.34
278.78
283.77
285.46
285.57
285.74
287.01
289.56
292.77
295.66
297.20
296.59
293.32
287.19
278.19
266.33
251.70
234.39
214.71
193.18
170.66
148.16
126.71
107.07
89.68
74.65
61.84
50.90
41.32
32.36
23.09
12.62
0.34
-13.82
-29.40
-45.48
-60.83
-74.29
-85.02
-92.72
-97.80
-101.26
-104.31
-107.91
-112.45
-117.63
-122.79
-127.32
-131.01
-134.14
-137.19
-140.55
-144.28
-148.12
-151.70
-154.67
-156.83
-158.00
-157.93
-156.25
-152.46
-146.13
-137.03
-125.32
-111.51
-96.47
-81.18
-66.66
-53.71
-42.86
-34.44
-28.60
-25.45
-25.17
-27.85
-33.50
-41.72
-51.73
-62.37
-72.25
-80.14
-85.19
-87.11
-86.17
-83.00
-78.36
-72.98
-67.45
-62.23
-57.63
-53.82
-50.76
-48.19
-45.70
-42.86
-39.41
-35.32
-30.82
-26.30
-22.11
-18.45
-15.15
-11.60
-6.90
-0.09
9.44
21.67
35.78
50.44
64.12
75.52
83.79
88.60
90.05
88.53
84.56
78.70
71.53
63.53
55.12
46.67
38.51
30.95
24.28
18.63
13.95
10.01
6.53
3.31
0.30
-2.41
-4.68
-6.50
-7.95
-9.21
-10.46
-11.74
-13.02
-14.19
-15.21
-16.18
-17.32
-18.80
-20.60
-22.34
-23.33
-22.83
-20.35
-15.89
-9.97
-3.40
3.00
8.64
13.19
16.45
18.17
18.02
15.80
11.62
6.12
0.29
-4.83
-8.61
-10.99
-12.41
-13.40
-14.27
-15.00
-15.37
-15.27
-14.84
-14.45
-14.44
-14.86
-15.42
-15.62
-15.11
-13.80
-11.96
-10.06
-8.52
-7.56
-7.19
-7.20
-7.16
-6.52
-4.68
-1.17
4.14
10.85
18.10
24.78
29.94
33.05
34.06
33.26
31.01
27.57
23.11
17.89
12.40
7.33
3.43
1.13
0.36
0.61
1.12
1.24
0.64
-0.65
-2.37
-4.23
-6.07
-7.89
-9.76
-11.74
-13.88
-16.18
-18.67
-21.39
-24.26
-27.00
-29.09
-29.75
-28.29
-24.22
-17.58
-8.94
0.81
10.71
20.02
28.23
35.09
40.25
43.45
44.70
44.42
43.42
42.36
41.80
42.09
43.26
44.90
46.56
47.96
49.15
50.54
52.27
54.23
56.06
56.99
55.45
49.91
39.59
24.64
6.36
-14.30
-36.34
-58.67
-80.39
-102.04
-123.84
-144.75
-162.48
-173.53
-176.85
-172.49
-160.87
-143.18
-123.70
-106.14
-91.67
-78.69
-62.73
-43.76
-23.23
-2.45
16.96
29.70
32.44
26.48
17.41
14.62
19.29
29.16
41.11
50.42
46.97
22.53
-25.17
-91.88
-166.24
-244.77
-325.74
-406.85
-446.69
-417.76
-324.67
-201.51
-113.61
-61.30
-37.00
-36.81
-47.00
-63.47
-88.57
-121.97
-156.86
-181.25
-179.48
-148.98
-94.02
-21.94
56.89
128.50
181.56
210.91
218.12
211.85
196.06
174.10
149.80
125.08
98.29
67.30
32.06
-4.41
-35.02
-56.08
-64.96
-59.87
-41.79
-14.96
14.96
42.77
64.78
80.07
87.46
87.23
81.38
72.70
63.99
57.64
55.31
57.90
65.81
78.19
94.00
112.30
131.98
151.63
169.43
183.24
191.04
191.41
183.60
167.48
143.10
110.43
69.29
19.70
-37.84
-101.88
-169.95
-238.49
-302.96
-358.16
-398.86
-420.78
-421.59
-401.66
-363.98
-313.18
-254.06
-190.14
-123.04
-52.85
20.64
96.47
171.66
241.49
300.74
345.62
375.08
391.04
397.49
398.70
397.65
395.35
391.43
385.23
376.82
367.16
357.52
348.55
339.78
329.72
316.72
299.77
278.93
255.34
230.63
206.23
182.74
159.87
136.73
112.51
87.19
61.78
38.10
18.04
2.74
-7.88
-14.90
-19.72
-23.28
-25.71
-26.65
-25.97
-24.33
-23.17
-24.29
-29.01
-37.99
-51.29
-68.94
-91.16
-118.22
-149.95
-185.35
-222.55
-259.44
-294.24
-325.86
-353.79
-377.58
-396.20
-407.81
-410.19
-401.60
-381.93
-353.29
-319.71
-285.83
-255.12
-228.51
-204.45
-180.18
-153.67
-124.95
-96.11
-69.91
-48.12
-30.68
-16.04
-2.48
10.74
23.05
33.21
40.34
44.60
47.26
50.13
54.85
62.35
72.63
84.88
97.74
109.73
119.66
126.94
131.67
134.41
135.79
136.10
135.22
132.66
127.92
120.87
111.93
102.01
92.15
83.06
74.85
66.99
58.70
49.36
38.96
28.06
17.55
8.13
0.03
-7.08
-13.73
-20.28
-26.71
-32.77
-38.17
-42.90
-47.21
-51.34
-55.21
-58.19
-59.20
-57.17
-51.38
-41.84
-29.23
-14.60
0.88
16.17
30.35
42.58
52.18
58.67
61.97
62.39
60.58
57.32
53.29
49.07
45.16
41.93
39.63
38.23
37.35
36.40
34.90
32.67
29.90
26.93
24.02
21.12
17.98
14.26
9.87
4.94
-0.29
-5.69
-11.36
-17.47
-24.08
-30.76
-36.64
-40.58
-41.67
-39.61
-34.86
-28.51
-21.90
-16.23
-12.39
-10.88
-11.95
-15.68
-21.92
-30.24
-39.89
-49.97
-59.60
-68.18
-75.50
-81.72
-87.17
-92.12
-96.72
-100.94
-104.68
-107.91
-110.67
-113.18
-115.71
-118.55
-121.96
-126.04
-130.68
-135.34
-138.88
-139.52
-135.07
-123.45
-103.42
-74.89
-39.14
1.48
44.14
85.85
123.88
155.98
180.56
196.90
205.37
207.31
204.70
199.64
193.74
187.87
182.21
176.47
170.26
163.37
155.80
147.75
139.48
131.18
122.91
114.47
105.64
96.26
86.36
76.21
66.25
56.94
48.52
40.97
34.02
27.36
20.81
14.46
8.75
4.39
2.04
2.17
4.86
9.73
16.14
23.34
30.64
37.49
43.45
48.14
51.32
52.97
53.38
53.04
52.61
52.65
53.54
55.52
58.57
62.64
67.63
73.40
79.86
86.93
94.52
102.45
110.49
118.43
126.28
134.36
143.32
153.85
166.31
180.52
195.76
211.18
226.25
241.02
255.96
271.53
288.25
306.81
327.93
351.67
377.12
402.26
424.03
438.93
443.77
437.10
419.71
394.16
363.21
328.88
292.09
252.90
211.04
165.90
117.74
67.78
17.79
-31.66
-80.74
-129.96
-179.66
-229.90
-282.31
-337.16
-392.92
-446.12
-495.69
-541.83
-585.20
-626.27
-665.25
-705.65
-748.52
-791.70
-829.67
-862.32
-891.31
-917.63
-940.07
-956.24
-969.76
-981.89
-989.87
-985.31
-967.32
-937.68
-898.89
-853.32
-804.06
-761.93
-731.73
-708.79
-677.97
-633.55
-575.35
-506.49
-430.84
-304.48
-120.54
90.12
253.67
369.15
450.38
511.70
556.87
587.80
606.24
606.75
589.07
559.91
533.69
513.94
499.26
487.05
476.26
466.86
453.64
435.26
415.61
404.50
403.63
411.32
424.85
442.02
460.10
472.08
473.20
463.05
446.87
426.63
403.02
375.99
345.39
310.83
270.63
225.35
178.31
135.11
98.31
68.22
43.81
23.94
7.66
-6.21
-18.29
-28.69
-36.90
-43.36
-48.69
-53.46
-58.05
-62.79
-67.96
-73.53
-79.10
-83.83
-86.70
-86.82
-83.72
-77.44
-68.56
-57.93
-46.50
-35.10
-24.34
-14.70
-6.55
-0.24
3.95
5.88
5.77
4.12
1.66
-0.90
-3.08
-4.73
-5.84
-6.44
-6.49
-5.94
-4.91
-3.77
-3.10
-3.39
-4.83
-7.27
-10.30
-13.55
-16.89
-20.41
-24.32
-28.79
-33.74
-38.97
-44.08
-48.54
-51.73
-52.96
-51.57
-47.15
-39.64
-29.50
-17.60
-5.13
6.67
16.65
24.02
28.39
29.80
28.72
25.89
22.15
18.34
15.15
13.12
12.52
13.31
15.12
17.37
19.35
20.52
20.57
19.52
17.59
15.11
12.34
9.50
6.66
3.79
0.79
-2.44
-6.07
-10.20
-14.85
-19.95
-25.18
-29.98
-33.52
-34.88
-33.25
-28.23
-19.95
-9.16
3.00
15.17
26.07
34.74
40.62
43.68
44.30
43.22
41.31
39.32
37.65
36.23
34.65
32.29
28.72
23.81
17.86
11.50
5.40
0.12
-4.06
-7.24
-9.65
-11.56
-13.14
-14.43
-15.38
-16.00
-16.46
-17.08
-18.29
-20.48
-23.82
-28.06
-32.53
-36.17
-37.75
-36.22
-30.89
-21.67
-9.05
5.93
21.91
37.35
50.68
60.59
66.22
67.32
64.35
58.32
50.50
42.13
34.16
27.18
21.47
17.12
14.03
12.05
10.92
10.37
10.19
10.28
10.63
11.18
11.77
12.11
11.82
10.57
8.29
5.13
1.42
-2.41
-6.11
-9.64
-13.22
-17.17
-21.69
-26.62
-31.38
-35.10
-36.94
-36.49
-33.89
-29.82
-25.11
-20.50
-16.40
-12.94
-10.25
-8.59
-8.40
-10.06
-13.56
-18.34
-23.29
-27.15
-28.90
-28.17
-25.27
-20.97
-16.14
-11.39
-7.04
-3.19
-0.01
2.14
2.78
1.56
-1.45
-5.73
-10.45
-14.71
-17.99
-20.24
-21.91
-23.66
-26.05
-29.23
-32.81
-35.97
-37.70
-37.17
-33.97
-28.27
-20.65
-11.96
-3.15
4.85
11.15
15.08
16.18
14.46
10.36
4.71
-1.47
-7.17
-11.66
-14.47
-15.46
-14.82
-12.97
-10.60
-8.49
-7.31
-7.40
-8.72
-10.91
-13.51
-16.19
-18.87
-21.64
-24.58
-27.65
-30.65
-33.42
-36.05
-38.92
-42.62
-47.54
-53.59
-60.06
-65.87
-69.96
-71.76
-71.27
-69.07
-65.94
-62.55
-59.32
-56.54
-54.44
-53.40
-53.79
-55.86
-59.50
-64.17
-69.10
-73.45
-76.59
-78.07
-77.48
-74.40
-68.33
-58.96
-46.31
-31.01
-14.04
3.51
20.89
37.87
54.58
71.16
87.34
102.29
114.75
123.64
128.36
128.99
126.01
119.98
111.26
100.06
86.56
71.21
54.83
38.42
22.88
8.74
-3.85
-14.91
-24.31
-31.79
-37.08
-40.14
-41.36
-41.69
-42.40
-44.79
-49.64
-56.65
-64.86
-72.65
-77.89
-78.33
-72.19
-58.62
-38.24
-12.83
15.78
45.36
74.43
103.02
132.62
164.85
200.21
236.68
270.42
297.96
316.27
324.44
324.08
318.74
311.64
304.49
296.29
284.53
267.45
242.64
208.03
162.57
107.33
44.82
-21.04
-86.93
-155.30
-219.43
-270.51
-304.32
-323.11
-330.71
-334.31
-334.81
-332.43
-327.81
-321.11
-314.00
-304.65
-292.69
-277.12
-256.92
-231.09
-200.35
-166.60
-131.74
-98.77
-70.63
-49.24
-34.12
-23.23
-13.54
-3.01
9.46
24.48
41.21
57.84
71.84
81.34
85.53
85.32
82.85
80.95
82.23
87.30
94.68
101.60
106.12
108.15
109.68
113.50
121.97
136.11
155.06
176.43
196.94
213.21
222.45
223.06
215.05
199.94
180.10
157.77
134.14
109.37
83.22
55.91
28.49
2.55
-20.53
-40.05
-55.95
-68.52
-78.02
-84.94
-90.33
-95.99
-104.09
-116.12
-131.88
-149.02
-163.63
-171.51
-169.61
-156.74
-133.61
-102.31
-65.61
-26.65
11.19
44.47
70.21
86.60
93.65
93.48
89.64
85.98
85.33
88.68
95.11
102.57
108.90
112.61
113.26
111.30
107.68
103.44
99.42
96.17
93.92
92.65
92.16
92.14
92.30
92.44
92.44
92.19
91.44
89.85
87.07
83.04
78.12
72.93
68.00
63.34
58.26
51.59
42.14
29.08
12.07
-8.89
-33.77
-62.52
-94.91
-130.19
-166.85
-202.80
-235.83
-264.08
-286.39
-302.17
-311.16
-313.15
-308.05
-296.17
-278.56
-257.09
-234.11
-211.87
-191.88
-174.67
-159.98
-147.14
-135.54
-124.83
-114.90
-105.64
-96.76
-87.86
-78.55
-68.61
-57.96
-46.58
-34.25
-20.57
-5.01
12.79
32.72
54.07
75.68
96.12
114.17
129.02
140.44
148.64
154.08
157.29
158.78
158.99
158.27
156.90
154.94
152.22
148.41
143.19
136.48
128.52
119.82
110.89
102.09
93.56
85.30
77.28
69.59
62.30
55.32
48.31
40.76
32.21
22.55
12.20
2.07
-6.73
-13.13
-16.52
-16.79
-14.40
-10.21
-5.36
-0.94
2.07
3.02
1.69
-1.74
-6.69
-12.41
-18.14
-23.36
-27.78
-31.30
-33.84
-35.34
-35.75
-35.23
-34.24
-33.38
-33.17
-33.78
-34.99
-36.25
-37.06
-37.22
-36.86
-36.29
-35.80
-35.48
-35.25
-35.05
-34.79
-34.35
-33.30
-30.85
-25.95
-17.79
-6.18
8.10
23.50
38.15
50.42
59.35
64.67
66.61
65.62
62.18
56.87
50.37
43.49
36.99
31.42
27.07
23.87
21.64
20.05
18.73
17.19
14.99
11.81
7.62
2.72
-2.42
-7.34
-11.88
-16.19
-20.57
-25.28
-30.35
-35.51
-40.23
-43.82
-45.54
-44.74
-41.05
-34.53
-25.78
-15.87
-6.09
2.36
8.63
12.34
13.50
12.45
9.64
5.63
1.02
-3.59
-7.66
-10.75
-12.61
-13.17
-12.54
-11.11
-9.42
-8.18
-8.03
-9.27
-11.80
-15.04
-18.27
-20.88
-22.63
-23.70
-24.51
-25.50
-26.95
-28.91
-31.26
-33.78
-36.07
-37.58
-37.52
-35.13
-29.89
-21.79
-11.50
-0.14
10.95
20.65
28.20
33.28
35.88
36.17
34.45
31.12
26.76
22.14
18.05
15.15
13.80
14.00
15.42
17.54
19.80
21.75
23.02
23.40
22.83
21.29
18.78
15.15
10.09
3.27
-5.65
-16.78
-29.98
-44.98
-61.41
-78.84
-96.65
-113.83
-128.99
-140.53
-147.12
-148.11
-143.61
-134.38
-121.52
-106.17
-89.58
-73.10
-58.22
-46.25
-37.97
-33.35
-31.57
-31.43
-31.77
-31.84
-31.26
-29.88
-27.54
-24.15
-19.78
-14.80
-9.90
-5.80
-3.07
-1.89
-2.05
-3.05
-4.35
-5.53
-6.41
-7.04
-7.67
-8.69
-10.47
-13.26
-17.07
-21.49
-25.70
-28.53
-28.71
-25.13
-17.29
-5.51
9.11
24.94
40.32
53.96
65.12
73.56
79.22
81.89
81.01
75.91
66.17
52.14
35.12
17.06
-0.02
-14.86
-27.36
-38.54
-49.93
-62.67
-77.03
-92.29
-107.07
-120.06
-130.34
-137.47
-141.32
-141.77
-138.86
-132.94
-124.96
-116.35
-108.57
-102.36
-97.30
-91.79
-83.61
-70.91
-52.96
-30.52
-5.58
19.40
42.15
61.12
75.52
85.16
90.28
91.37
89.24
85.03
80.07
75.70
72.82
71.77
72.27
73.67
75.30
76.84
78.38
80.37
83.45
88.12
94.52
102.36
110.84
118.88
125.29
129.07
129.53
126.33
119.47
109.15
95.91
80.72
65.12
50.99
40.19
33.96
32.51
34.92
39.53
44.50
48.37
50.28
49.87
47.09
42.04
34.90
26.08
16.41
7.06
-0.66
-5.60
-7.16
-5.45
-1.28
4.19
9.88
15.05
19.46
23.15
26.14
28.28
29.29
28.98
27.49
25.37
23.33
21.83
20.80
19.55
17.13
12.78
6.36
-1.50
-9.51
-16.21
-20.28
-20.89
-17.83
-11.40
-2.26
8.69
20.38
31.66
41.33
48.33
51.91
51.84
48.41
42.37
34.77
26.64
18.91
12.25
7.00
3.26
0.80
-0.80
-2.15
-3.93
-6.68
-10.70
-15.98
-22.23
-29.01
-35.89
-42.55
-48.79
-54.52
-59.65
-64.13
-67.97
-71.31
-74.33
-77.05
-79.21
-80.09
-78.73
-74.18
-65.88
-53.85
-38.64
-21.17
-2.42
16.57
34.80
51.19
64.63
74.19
79.37
80.36
78.01
73.57
68.31
63.23
58.89
55.48
52.98
51.30
50.35
49.99
50.02
50.07
49.75
48.73
46.87
44.28
41.19
37.89
34.56
31.21
27.69
23.78
19.26
14.02
8.11
1.78
-4.52
-10.08
-14.03
-15.49
-13.79
-8.67
-0.48
9.91
21.28
32.33
41.97
49.41
54.23
56.40
56.13
53.90
50.38
46.32
42.50
39.51
37.68
37.13
37.74
39.27
41.47
43.96
46.34
48.09
48.70
47.80
45.28
41.31
36.23
30.40
24.13
17.57
10.81
3.90
-3.16
-10.40
-17.78
-25.06
-31.64
-36.61
-38.85
-37.41
-31.96
-22.85
-11.12
1.82
14.50
25.65
34.28
39.77
41.85
40.62
36.59
30.53
23.43
16.24
9.71
4.31
0.22
-2.69
-4.76
-6.45
-8.20
-10.35
-13.04
-16.30
-20.12
-24.50
-29.49
-35.09
-41.07
-47.02
-52.40
-56.77
-60.01
-62.41
-64.59
-67.25
-70.88
-75.47
-80.46
-84.75
-86.98
-85.92
-80.81
-71.72
-59.62
-46.17
-33.24
-22.41
-14.65
-10.26
-9.01
-10.44
-14.00
-19.09
-24.92
-30.58
-35.14
-37.96
-38.85
-38.14
-36.48
-34.61
-33.03
-31.95
-31.37
-31.21
-31.53
-32.48
-34.23
-36.86
-40.19
-43.82
-47.25
-50.08
-52.17
-53.71
-55.24
-57.41
-60.81
-65.62
-71.41
-77.17
-81.40
-82.53
-79.37
-71.51
-59.63
-45.43
-31.35
-19.99
-13.55
-13.20
-18.82
-29.17
-42.26
-55.99
-68.71
-79.43
-87.71
-93.35
-96.14
-95.86
-92.44
-86.13
-77.66
-68.00
-58.18
-49.01
-41.00
-34.49
-29.64
-26.59
-25.35
-25.78
-27.64
-30.66
-34.71
-39.83
-46.15
-53.61
-61.75
-69.53
-75.51
-78.15
-76.28
-69.49
-58.28
-43.84
-27.70
-11.23
4.55
18.96
31.42
41.24
47.67
50.18
48.81
44.35
38.17
31.79
26.37
22.47
20.14
19.12
19.09
19.76
20.82
21.80
22.05
20.84
17.52
11.76
3.62
-6.29
-17.00
-27.41
-36.54
-43.88
-49.36
-53.26
-55.86
-57.16
-56.77
-53.99
-47.93
-37.67
-22.26
-0.83
27.27
62.12
102.95
147.93
194.38
239.20
279.68
314.03
341.54
362.40
377.35
387.35
393.24
395.58
394.30
388.67
377.58
360.47
338.09
312.75
287.57
264.95
245.55
228.35
212.03
196.67
184.23
177.52
177.84
183.18
188.11
186.00
172.02
145.21
108.43
66.51
24.08
-15.70
-50.81
-79.32
-98.95
-107.41
-103.67
-88.77
-65.81
-38.80
-11.33
14.15
36.06
53.09
63.36
64.77
55.68
35.87
6.85
-28.73
-68.18
-109.77
-152.89
-197.32
-242.01
-284.40
-320.59
-346.72
-360.58
-362.71
-356.24
-345.50
-334.24
-324.14
-314.60
-303.79
-290.19
-273.65
-255.52
-237.56
-220.62
-203.90
-185.29
-162.68
-135.32
-104.60
-73.55
-45.52
-22.66
-5.06
8.89
21.34
33.93
47.17
60.49
72.94
83.76
92.46
98.93
103.20
105.24
104.75
100.93
92.49
78.04
56.80
29.36
-2.01
-33.85
-62.74
-86.41
-104.39
-117.61
-127.42
-134.61
-139.18
-140.63
-138.71
-133.80
-126.59
-117.64
-106.72
-93.01
-75.75
-54.96
-31.89
-8.95
11.07
25.78
33.80
35.03
30.54
22.26
12.55
3.74
-2.36
-4.92
-4.48
-2.84
-2.44
-5.46
-13.13
-25.58
-42.15
-61.97
-84.23
-108.16
-132.81
-156.87
-179.01
-198.59
-216.20
-233.69
-253.56
-278.01
-307.89
-342.40
-379.34
-415.82
-448.80
-475.54
-493.93
-502.98
-503.26
-496.67
-485.67
-471.93
-455.26
-433.50
-403.54
-363.12
-312.31
-253.62
-190.99
-128.06
-66.80
-7.25
51.72
111.37
172.45
235.01
298.49
361.44
420.96
472.64
511.23
532.25
533.84
517.85
489.42
455.26
421.39
391.64
367.24
347.79
332.45
320.65
312.12
306.34
302.13
297.72
291.24
281.49
268.27
252.41
235.16
217.41
199.09
179.08
155.75
127.84
95.35
59.82
23.94
-9.43
-38.13
-61.22
-78.87
-91.71
-100.33
-104.97
-105.64
-102.22
-94.49
-82.13
-64.91
-42.94
-17.15
10.61
37.76
61.71
80.70
94.09
102.26
106.04
106.13
102.92
96.69
88.13
78.46
69.39
62.60
59.22
59.62
63.48
70.10
78.67
88.47
98.85
109.20
119.01
127.89
135.69
142.48
148.50
154.12
159.74
165.83
172.95
181.56
191.84
203.55
215.95
227.97
238.59
247.30
254.35
260.74
267.90
277.01
288.27
300.39
310.46
314.79
310.23
295.66
272.72
245.14
216.82
189.74
163.08
134.26
101.25
64.47
27.11
-6.69
-34.24
-55.59
-72.97
-88.77
-103.81
-116.91
-126.18
-130.53
-130.52
-127.91
-124.46
-121.09
-117.88
-114.67
-111.55
-108.85
-106.74
-105.10
-103.75
-102.75
-102.39
-102.71
-103.01
-101.95
-98.38
-92.21
-84.50
-76.69
-69.32
-61.42
-50.98
-36.15
-16.47
6.64
30.39
51.53
67.19
75.42
75.39
67.36
52.90
34.44
14.59
-4.68
-22.57
-39.31
-55.20
-69.78
-81.39
-87.80
-87.40
-80.29
-68.65
-56.01
-46.17
-41.84
-43.98
-51.72
-63.16
-76.20
-89.30
-101.79
-113.76
-125.78
-138.48
-152.38
-167.74
-184.30
-200.78
-214.75
-223.08
-223.19
-214.21
-197.57
-176.46
-154.25
-132.97
-112.86
-93.01
-72.66
-52.32
-33.73
-19.01
-9.60
-5.66
-6.15
-9.66
-15.22
-22.76
-32.99
-46.78
-64.29
-84.44
-104.80
-122.26
-134.22
-139.79
-140.24
-138.41
-137.30
-138.74
-142.64
-147.49
-151.44
-153.37
-153.26
-151.93
-150.31
-148.77
-146.88
-143.78
-138.84
-132.25
-125.38
-119.97
-117.18
-116.67
-116.76
-115.34
-111.16
-104.81
-98.44
-94.50
-94.25
-97.04
-100.53
-101.68
-98.06
-88.65
-74.25
-57.21
-40.80
-28.27
-21.68
-21.08
-24.73
-30.38
-36.68
-44.09
-54.17
-67.89
-84.19
-100.13
-112.67
-120.84
-127.02
-135.91
-152.13
-177.51
-209.81
-243.44
-271.40
-287.91
-290.28
-279.61
-260.12
-237.32
-215.87
-197.57
-180.60
-160.51
-132.44
-93.41
-43.85
12.42
69.40
120.62
160.78
186.93
199.10
200.23
195.47
190.70
190.81
198.27
212.57
230.73
248.63
262.51
270.06
270.98
266.96
261.05
256.66
256.37
260.76
268.27
275.98
281.31
283.16
282.09
279.66
277.24
275.39
273.78
271.77
268.68
263.80
255.92
243.35
224.50
199.17
169.74
141.51
121.68
116.75
129.67
157.88
193.26
224.18
239.17
230.51
196.49
141.66
74.74
5.78
-56.82
-108.12
-146.98
-175.02
-194.87
-208.42
-215.69
-214.98
-203.97
-181.26
-147.55
-105.78
-60.16
-14.71
27.76
65.85
98.89
126.07
145.81
155.95
154.68
141.54
118.28
88.67
57.65
29.88
8.46
-5.45
-12.08
-11.98
-5.36
7.69
25.80
45.12
59.61
63.16
52.58
29.54
0.10
-28.25
-50.28
-65.22
-76.26
-87.92
-103.04
-121.35
-140.12
-156.18
-167.70
-174.57
-177.73
-177.99
-175.53
-170.27
-162.82
-155.21
-150.68
-152.47
-161.95
-176.99
-191.81
-198.35
-189.22
-160.59
-113.85
-55.10
7.13
64.95
113.27
150.25
176.36
192.76
200.31
199.40
190.56
175.01
154.90
133.07
112.26
94.27
79.30
65.79
51.22
33.26
10.99
-14.73
-41.84
-68.25
-92.84
-115.63
-137.13
-157.45
-175.88
-191.36
-203.29
-211.94
-218.57
-224.88
-232.03
-240.07
-247.97
-254.14
-256.94
-254.78
-245.87
-228.86
-203.08
-168.85
-127.43
-80.64
-30.62
20.16
68.99
113.55
151.50
180.75
200.21
210.36
213.20
211.57
208.25
205.67
207.61
216.83
234.32
259.22
289.58
323.08
357.15
388.89
415.61
438.48
457.72
471.48
476.56
471.20
456.92
437.66
417.72
400.97
395.03
403.12
422.08
443.80
459.87
465.16
457.96
438.54
409.66
382.47
365.45
360.53
363.21
367.25
368.62
365.65
357.42
295.56
159.05
-35.89
-243.60
-421.40
-549.28
-626.34
-658.27
-662.31
-650.32
-622.99
-581.23
-529.46
-475.16
-426.50
-386.82
-355.65
-331.24
-310.09
-283.30
-244.93
-194.72
-137.94
-81.57
-30.74
11.28
41.80
59.41
66.42
64.32
53.11
32.11
2.12
-33.57
-70.64
-105.54
-135.17
-155.47
-163.39
-157.56
-139.04
-110.94
-77.59
-43.97
-14.53
8.31
24.72
36.01
43.42
47.46
48.23
46.28
43.00
40.42
40.74
45.53
55.51
70.60
90.11
112.43
134.66
152.43
160.66
155.16
134.66
101.76
62.45
24.08
-7.19
-28.31
-39.77
-44.57
-46.61
-49.41
-55.44
-66.12
-81.84
-101.69
-123.31
-142.98
-156.44
-160.19
-152.75
-135.26
-111.06
-84.67
-60.45
-41.73
-30.56
-27.96
-34.20
-48.87
-70.65
-97.05
-124.63
-149.73
-169.57
-183.01
-190.82
-195.05
-198.08
-201.74
-206.88
-213.47
-221.04
-228.97
-236.65
-243.32
-248.03
-249.62
-247.13
-240.10
-228.80
-214.14
-197.31
-179.42
-161.21
-143.08
-125.22
-107.87
-91.29
-75.46
-59.76
-42.95
-23.66
-1.13
24.21
50.94
77.45
102.89
127.47
151.99
176.82
201.12
222.76
239.12
248.03
248.27
239.52
221.99
196.35
164.12
128.11
92.27
60.75
36.57
20.60
11.58
7.13
5.08
4.24
4.29
4.96
5.47
4.47
0.77
-5.67
-13.37
-19.91
-23.08
-22.11
-18.18
-13.71
-11.01
-10.75
-11.37
-9.62
-1.92
14.15
39.18
72.16
111.18
153.98
197.90
239.44
274.10
297.32
306.00
300.05
282.73
259.26
234.14
208.87
181.42
148.13
106.98
60.07
13.67
-24.23
-47.56
-54.71
-48.69
-34.71
-17.24
1.70
22.11
43.89
64.91
80.52
85.34
75.93
52.98
21.58
-10.77
-37.01
-53.23
-59.55
-59.48
-57.62
-57.50
-60.48
-66.10
-73.50
-82.69
-94.90
-111.56
-132.73
-156.02
-176.88
-190.41
-193.42
-185.95
-171.04
-153.38
-137.35
-125.58
-118.54
-115.13
-113.55
-112.21
-110.15
-107.07
-103.24
-99.12
-95.05
-91.05
-86.68
-81.17
-73.61
-63.29
-50.10
-34.71
-18.65
-4.05
6.89
12.58
12.56
7.71
-0.06
-8.53
-15.84
-20.96
-23.70
-24.37
-23.43
-21.19
-17.92
-14.02
-10.11
-6.96
-5.20
-5.09
-6.34
-8.32
-10.36
-12.14
-13.83
-15.96
-19.17
-23.71
-29.22
-34.69
-38.72
-40.01
-37.74
-31.86
-23.05
-12.42
-1.24
9.41
18.76
26.31
31.83
35.26
36.68
36.42
35.00
33.08
31.29
30.05
29.51
29.54
29.87
30.20
30.24
29.75
28.54
26.52
23.73
20.37
16.74
13.14
9.73
6.46
3.16
-0.28
-3.46
-5.72
-6.31
-4.76
-0.95
4.81
11.81
19.07
25.54
30.53
33.52
34.11
32.01
27.29
20.47
12.46
4.31
-3.13
-8.98
-13.10
-16.22
-19.56
-23.99
-29.53
-35.47
-40.87
-45.14
-46.91
-45.82
-43.13
-41.10
-41.51
-44.67
-49.62
-54.97
-59.59
-60.11
-54.49
-43.70
-30.87
-18.46
-6.32
7.73
26.13
49.88
82.34
123.59
168.36
207.91
235.27
249.00
252.90
253.74
258.72
279.23
322.34
386.34
461.74
537.12
603.95
657.95
698.31
686.60
603.09
460.35
295.87
142.76
13.36
-94.22
-184.12
-256.55
-307.16
-331.15
-327.29
-303.46
-274.57
-255.20
-253.03
-268.40
-297.39
-329.47
-348.98
-342.51
-307.13
-251.66
-191.14
-139.79
-107.35
-97.59
-108.05
-129.17
-150.74
-167.40
-178.50
-185.81
-190.52
-192.61
-191.27
-186.06
-177.16
-166.59
-158.20
-152.69
-149.38
-144.13
-131.30
-107.09
-72.29
-32.93
1.35
20.92
20.57
1.98
-25.88
-50.28
-60.17
-50.48
-23.43
13.34
51.27
84.44
110.99
133.22
155.76
183.05
217.66
259.48
305.04
348.59
382.30
397.77
389.44
357.18
305.88
243.41
177.82
114.07
54.84
0.14
-51.59
-101.01
-147.03
-188.45
-224.89
-256.73
-285.47
-307.26
-315.80
-308.09
-286.31
-255.80
-222.35
-190.26
-160.29
-134.47
-112.86
-94.39
-76.89
-64.05
-56.88
-55.01
-56.66
-51.29
-38.43
-19.22
5.18
26.59
41.35
49.00
50.89
49.86
49.68
52.54
60.87
75.50
95.01
118.80
145.18
170.45
190.24
201.62
203.27
197.69
189.20
181.66
180.07
185.99
196.63
207.34
214.92
218.04
217.82
216.04
213.75
214.40
219.03
225.18
228.67
226.55
217.76
203.35
185.58
148.10
91.39
31.40
-14.24
-40.37
-54.34
-67.62
-87.97
-116.05
-144.64
-163.94
-166.48
-151.27
-123.34
-89.98
-57.37
-28.98
-5.83
12.37
28.64
45.23
61.46
74.87
83.68
87.66
87.47
82.35
71.28
55.43
36.74
16.48
-4.54
-24.92
-42.53
-55.36
-65.42
-75.23
-85.37
-95.14
-104.53
-114.45
-125.12
-134.96
-141.13
-146.04
-152.67
-162.46
-175.06
-190.79
-211.07
-237.19
-269.08
-305.59
-351.38
-409.50
-478.07
-550.03
-617.50
-674.10
-714.75
-734.79
-690.86
-562.30
-365.55
-147.12
48.53
198.99
302.40
367.17
403.88
420.97
418.03
395.01
357.26
315.63
280.35
257.06
245.91
244.38
246.35
242.24
226.52
200.50
170.86
143.38
120.22
99.63
78.06
52.45
19.11
-22.27
-67.71
-104.53
-124.08
-122.52
-100.65
-62.84
-16.90
25.65
53.44
59.55
44.67
15.33
-17.71
-44.22
-58.36
-60.20
-54.39
-46.33
-39.54
-32.98
-25.55
-16.52
-6.73
1.96
7.82
10.56
11.53
12.92
16.81
23.51
32.33
41.10
47.06
48.04
43.60
35.56
27.29
22.74
22.27
25.82
31.68
37.36
41.04
42.76
44.63
49.81
61.23
80.00
105.51
135.31
166.25
195.66
222.06
245.32
265.92
284.78
302.54
319.29
333.45
341.86
340.67
326.89
299.76
260.35
212.02
159.00
104.79
50.10
-6.91
-68.82
-136.43
-206.91
-275.50
-334.19
-373.11
-383.70
-362.99
-316.02
-255.30
-197.06
-156.38
-145.02
-164.84
-207.05
-256.32
-298.28
-324.60
-334.32
-330.62
-317.48
-301.54
-287.71
-278.81
-276.72
-283.95
-301.86
-328.80
-358.09
-354.91
-298.04
-193.37
-69.81
44.15
134.82
201.53
247.21
275.95
287.57
276.92
242.69
190.51
131.44
75.05
32.68
9.71
2.97
3.58
-0.20
-13.44
-32.61
-48.17
-52.99
-41.71
-15.34
20.67
60.63
94.67
116.85
126.27
126.07
120.50
113.38
109.76
107.53
104.64
98.36
87.27
70.96
50.87
30.28
13.88
5.35
6.10
16.50
31.08
45.54
55.95
59.79
56.37
46.99
34.20
21.42
13.70
16.12
32.76
63.88
104.94
147.36
181.10
197.81
193.45
170.16
134.72
96.56
64.06
42.18
31.39
28.15
26.51
20.65
7.77
-10.74
-29.47
-41.78
-43.09
-33.21
-16.62
-0.20
10.20
12.23
7.25
-1.47
-11.28
-21.49
-32.85
-45.96
-59.80
-71.82
-79.21
-80.79
-77.85
-73.51
-70.72
-70.52
-71.50
-70.93
-66.49
-57.75
-46.22
-34.69
-26.19
-23.33
-28.03
-41.33
-62.83
-89.98
-117.80
-139.87
-150.40
-146.30
-128.10
-98.87
-61.98
-19.57
27.48
77.86
128.11
172.15
202.85
214.88
207.59
186.04
159.17
136.14
122.72
119.52
122.57
125.71
123.68
114.26
98.47
78.62
56.34
32.15
6.63
-18.35
-39.31
-52.68
-56.67
-52.53
-44.64
-39.03
-40.92
-52.06
-70.31
-89.73
-105.62
-117.48
-127.13
-135.38
-140.83
-140.53
-131.91
-114.87
-92.57
-70.95
-56.14
-52.07
-59.12
-74.59
-94.34
-112.22
-122.78
-122.00
-108.57
-84.02
-53.11
-22.63
0.68
13.49
17.42
18.08
21.76
31.36
45.82
61.34
75.20
85.14
92.62
102.51
120.87
151.52
187.84
217.55
226.07
206.01
162.63
111.44
68.89
44.55
37.43
37.31
31.82
13.08
-17.43
-50.23
-72.12
-74.47
-56.90
-26.15
6.80
32.19
45.56
49.76
49.28
51.53
59.18
67.08
64.97
43.66
1.60
-53.38
-107.11
-146.96
-166.90
-170.04
-164.93
-160.05
-159.26
-160.78
-161.58
-155.86
-142.25
-123.34
-104.19
-89.30
-80.55
-77.00
-75.82
-74.26
-70.59
-65.32
-60.03
-56.85
-57.49
-62.62
-71.78
-83.70
-96.70
-109.05
-119.91
-129.04
-136.84
-143.93
-150.45
-155.98
-159.47
-159.68
-155.53
-146.88
-134.22
-118.28
-99.34
-76.84
-49.44
-15.59
25.58
73.85
127.89
185.98
246.62
308.43
369.40
425.83
472.16
502.03
510.48
496.20
462.44
415.99
364.61
314.29
267.82
225.27
185.58
148.23
113.75
82.94
55.75
30.72
5.49
-21.81
-51.40
-81.54
-109.26
-131.86
-148.05
-158.29
-164.29
-167.98
-170.77
-173.21
-175.37
-177.19
-178.80
-180.54
-182.66
-185.04
-187.20
-188.37
-187.84
-185.20
-180.43
-173.90
-166.05
-157.10
-146.66
-133.61
-116.22
-92.59
-61.31
-22.01
24.29
75.27
127.68
177.99
222.86
259.68
286.83
303.77
311.05
310.03
302.48
290.11
274.31
256.10
236.28
215.68
195.28
176.09
158.95
144.20
131.45
119.72
107.65
94.02
78.08
59.85
39.95
19.35
-1.14
-21.15
-40.75
-60.25
-79.81
-99.14
-117.54
-134.11
-148.15
-159.39
-167.88
-173.71
-176.71
-176.42
-172.39
-164.70
-154.27
-142.79
-132.23
-124.06
-118.81
-115.92
-114.20
-112.32
-109.33
-104.66
-97.99
-89.00
-77.36
-62.91
-45.89
-27.08
-7.62
11.27
28.60
43.80
56.68
67.29
75.73
81.95
85.80
87.04
85.54
81.41
75.14
67.53
59.60
52.32
46.34
41.87
38.69
36.30
34.17
31.78
28.78
24.85
19.78
13.51
6.10
-2.17
-10.88
-19.60
-27.97
-35.77
-42.84
-49.06
-54.21
-58.16
-60.89
-62.61
-63.79
-65.01
-66.74
-69.22
-72.36
-75.85
-79.39
-82.77
-86.05
-89.41
-93.08
-97.07
-101.17
-104.95
-107.93
-109.72
-110.19
-109.38
-107.60
-105.27
-102.95
-101.24
-100.72
-101.68
-103.96
-106.80
-108.97
-109.17
-106.41
-100.40
-91.50
-80.49
-68.20
-55.27
-42.18
-29.31
-17.02
-5.48
5.61
17.29
31.35
49.89
74.73
106.63
144.84
187.04
229.66
268.55
299.88
321.03
331.21
331.55
324.66
313.70
301.41
289.52
278.63
268.66
259.39
250.75
242.81
235.37
227.64
218.19
205.23
187.15
162.87
132.19
95.86
55.69
14.56
-23.86
-55.75
-78.08
-89.54
-91.01
-85.25
-76.00
-66.77
-59.92
-56.51
-56.67
-60.25
-67.21
-77.69
-91.76
-109.06
-128.65
-149.07
-168.46
-184.82
-196.33
-201.69
-200.44
-193.10
-181.00
-165.82
-149.08
-131.71
-114.04
-96.10
-78.00
-60.09
-42.93
-27.11
-13.12
-1.44
7.42
12.90
14.59
12.52
7.30
-0.10
-8.63
-17.53
-26.29
-34.27
-40.09
-41.20
-34.10
-15.28
17.34
63.10
117.98
175.23
226.87
265.80
287.54
291.19
279.07
255.50
225.17
191.96
158.24
125.02
92.33
59.65
26.22
-8.81
-46.18
-86.13
-128.01
-169.93
-208.74
-240.32
-260.25
-264.51
-250.30
-216.80
-165.76
-101.72
-31.52
36.85
96.03
140.82
169.12
181.72
181.23
170.83
153.38
131.27
106.77
82.13
59.39
39.98
24.21
11.32
-0.02
-11.08
-22.56
-34.77
-48.02
-63.14
-81.34
-103.68
-130.09
-158.87
-186.88
-210.57
-227.43
-237.01
-241.10
-242.78
-244.87
-248.62
-253.20
-256.35
-255.62
-249.53
-237.99
-221.98
-203.04
-182.94
-163.93
-149.01
-141.59
-144.20
-156.77
-175.45
-192.96
-200.71
-191.78
-163.61
-119.02
-65.07
-10.50
37.41
74.85
102.06
122.06
138.54
153.71
167.23
176.62
178.80
172.09
157.45
138.45
119.84
105.69
97.95
96.36
99.34
105.41
114.06
125.74
141.11
160.00
180.96
201.42
218.45
229.64
233.71
230.78
222.02
209.23
194.24
178.36
161.95
144.34
124.12
99.86
71.07
38.73
5.16
-26.78
-54.84
-78.05
-96.72
-111.83
-124.28
-134.73
-143.74
-152.28
-161.58
-172.53
-184.92
-197.09
-206.46
-210.83
-209.38
-202.93
-193.23
-181.67
-168.53
-153.05
-134.22
-111.65
-85.85
-57.91
-29.04
-0.24
27.57
53.29
75.64
93.37
105.79
113.05
116.23
117.04
117.38
118.95
122.81
129.13
137.15
145.35
152.11
156.32
157.92
157.83
157.40
157.63
158.60
159.34
158.25
153.69
144.50
130.26
111.36
88.93
64.76
41.14
20.56
5.20
-3.59
-5.71
-2.43
4.08
11.26
16.98
19.99
20.07
17.80
14.05
9.58
4.67
-0.91
-7.66
-16.15
-26.64
-39.04
-52.84
-67.30
-81.68
-95.41
-108.30
-120.37
-131.74
-142.33
-151.82
-159.70
-165.39
-168.44
-168.50
-165.27
-158.45
-147.76
-133.15
-115.13
-94.66
-72.82
-50.22
-26.59
-0.84
28.34
61.54
97.84
134.48
167.41
192.33
205.83
206.41
194.63
172.81
144.42
113.36
83.13
56.65
36.30
23.42
18.38
19.99
25.70
32.70
39.04
43.98
48.26
53.60
60.87
69.74
78.15
83.36
83.69
79.56
72.59
64.94
58.71
54.24
51.03
47.69
42.56
34.54
23.14
7.13
-14.86
-43.37
-79.44
-117.90
-150.21
-170.76
-179.68
-180.69
-178.87
-182.07
-189.18
-197.05
-201.54
-199.70
-190.89
-176.76
-155.54
-129.94
-103.62
-79.01
-58.06
-41.64
-30.69
-26.63
-30.51
-42.04
-60.16
-82.15
-104.14
-123.41
-138.32
-148.49
-154.03
-154.58
-149.14
-137.37
-119.55
-96.51
-69.97
-41.38
-11.46
20.15
54.66
93.46
136.91
184.33
234.12
283.57
329.65
369.58
401.67
425.65
442.53
453.48
459.05
458.96
452.22
438.04
416.61
389.56
359.57
329.07
299.16
269.00
237.27
202.93
165.77
125.94
83.90
40.16
-4.84
-50.38
-95.68
-138.28
-174.98
-203.53
-224.44
-240.29
-254.32
-269.75
-289.12
-315.23
-348.32
-386.49
-426.68
-466.41
-502.73
-531.74
-549.30
-551.54
-536.90
-503.15
-448.65
-374.51
-287.04
-194.97
-106.33
-26.38
53.71
132.38
202.63
257.07
298.53
327.74
340.10
332.04
303.46
258.18
201.24
140.39
84.11
39.51
9.75
-4.71
-5.57
2.50
12.65
16.59
10.03
-5.74
-24.50
-38.60
-40.90
-27.06
2.22
41.15
79.91
109.07
122.09
116.31
92.25
53.62
6.55
-42.28
-87.04
-124.04
-151.24
-168.35
-176.79
-179.54
-179.98
-180.61
-182.39
-184.26
-183.66
-177.16
-161.84
-136.66
-103.23
-65.22
-27.07
7.61
37.06
61.53
82.49
101.53
119.46
136.16
151.01
163.52
173.58
181.02
184.90
183.31
173.82
154.48
124.86
86.62
43.21
-0.96
-41.64
-75.54
-100.80
-117.11
-125.34
-127.01
-123.62
-116.08
-104.67
-89.37
-70.47
-48.90
-26.14
-3.75
17.13
35.68
51.18
62.73
69.76
72.69
73.07
73.04
73.98
75.59
76.27
75.02
73.48
76.53
90.47
119.49
162.61
212.97
260.37
295.33
312.70
312.77
299.71
278.69
253.37
225.37
195.11
163.41
132.07
103.38
78.92
58.47
39.89
20.09
-3.54
-31.93
-63.96
-97.04
-128.22
-155.21
-176.99
-193.69
-206.10
-215.07
-221.04
-223.95
-223.47
-219.25
-211.32
-200.23
-187.02
-172.99
-159.33
-146.84
-135.75
-125.77
-116.35
-106.94
-97.20
-86.93
-75.97
-64.03
-50.66
-35.44
-18.16
1.01
21.45
42.18
62.07
80.02
95.04
106.47
113.88
117.12
116.15
111.03
101.89
89.04
73.07
54.90
35.70
16.65
-1.35
-17.69
-31.98
-43.98
-53.67
-61.41
-67.88
-73.75
-79.19
-83.67
-86.21
-86.18
-84.11
-81.79
-81.45
-84.49
-90.54
-97.66
-103.43
-106.43
-106.92
-106.46
-106.64
-107.97
-109.71
-110.64
-110.13
-108.73
-107.79
-108.52
-111.06
-114.27
-116.18
-114.86
-109.10
-98.61
-83.92
-65.93
-45.68
-24.08
-1.86
20.41
42.35
63.61
83.80
102.36
118.57
131.61
140.77
145.56
145.93
142.23
135.24
126.07
115.99
106.18
97.53
90.50
85.22
81.59
79.54
79.11
80.38
83.33
87.64
92.68
97.55
101.16
102.39
100.13
93.40
81.63
64.91
44.26
21.56
-0.93
-21.18
-38.06
-51.65
-62.88
-73.07
-83.25
-93.86
-104.65
-114.92
-123.68
-129.90
-132.73
-131.76
-127.28
-120.17
-111.62
-102.39
-92.36
-80.40
-65.02
-45.27
-21.56
4.21
29.40
51.71
70.10
84.94
97.36
108.26
117.58
124.27
126.86
124.34
116.70
104.94
90.63
75.39
60.46
46.68
34.54
24.29
16.00
9.48
4.39
0.29
-3.33
-7.01
-11.38
-16.99
-24.10
-32.36
-40.68
-47.53
-51.44
-51.55
-47.94
-41.28
-32.14
-20.38
-4.96
15.46
41.63
73.07
108.08
144.63
181.27
217.48
253.16
287.55
318.49
342.58
356.31
357.37
345.53
322.49
291.05
254.32
215.25
176.66
141.27
111.33
88.04
71.20
59.71
52.80
51.20
57.33
74.26
103.77
144.58
191.66
237.01
271.71
288.33
282.93
255.82
211.03
154.68
92.94
30.33
-31.18
-91.86
-153.24
-217.12
-284.97
-357.63
-434.41
-512.13
-584.00
-640.26
-671.31
-671.84
-644.59
-600.56
-555.31
-522.42
-507.85
-507.81
-511.18
-505.29
-480.84
-434.84
-370.05
-292.34
-208.00
-122.68
-41.44
30.76
88.57
128.05
147.89
150.46
141.52
129.22
120.96
121.32
131.05
146.91
165.19
183.76
202.09
218.31
230.08
234.07
226.04
206.95
176.92
141.33
109.65
91.32
90.70
106.61
131.39
154.22
165.10
156.82
127.35
74.60
5.19
-65.13
-118.56
-144.18
-140.30
-112.52
-71.64
-30.84
5.13
33.78
54.11
66.35
71.50
71.14
66.86
55.63
36.22
10.46
-15.49
-33.17
-36.71
-26.66
-9.55
5.43
12.46
10.81
3.94
-3.19
-6.99
-7.09
-6.12
-8.22
-15.75
-28.87
-45.22
-61.10
-73.45
-81.22
-85.78
-89.87
-95.79
-104.01
-113.03
-120.07
-122.41
-118.68
-109.35
-96.36
-82.18
-68.68
-56.47
-45.03
-33.11
-19.15
-1.86
19.74
46.26
78.09
115.20
156.66
199.96
240.86
274.30
296.17
305.11
303.18
295.06
285.98
279.54
276.35
274.18
269.36
258.24
238.30
208.40
168.90
121.77
70.66
20.29
-24.79
-61.96
-91.41
-115.22
-135.29
-151.30
-160.43
-159.03
-145.43
-121.35
-91.50
-61.72
-36.57
-17.74
-3.92
7.85
20.76
37.00
57.26
80.52
103.89
123.01
132.95
129.83
112.00
80.48
38.18
-10.66
-61.12
-108.04
-146.43
-172.39
-183.72
-180.73
-165.85
-143.33
-116.88
-88.60
-59.51
-31.00
-5.94
12.50
21.90
22.41
14.72
0.47
-18.81
-42.59
-71.28
-104.45
-138.41
-167.81
-187.29
-197.70
-203.96
-211.73
-224.00
-239.13
-251.53
-253.39
-240.76
-214.58
-184.25
-160.22
-148.71
-150.08
-161.08
-178.43
-199.37
-224.80
-232.01
-207.91
-156.58
-95.75
-41.00
2.67
30.11
51.66
73.85
99.92
127.07
152.43
177.53
202.81
227.57
249.04
264.55
269.72
261.85
237.99
199.30
151.51
103.09
62.44
34.97
23.03
23.34
29.88
34.18
30.30
16.39
-5.47
-29.91
-50.15
-56.96
-43.97
-12.30
27.01
60.78
80.28
83.67
75.11
61.50
49.36
41.24
37.45
33.34
26.09
15.22
1.83
-12.13
-25.08
-36.30
-46.39
-56.39
-66.91
-76.98
-84.88
-89.49
-90.60
-88.67
-84.48
-78.98
-73.05
-67.23
-60.81
-52.52
-41.19
-26.31
-8.39
11.04
30.04
47.33
62.95
78.48
95.66
114.98
135.00
152.97
166.27
173.64
175.57
173.47
168.75
161.96
152.64
140.08
124.14
105.91
87.51
71.21
58.34
49.15
43.12
39.22
36.32
33.14
29.20
25.22
23.02
24.36
30.66
42.18
57.04
71.22
78.88
74.66
55.44
21.09
-26.08
-80.94
-135.82
-182.40
-213.84
-227.52
-224.70
-209.49
-187.30
-163.64
-141.70
-121.18
-99.81
-71.38
-35.75
0.75
29.70
51.01
67.88
82.24
95.95
109.35
120.60
125.13
118.27
97.39
62.84
17.29
-34.30
-85.01
-127.81
-157.00
-169.42
-163.67
-139.72
-99.15
-46.11
13.27
72.16
123.80
162.73
185.48
191.80
184.47
168.03
146.99
125.33
106.88
94.93
91.51
96.03
104.75
110.99
106.76
85.50
45.33
-9.39
-69.22
-123.13
-162.67
-184.37
-189.68
-183.11
-169.65
-152.70
-133.52
-111.99
-87.87
-62.26
-36.57
-11.26
14.33
41.12
69.12
96.57
120.14
135.86
138.98
126.91
100.84
65.43
26.79
-9.54
-40.09
-64.10
-83.10
-102.14
-124.59
-149.67
-172.70
-188.18
-192.65
-185.93
-170.59
-150.66
-133.52
-124.75
-126.21
-136.43
-153.12
-174.59
-199.62
-226.64
-233.40
-207.80
-154.72
-91.04
-30.52
21.94
66.33
102.88
131.25
151.73
163.29
167.83
170.53
176.66
188.09
201.62
210.25
207.16
189.32
156.13
111.45
61.00
10.79
-34.90
-72.31
-101.71
-127.04
-152.62
-180.58
-207.53
-226.77
-230.67
-215.31
-182.78
-140.57
-97.59
-60.34
-33.26
-14.09
-0.86
8.30
13.27
12.20
3.25
-12.35
-29.54
-41.67
-43.55
-34.46
-15.28
11.07
41.52
74.02
108.72
147.15
190.69
239.35
280.53
303.27
303.23
285.10
257.61
228.32
200.99
176.46
154.44
134.15
116.76
103.62
95.38
91.21
89.96
89.93
88.94
84.36
73.67
56.87
35.89
15.51
-3.42
-19.80
-32.98
-42.63
-48.29
-49.27
-44.14
-32.33
-15.26
3.29
19.29
29.75
34.01
33.87
32.39
32.57
35.56
40.26
43.58
42.52
35.31
21.72
2.96
-19.01
-41.67
-62.38
-78.51
-88.15
-90.35
-86.19
-78.50
-70.67
-65.13
-62.21
-60.28
-56.90
-50.91
-43.21
-37.21
-37.04
-45.24
-61.50
-82.69
-104.14
-120.94
-129.90
-129.64
-121.76
-109.36
-95.28
-81.13
-67.04
-52.65
-37.22
-21.59
-6.89
4.40
10.44
11.91
11.57
12.81
17.30
25.20
33.50
39.40
39.15
29.93
11.44
-15.07
-47.96
-87.08
-132.09
-184.42
-228.45
-248.06
-236.07
-199.16
-152.65
-109.69
-85.74
-75.70
-73.26
-73.13
-75.22
-83.74
-95.91
-109.10
-118.44
-117.58
-99.31
-60.53
-1.38
76.45
160.42
233.78
283.65
307.28
310.72
304.29
295.71
290.13
287.55
284.08
276.33
266.24
254.07
241.18
229.32
217.95
205.21
186.61
157.42
116.33
65.97
11.23
-44.34
-97.40
-147.10
-186.47
-210.49
-218.46
-213.90
-201.51
-184.55
-164.97
-144.40
-124.00
-104.31
-86.66
-71.93
-60.40
-54.79
-51.39
-47.26
-41.55
-33.97
-24.52
-14.20
-3.93
4.82
11.84
17.64
28.67
44.95
64.28
83.70
100.20
112.13
115.59
111.12
100.18
83.89
62.07
34.48
0.21
-43.18
-86.85
-124.03
-149.17
-160.37
-159.34
-150.38
-137.41
-123.68
-111.62
-102.31
-96.99
-94.96
-94.54
-93.65
-91.40
-87.80
-83.98
-81.79
-82.96
-89.73
-102.23
-118.12
-132.24
-138.55
-131.76
-109.61
-74.31
-31.40
11.23
46.04
67.14
72.37
61.69
38.31
8.56
-20.69
-44.73
-63.51
-80.52
-99.65
-121.36
-141.36
-152.43
-148.55
-129.97
-103.59
-79.62
-66.07
-64.91
-72.18
-81.74
-89.39
-94.16
-98.51
-105.29
-115.46
-127.14
-136.52
-139.78
-134.39
-124.20
-112.60
-102.69
-96.16
-92.79
-90.77
-87.72
-81.86
-72.88
-61.99
-50.61
-40.33
-32.07
-25.72
-20.31
-14.65
-7.93
-0.11
8.02
15.85
22.70
28.24
32.62
36.28
39.64
42.85
45.59
47.19
47.19
45.17
41.00
34.84
27.05
18.07
8.24
-2.24
-13.26
-24.57
-35.82
-46.55
-56.15
-64.05
-69.80
-73.21
-74.39
-73.65
-71.25
-67.26
-61.47
-53.38
-42.45
-28.43
-11.56
7.34
27.07
46.39
64.49
81.23
97.06
112.77
128.94
145.65
162.36
178.31
192.91
206.23
219.18
233.26
250.23
271.73
299.06
332.77
372.07
414.28
454.68
487.18
505.97
507.40
491.37
461.27
422.51
380.37
338.18
296.84
255.63
213.64
170.96
128.84
89.01
52.73
20.37
-8.42
-34.00
-56.21
-74.42
-87.80
-96.16
-100.09
-100.81
-99.46
-96.46
-91.34
-82.92
-69.94
-51.67
-28.33
-1.14
27.77
55.77
80.08
98.44
109.78
114.68
115.26
114.45
114.77
117.23
120.91
123.51
122.64
117.19
107.94
97.29
88.06
82.39
80.99
83.36
88.40
94.96
102.01
108.42
112.60
112.54
106.29
92.56
71.44
44.47
14.26
-16.25
-44.61
-69.33
-89.99
-106.99
-121.11
-133.19
-143.94
-153.93
-163.54
-172.87
-181.45
-188.19
-191.52
-190.02
-183.14
-171.58
-157.18
-142.11
-127.94
-115.08
-102.92
-90.46
-77.16
-63.23
-49.43
-36.44
-24.26
-12.08
1.38
17.31
36.30
58.18
82.16
107.14
132.04
155.86
177.66
196.49
211.35
221.43
226.31
226.06
221.19
212.31
199.76
183.56
163.53
139.72
112.78
83.86
54.21
24.60
-4.92
-34.94
-66.04
-98.22
-130.65
-161.94
-190.68
-215.97
-237.56
-255.69
-270.61
-282.33
-290.48
-294.51
-293.92
-288.51
-278.34
-263.78
-245.41
-223.98
-200.42
-175.75
-151.02
-127.16
-104.86
-84.58
-66.63
-51.26
-38.52
-28.20
-19.62
-11.72
-3.30
6.58
18.25
31.35
44.97
58.08
69.80
79.62
87.34
93.04
96.86
98.99
99.62
99.07
97.67
95.73
93.39
90.57
86.99
82.28
76.21
68.84
60.58
52.18
44.51
38.30
34.00
31.61
30.73
30.68
30.78
30.54
29.89
29.10
28.65
28.92
29.98
31.49
32.86
33.59
33.49
32.91
32.78
34.41
39.17
48.07
61.17
77.11
92.89
104.27
106.78
97.05
74.06
39.58
-2.22
-46.06
-86.90
-121.08
-146.76
-163.63
-172.34
-174.01
-169.98
-161.79
-151.25
-140.38
-131.10
-124.81
-122.00
-122.21
-124.25
-126.72
-128.58
-129.47
-129.62
-129.47
-129.27
-128.75
-127.15
-123.35
-116.17
-104.79
-88.95
-69.18
-46.70
-23.12
-0.17
20.78
39.00
54.42
67.37
78.24
87.08
93.55
97.18
97.71
95.49
91.50
87.14
83.82
82.64
84.18
88.53
95.60
105.31
117.66
132.70
150.40
170.51
192.50
215.62
238.95
261.61
282.98
302.81
321.25
338.50
354.54
368.98
381.14
390.24
395.63
396.83
393.38
384.80
370.74
351.19
326.77
298.73
268.67
238.09
208.04
179.03
151.28
124.91
100.10
76.95
55.32
34.80
14.77
-5.24
-25.35
-45.34
-64.70
-83.01
-100.12
-116.29
-132.08
-148.21
-165.41
-184.27
-204.95
-227.01
-249.15
-269.37
-285.35
-295.22
-298.18
-294.74
-286.49
-275.40
-263.13
-250.67
-238.41
-226.50
-215.13
-204.66
-195.41
-187.49
-180.70
-174.59
-168.72
-162.82
-156.83
-150.90
-145.26
-140.12
-135.64
-131.82
-128.57
-125.66
-122.89
-120.17
-117.61
-115.54
-114.37
-114.37
-115.48
-117.21
-118.91
-119.99
-120.27
-120.02
-119.90
-120.56
-122.38
-125.42
-129.47
-134.26
-139.52
-144.94
-150.16
-154.88
-159.03
-162.97
-167.39
-172.96
-179.79
-187.18
-193.88
-198.64
-201.02
-201.65
-202.12
-204.20
-209.21
-217.45
-228.25
-240.24
-251.73
-261.06
-266.69
-267.53
-263.23
-254.59
-243.62
-233.03
-225.11
-220.52
-217.52
-212.22
-200.04
-177.74
-145.07
-105.10
-62.92
-23.32
11.42
42.34
72.72
105.97
143.34
183.07
221.11
253.04
275.90
289.13
294.03
292.54
286.03
275.08
259.95
241.51
221.77
203.54
189.53
181.23
178.25
178.47
178.87
176.69
170.41
160.22
147.77
135.38
124.97
117.25
111.35
105.20
96.43
83.29
65.50
44.47
22.83
3.65
-10.44
-17.89
-18.38
-12.62
-2.07
11.51
26.32
40.75
53.65
64.34
72.57
78.25
81.12
80.60
75.98
66.93
54.09
39.34
25.41
15.00
9.70
9.36
12.19
15.42
16.40
13.41
6.08
-4.73
-17.47
-30.42
-42.14
-51.68
-58.44
-61.98
-61.82
-57.51
-48.95
-36.70
-22.12
-6.97
7.20
19.76
31.07
42.08
53.45
64.95
75.42
83.42
88.14
89.95
90.26
90.65
92.03
94.17
95.96
96.12
93.98
89.82
84.74
80.15
77.31
77.10
80.09
86.64
96.96
110.97
128.06
146.98
166.05
183.63
198.46
209.68
216.49
217.57
211.03
194.96
168.62
133.51
93.58
54.41
21.35
-2.19
-15.66
-20.96
-21.22
-19.33
-17.01
-14.62
-11.76
-7.92
-3.00
2.47
7.47
10.81
11.27
7.76
-0.81
-15.35
-36.27
-62.97
-93.48
-124.67
-153.09
-176.11
-192.67
-203.43
-210.00
-213.97
-216.20
-216.90
-216.16
-214.52
-213.06
-212.88
-214.49
-217.33
-220.06
-221.13
-219.48
-214.76
-207.40
-198.26
-188.25
-178.03
-167.84
-157.45
-146.32
-133.93
-120.08
-105.18
-90.17
-76.15
-63.83
-53.16
-43.25
-32.69
-20.15
-4.95
12.63
31.32
49.31
64.79
76.46
83.93
87.80
89.69
91.88
96.64
105.36
117.49
130.00
137.81
135.30
118.58
87.50
46.37
2.79
-35.11
-61.39
-74.03
-74.81
-67.86
-57.77
-48.18
-41.29
-38.08
-38.59
-42.22
-47.81
-53.80
-58.47
-60.33
-58.39
-52.38
-42.56
-29.62
-14.35
2.70
21.52
42.76
67.44
96.22
128.49
161.93
192.78
216.91
231.26
234.91
229.40
218.02
204.48
191.42
179.71
168.29
155.03
137.94
116.07
89.97
61.48
33.45
9.17
-8.28
-16.95
-16.95
-10.96
-3.59
0.31
-2.11
-10.28
-20.31
-26.99
-26.36
-17.53
-2.70
14.43
30.88
45.58
59.16
72.69
86.34
99.02
109.13
115.64
118.87
120.46
122.58
126.88
133.75
142.19
150.25
155.90
157.77
155.68
150.54
143.70
136.34
128.84
120.79
111.51
100.77
89.19
78.05
68.43
60.30
52.16
41.51
25.92
4.23
-23.00
-53.91
-86.38
-118.94
-151.18
-183.49
-216.48
-250.43
-285.08
-319.54
-352.26
-380.86
-402.24
-413.24
-411.85
-398.38
-375.87
-349.40
-324.31
-304.20
-289.57
-277.81
-264.29
-244.17
-214.10
-173.28
-123.68
-69.42
-15.66
32.57
71.31
98.09
112.00
113.56
104.70
88.64
69.65
52.20
39.73
33.66
33.03
35.18
37.21
37.23
34.89
31.06
26.76
22.53
18.25
13.51
8.17
2.56
-2.63
-6.76
-9.47
-10.74
-10.82
-10.08
-8.98
-8.02
-7.60
-7.86
-8.65
-9.48
-9.81
-9.34
-8.29
-7.32
-7.41
-9.37
-13.61
-19.88
-27.39
-35.03
-41.64
-46.24
-48.06
-46.55
-41.39
-32.51
-20.30
-5.67
10.01
25.16
38.35
48.67
55.82
60.03
61.74
61.35
59.09
55.23
50.24
44.90
40.17
36.84
35.24
35.11
35.76
36.39
36.44
35.72
34.33
32.44
30.08
27.06
23.13
18.21
12.62
7.07
2.56
0.10
0.47
3.96
10.41
19.18
29.39
40.06
50.27
59.23
66.30
70.99
72.93
71.96
68.15
61.91
54.03
45.55
37.56
30.96
26.26
23.52
22.47
22.69
23.77
25.43
27.43
29.45
31.03
31.60
30.52
27.36
21.95
14.59
6.00
-2.72
-10.28
-15.49
-17.46
-15.83
-10.85
-3.23
5.99
15.70
24.87
32.66
38.43
41.81
42.74
41.48
38.60
34.77
30.67
26.83
23.61
21.31
20.14
20.18
21.21
22.76
23.98
23.87
21.61
16.91
10.26
2.73
-4.41
-10.27
-14.42
-17.20
-19.38
-21.93
-25.46
-30.00
-35.12
-40.09
-44.21
-46.27
-44.83
-38.28
-25.20
-5.14
20.87
50.16
79.15
104.52
125.58
143.52
160.38
177.55
194.82
210.68
223.29
231.46
235.12
237.30
240.81
246.57
252.69
255.51
251.65
239.80
221.01
198.00
177.41
164.56
161.30
165.06
170.63
173.29
171.19
165.70
160.27
163.38
181.91
218.57
270.59
331.70
395.11
455.83
510.62
528.05
485.88
377.77
220.32
45.31
-116.35
-246.12
-338.90
-399.37
-436.57
-455.06
-457.55
-445.01
-421.92
-394.27
-367.72
-345.69
-329.38
-318.09
-306.83
-291.34
-270.35
-246.67
-225.71
-212.88
-210.48
-217.92
-231.64
-244.70
-251.35
-249.04
-238.90
-223.99
-209.69
-196.61
-183.65
-169.37
-151.93
-130.55
-105.70
-77.67
-48.45
-20.14
6.13
29.49
49.52
66.55
81.23
94.21
105.88
116.12
124.72
131.76
137.01
140.22
141.12
139.52
135.44
129.14
121.06
111.95
102.78
93.94
85.15
75.52
63.93
49.65
32.80
14.47
-3.43
-18.63
-29.55
-35.70
-37.88
-37.86
-37.65
-38.72
-41.66
-46.14
-51.49
-57.37
-63.97
-71.76
-80.95
-91.04
-101.00
-109.72
-116.40
-120.63
-122.04
-119.73
-112.34
-98.73
-79.00
-55.19
-31.00
-10.53
3.48
10.86
13.95
16.27
20.59
27.55
35.47
41.55
43.58
41.27
36.41
31.84
30.03
31.92
36.64
42.22
46.54
48.13
46.26
40.63
30.93
16.81
-1.93
-24.90
-51.07
-78.89
-106.46
-131.92
-153.46
-169.49
-178.60
-179.67
-172.03
-155.59
-131.08
-100.13
-65.35
-30.16
1.72
27.03
43.85
52.08
53.34
50.07
44.44
37.74
30.46
23.00
16.11
10.94
8.42
8.59
10.35
12.00
12.20
10.87
9.20
8.93
11.33
16.63
24.16
32.79
41.25
48.44
53.43
55.21
52.63
44.58
30.59
11.07
-12.26
-37.12
-60.37
-78.49
-88.32
-88.02
-77.58
-58.67
-34.69
-9.87
10.36
21.94
23.95
19.40
14.13
14.30
23.96
42.45
65.00
82.67
87.90
77.96
56.00
28.61
2.39
-18.35
-33.52
-45.73
-61.44
-86.04
-120.95
-162.57
-204.30
-238.93
-260.58
-267.15
-243.91
-185.34
-97.89
2.63
100.79
187.38
256.07
307.23
337.87
344.44
323.67
277.67
214.07
145.58
84.84
40.32
15.09
6.13
7.61
10.82
8.46
-3.50
-25.25
-54.28
-86.68
-118.12
-146.16
-169.81
-191.27
-213.20
-237.07
-261.86
-284.15
-299.13
-301.97
-290.52
-264.93
-228.07
-182.76
-130.38
-70.93
-4.52
66.90
138.98
205.18
259.88
297.27
316.09
320.81
317.88
310.36
296.35
275.43
245.63
209.77
174.94
149.46
138.14
139.41
145.61
145.87
130.09
91.82
30.87
-47.57
-134.53
-219.93
-294.65
-351.70
-386.77
-398.56
-389.26
-363.17
-325.68
-281.20
-232.07
-178.54
-120.05
-56.74
9.07
72.19
125.92
163.71
181.58
179.81
163.36
140.87
122.24
115.54
124.10
145.58
172.62
195.27
203.70
190.60
152.81
92.11
14.74
-69.85
-150.95
-219.02
-267.43
-293.86
-299.64
-288.25
-263.70
-230.28
-192.74
-156.32
-126.12
-105.07
-93.16
-86.89
-80.39
-67.52
-45.55
-16.26
15.23
43.64
67.09
86.91
106.82
130.87
162.44
201.38
244.54
287.05
324.03
352.21
367.62
365.41
341.19
294.53
228.78
151.99
75.90
7.08
-43.49
-68.96
-67.78
-47.60
-14.30
26.25
70.38
114.58
154.13
184.31
200.41
200.54
181.28
149.33
115.67
88.57
67.89
46.78
19.31
-11.78
-42.70
-67.58
-80.66
-81.62
-75.34
-68.84
-67.21
-71.33
-78.92
-87.00
-93.22
-96.47
-98.68
-103.48
-114.03
-130.25
-147.77
-159.75
-160.66
-148.89
-127.57
-103.92
-85.35
-75.40
-71.89
-68.90
-60.73
-45.74
-26.47
-6.52
12.29
31.24
52.91
78.66
103.83
120.21
121.99
107.20
79.66
47.39
18.74
-1.44
-13.43
-21.84
-32.23
-48.31
-70.60
-96.29
-120.89
-140.31
-152.41
-157.10
-155.61
-148.88
-137.06
-119.92
-97.25
-69.41
-37.54
-3.34
31.19
63.76
91.98
113.53
126.61
131.13
129.24
124.69
121.24
120.77
122.07
121.43
114.56
98.94
75.46
48.09
21.93
0.83
-14.11
-24.46
-32.88
-41.21
-49.48
-56.09
-59.16
-58.01
-53.76
-48.79
-45.44
-44.77
-46.06
-47.25
-45.94
-40.56
-30.94
-18.48
-5.53
5.52
13.29
17.81
20.42
22.94
26.66
31.67
36.84
40.52
41.39
39.15
34.47
28.56
22.48
16.63
10.79
4.38
-3.02
-11.30
-19.79
-27.48
-33.40
-37.08
-38.71
-39.04
-38.99
-39.25
-40.03
-40.95
-41.39
-40.68
-38.41
-34.49
-29.16
-22.78
-15.74
-8.28
-0.43
8.00
17.30
27.66
38.92
50.50
61.45
70.66
77.17
80.47
80.45
77.37
71.57
63.35
52.85
40.07
24.98
7.51
-12.34
-34.48
-58.44
-83.17
-106.95
-127.73
-143.83
-154.67
-161.16
-165.33
-169.39
-174.60
-180.65
-185.83
-187.91
-185.19
-177.03
-163.76
-146.12
-124.78
-100.27
-73.23
-44.70
-16.14
10.91
35.21
56.06
73.19
86.47
95.83
101.34
103.54
103.60
103.14
103.83
106.89
112.82
121.56
132.73
145.84
160.17
174.50
186.90
194.90
196.13
189.05
173.62
151.36
124.91
97.07
70.02
44.89
21.97
1.26
-16.80
-30.98
-39.47
-40.43
-32.74
-16.52
6.56
33.69
61.43
86.53
106.48
119.80
125.98
125.38
118.91
107.89
93.92
78.74
64.09
51.44
41.72
35.09
30.87
27.81
24.49
19.87
13.57
5.90
-2.33
-10.27
-17.41
-23.79
-29.92
-36.60
-44.48
-53.75
-63.87
-73.71
-81.92
-87.40
-89.79
-89.51
-87.50
-84.69
-81.59
-78.18
-74.14
-69.39
-64.35
-59.85
-56.78
-55.49
-55.64
-56.32
-56.55
-55.72
-53.84
-51.38
-48.98
-47.03
-45.55
-44.22
-42.71
-40.90
-38.96
-37.23
-35.98
-35.27
-34.92
-34.70
-34.48
-34.26
-34.14
-34.16
-34.15
-33.82
-32.81
-30.83
-27.78
-23.74
-18.87
-13.46
-7.86
-2.46
2.33
6.20
9.01
10.84
11.85
12.24
12.15
11.61
10.62
9.19
7.45
5.57
3.78
2.25
1.10
0.37
0.02
-0.09
-0.10
-0.20
-0.58
-1.40
-2.76
-4.63
-6.85
-9.15
-11.21
-12.87
-14.16
-15.30
-16.54
-17.94
-19.20
-19.67
-18.58
-15.36
-9.88
-2.60
5.59
13.70
20.87
26.63
30.87
33.77
35.56
36.45
36.54
35.88
34.54
32.67
30.51
28.32
26.30
24.50
22.89
21.34
19.74
18.07
16.35
14.66
13.08
11.65
10.38
9.18
7.91
6.36
4.33
1.70
-1.50
-5.06
-8.62
-11.75
-14.05
-15.24
-15.17
-13.85
-11.43
-8.20
-4.52
-0.75
2.81
5.93
8.51
10.44
11.63
11.94
11.32
9.86
7.86
5.77
4.01
2.80
2.13
1.78
1.52
1.20
0.78
0.29
-0.29
-1.10
-2.30
-4.00
-6.11
-8.39
-10.54
-12.36
-13.88
-15.33
-17.00
-19.01
-21.27
-23.37
-24.80
-25.07
-23.91
-21.34
-17.61
-13.10
-8.18
-3.18
1.64
5.97
9.54
12.07
13.41
13.58
12.83
11.51
9.94
8.33
6.72
5.03
3.22
1.40
-0.20
-1.34
-1.90
-2.00
-1.95
-2.13
-2.85
-4.19
-6.04
-8.19
-10.46
-12.78
-15.21
-17.83
-20.68
-23.67
-26.51
-28.78
-30.00
-29.77
-27.88
-24.39
-19.58
-13.90
-7.82
-1.80
3.74
8.49
12.18
14.67
15.89
15.95
15.07
13.56
11.77
9.97
8.40
7.14
6.23
5.60
5.13
4.72
4.28
3.83
3.40
3.04
2.74
2.43
1.96
1.20
0.11
-1.28
-2.90
-4.69
-6.66
-8.80
-11.00
-12.98
-14.23
-14.24
-12.63
-9.31
-4.60
0.92
6.54
11.64
15.80
18.81
20.64
21.38
21.15
20.15
18.63
16.84
15.07
13.52
12.26
11.26
10.35
9.36
8.16
6.78
5.38
4.16
3.25
2.61
2.05
1.30
0.17
-1.36
-3.18
-5.15
-7.19
-9.28
-11.43
-13.48
-15.09
-15.77
-15.07
-12.79
-9.09
-4.53
0.20
4.45
7.87
10.37
12.09
13.19
13.72
13.58
12.65
10.87
8.43
5.68
3.11
1.12
-0.04
-0.41
-0.22
0.19
0.43
0.22
-0.64
-2.14
-4.10
-6.20
-8.09
-9.58
-10.62
-11.45
-12.40
-13.79
-15.75
-18.16
-20.69
-22.87
-24.23
-24.35
-22.98
-20.01
-15.60
-10.17
-4.33
1.26
6.02
9.60
11.89
12.94
12.89
11.90
10.15
7.91
5.53
3.37
1.71
0.65
0.11
-0.11
-0.24
-0.44
-0.78
-1.26
-1.89
-2.70
-3.71
-4.99
-6.61
-8.66
-11.18
-14.12
-17.28
-20.31
-22.80
-24.40
-24.76
-23.66
-20.88
-16.25
-9.66
-1.12
9.09
20.35
31.69
41.93
49.84
54.31
54.56
50.33
41.96
30.32
16.40
1.03
-15.29
-32.52
-50.79
-69.92
-89.03
-106.39
-119.99
-128.14
-130.27
-126.79
-119.41
-110.47
-102.15
-95.48
-89.79
-82.84
-71.50
-52.76
-24.21
14.18
59.45
106.42
149.28
183.65
207.79
222.43
229.84
233.48
235.48
235.82
232.89
224.74
210.67
191.77
170.64
150.83
137.52
134.55
142.95
160.18
180.84
198.57
208.00
206.02
182.81
135.74
70.32
-1.29
-66.70
-118.46
-154.31
-174.91
-182.12
-178.67
-167.19
-152.12
-139.05
-131.98
-132.09
-136.83
-140.78
-138.06
-124.75
-98.66
-63.68
-27.57
1.33
17.24
18.69
7.88
-11.23
-34.58
-58.50
-80.49
-98.66
-111.73
-119.09
-120.76
-117.31
-110.92
-102.53
-92.88
-82.82
-72.83
-63.17
-53.97
-45.29
-37.16
-29.75
-23.19
-17.76
-13.69
-10.80
-8.67
-6.78
-4.73
-2.40
0.01
2.27
4.15
5.00
5.13
5.43
6.87
9.93
14.45
19.69
24.76
28.86
31.59
33.07
33.56
33.24
32.16
30.40
28.25
26.37
25.47
26.11
28.52
32.30
36.63
40.47
42.92
43.39
41.68
37.88
32.30
25.45
17.85
9.96
2.06
-5.87
-14.19
-23.40
-33.87
-45.55
-57.78
-69.43
-79.28
-86.43
-90.68
-92.53
-92.97
-93.06
-93.57
-94.79
-96.38
-97.52
-97.00
-93.47
-85.89
-73.86
-57.88
-39.24
-19.36
1.07
22.53
46.63
75.24
109.32
148.09
188.75
227.15
258.78
279.88
288.28
283.80
268.10
244.20
215.62
185.56
156.18
128.42
102.34
77.81
55.17
35.28
19.26
7.91
1.28
-1.53
-1.95
-1.37
-0.73
-0.29
-0.25
-1.07
-3.57
-8.79
-17.53
-30.05
-45.70
-63.21
-80.82
-97.13
-111.46
-123.57
-133.44
-141.08
-146.59
-150.11
-152.04
-152.64
-152.50
-151.98
-150.18
-144.53
-131.25
-107.14
-70.95
-24.46
28.44
80.26
121.05
142.69
143.21
127.67
104.35
84.45
71.62
66.55
68.70
76.91
89.84
103.99
115.86
121.91
117.11
100.26
75.35
49.20
27.16
10.42
-3.78
-19.43
-39.38
-63.55
-89.13
-112.96
-131.63
-142.40
-143.51
-134.37
-116.36
-93.95
-73.95
-63.39
-66.88
-85.24
-114.77
-149.13
-181.11
-204.82
-217.03
-216.81
-204.63
-181.79
-150.42
-113.90
-76.50
-42.24
-13.62
9.39
29.24
49.62
73.18
99.72
125.59
144.89
152.11
144.73
124.56
97.39
70.93
52.12
44.98
49.66
62.74
78.87
92.62
100.36
101.07
96.18
88.52
80.97
75.61
73.36
74.19
77.49
82.28
87.27
90.90
91.53
87.96
80.08
69.06
57.04
46.54
39.67
37.65
40.68
47.58
55.78
61.57
60.92
50.50
29.19
-1.17
-36.05
-69.53
-96.40
-113.89
-121.90
-122.40
-118.34
-112.45
-106.90
-103.60
-104.01
-109.31
-119.97
-134.88
-148.97
-155.78
-149.94
-130.61
-102.80
-74.41
-52.52
-41.24
-38.70
-40.14
-40.48
-36.01
-25.31
-9.39
10.27
31.74
52.00
67.61
75.90
76.02
69.59
62.33
57.37
57.15
63.58
77.76
98.20
122.53
147.36
168.71
182.33
183.95
171.32
145.08
109.01
69.43
33.71
7.88
-5.49
-6.19
2.47
15.60
28.93
40.33
49.65
57.56
64.31
70.46
75.33
78.06
78.56
77.41
75.29
72.49
68.91
64.01
57.24
48.43
37.73
25.81
13.42
0.89
-12.23
-27.08
-44.96
-66.55
-91.26
-117.08
-140.77
-158.75
-168.25
-168.14
-159.06
-143.08
-123.11
-102.38
-84.02
-70.59
-63.55
-62.78
-66.44
-71.40
-74.19
-72.36
-65.48
-55.42
-45.62
-39.64
-39.80
-46.39
-57.69
-70.68
-82.16
-89.65
-92.00
-89.47
-83.42
-75.85
-68.72
-63.45
-60.57
-59.79
-60.33
-61.50
-63.08
-65.47
-69.20
-74.37
-79.93
-83.56
-82.19
-72.70
-52.69
-21.10
21.39
72.18
126.92
179.96
225.38
258.35
276.51
280.55
273.66
260.00
242.97
224.16
203.51
180.32
154.32
126.23
97.35
68.73
40.73
12.94
-15.15
-43.66
-71.85
-98.20
-120.90
-138.52
-150.49
-157.17
-159.76
-159.84
-158.59
-156.20
-151.72
-143.26
-128.70
-106.50
-76.62
-40.98
-3.42
30.99
57.25
71.69
73.04
62.60
43.58
19.63
-6.39
-32.93
-59.28
-84.56
-106.99
-123.97
-133.06
-133.23
-125.59
-113.04
-99.13
-86.73
-77.09
-69.61
-62.57
-54.12
-43.13
-29.65
-14.75
0.09
13.61
25.23
35.16
44.01
52.35
60.21
67.02
71.93
74.29
74.12
72.18
69.72
67.99
67.76
69.16
71.75
74.84
77.84
80.39
82.34
83.54
83.62
81.90
77.55
69.99
59.30
46.37
32.77
20.26
10.17
3.05
-1.40
-3.98
-5.55
-6.63
-7.41
-7.82
-7.82
-7.47
-6.95
-6.45
-6.11
-6.03
-6.36
-7.41
-9.52
-12.97
-17.74
-23.43
-29.28
-34.28
-37.46
-38.07
-35.81
-30.87
-23.92
-15.96
-8.10
-1.28
3.85
7.07
8.53
8.66
8.02
7.14
6.46
6.19
6.28
6.41
6.08
4.83
2.36
-1.27
-5.73
-10.45
-14.76
-18.14
-20.25
-20.98
-20.43
-18.87
-16.65
-14.17
-11.82
-9.87
-8.54
-7.94
-8.22
-9.53
-12.08
-15.95
-20.99
-26.73
-32.41
-37.12
-40.03
-40.62
-38.75
-34.73
-29.22
-23.14
-17.41
-12.75
-9.54
-7.79
-7.23
-7.41
-7.80
-7.84
-7.01
-4.97
-1.63
2.75
7.66
12.64
17.43
22.21
27.37
33.21
39.65
46.07
51.64
55.56
57.44
57.34
55.58
52.59
48.79
44.55
40.25
36.23
32.68
29.59
26.69
23.69
20.44
17.15
14.40
12.91
13.30
15.83
20.27
25.99
32.13
37.78
42.14
44.51
44.37
41.45
35.85
28.12
19.25
10.35
2.31
-4.54
-10.54
-16.40
-22.83
-30.06
-37.73
-45.03
-51.10
-55.32
-57.47
-57.58
-55.80
-52.33
-47.36
-41.26
-34.52
-27.62
-20.93
-14.58
-8.46
-2.47
3.37
8.80
13.46
17.09
19.69
21.61
23.41
25.74
29.16
34.07
40.66
48.89
58.43
68.68
78.75
87.66
94.58
99.04
101.07
101.13
99.97
98.40
97.11
96.51
96.71
97.47
98.30
98.48
97.17
93.57
87.05
77.29
64.50
49.44
33.26
17.23
2.30
-11.15
-23.31
-34.63
-45.39
-55.38
-63.83
-69.75
-72.44
-71.81
-68.58
-63.95
-59.11
-54.87
-51.31
-47.83
-43.42
-37.23
-28.84
-18.69
-7.80
2.64
11.49
18.08
22.34
24.59
25.25
24.66
22.77
19.33
14.17
6.77
-3.19
-15.41
-28.71
-41.25
-50.66
-55.62
-55.97
-52.71
-48.54
-46.46
-48.75
-56.23
-68.30
-82.77
-97.80
-111.58
-122.40
-129.96
-134.69
-137.37
-138.83
-139.96
-141.04
-143.43
-148.17
-149.18
-141.38
-122.42
-94.14
-61.56
-34.59
-14.78
-1.60
6.36
11.15
15.45
20.45
26.54
33.74
41.82
50.83
59.22
65.07
66.96
63.92
56.55
47.54
40.95
40.94
50.13
66.29
83.71
96.75
102.44
101.45
96.78
91.62
87.74
85.20
82.08
76.11
65.83
50.83
32.05
11.58
-7.91
-24.24
-36.38
-45.10
-51.88
-57.63
-62.67
-65.44
-64.28
-58.54
-49.01
-37.64
-26.76
-17.98
-11.56
-6.59
-1.63
4.21
10.95
17.79
23.54
27.28
28.83
28.87
28.54
28.96
30.57
33.08
35.75
37.56
38.13
37.78
37.34
37.65
39.19
41.74
44.61
46.95
48.22
48.34
47.66
46.63
45.59
44.63
43.59
42.26
40.50
38.33
35.98
33.69
31.70
30.17
29.20
28.75
28.60
28.33
27.31
24.85
20.35
13.42
4.05
-7.49
-20.65
-34.74
-49.07
-62.95
-75.77
-86.97
-96.08
-102.78
-106.90
-108.46
-107.65
-104.79
-100.15
-94.03
-86.64
-78.25
-69.23
-60.01
-51.08
-42.86
-35.66
-29.59
-24.64
-20.72
-17.70
-15.35
-13.36
-11.42
-9.25
-6.76
-4.09
-1.54
0.47
1.67
1.91
1.30
0.05
-1.51
-3.11
-4.51
-5.53
-6.01
-5.82
-4.91
-3.34
-1.28
1.07
3.49
5.85
8.04
9.97
11.51
12.50
12.84
12.54
11.78
10.81
9.92
9.30
8.99
8.90
8.88
8.72
8.26
7.42
6.25
4.91
3.64
2.75
2.43
2.76
3.67
4.93
6.23
7.26
7.77
7.62
6.79
5.37
3.55
1.52
-0.52
-2.36
-3.82
-4.76
-5.08
-4.82
-4.10
-3.16
-2.21
-1.37
-0.65
0.04
0.79
1.59
2.31
2.70
2.57
1.84
0.66
-0.61
-1.59
-2.02
-1.84
-1.26
-0.57
-0.04
0.22
0.27
0.25
0.28
0.38
0.49
0.52
0.44
0.28
0.10
-0.07
-0.27
-0.59
-1.12
-1.89
-2.84
-3.85
-4.79
-5.57
-6.19
-6.74
-7.35
-8.12
-9.09
-10.15
-11.08
-11.55
-11.27
-10.11
-8.11
-5.53
-2.73
0.01
2.55
4.86
6.94
8.76
10.22
11.19
11.64
11.66
11.42
11.09
10.75
10.41
10.01
9.56
9.10
8.73
8.49
8.38
8.32
8.23
8.04
7.73
7.31
6.81
6.22
5.52
4.69
3.70
2.56
1.31
-0.01
-1.33
-2.62
-3.84
-4.96
-6.01
-7.08
-8.29
-9.76
-11.49
-13.36
-15.06
-16.24
-16.53
-15.82
-14.19
-11.90
-9.25
-6.46
-3.67
-0.97
1.47
3.46
4.81
5.45
5.45
4.96
4.13
3.04
1.73
0.29
-1.13
-2.24
-2.78
-2.56
-1.62
-0.15
1.53
3.14
4.46
5.41
6.04
6.51
6.96
7.49
8.09
8.65
8.98
8.92
8.29
7.10
5.39
3.26
0.82
-1.82
-4.46
-6.84
-8.66
-9.71
-9.62
-8.26
-5.71
-2.33
1.41
5.06
8.28
10.86
12.61
13.93
15.21
16.81
18.83
21.06
23.20
24.91
25.96
26.24
26.63
28.10
31.28
36.20
42.22
48.43
54.06
58.74
62.52
66.93
73.65
83.99
98.38
116.24
136.51
158.16
180.57
196.03
198.50
184.68
155.87
117.54
76.49
38.04
5.02
-21.83
-43.06
-58.64
-68.77
-73.96
-75.24
-74.13
-72.17
-70.54
-69.88
-70.48
-71.47
-71.87
-70.91
-68.32
-64.46
-60.01
-55.60
-51.68
-48.55
-45.81
-43.02
-39.81
-36.10
-32.15
-28.39
-25.18
-22.73
-21.17
-20.25
-19.69
-19.21
-18.70
-17.94
-17.38
-17.27
-17.79
-18.97
-20.60
-22.37
-23.91
-24.94
-25.36
-25.29
-24.88
-24.35
-23.87
-23.53
-23.33
-23.16
-22.84
-22.20
-21.08
-19.34
-16.97
-14.11
-11.02
-8.00
-5.30
-3.13
-1.59
-0.74
-0.57
-1.02
-1.98
-3.27
-4.61
-5.79
-6.65
-7.16
-7.36
-7.29
-6.96
-6.33
-5.53
-4.64
-3.75
-2.91
-2.09
-1.19
-0.11
1.16
2.49
3.63
4.36
4.59
4.37
3.92
3.49
3.22
3.19
3.29
3.38
3.32
3.00
2.33
1.28
-0.14
-1.87
-3.81
-5.83
-7.78
-9.50
-10.78
-11.44
-11.31
-10.31
-8.48
-6.00
-3.11
-0.10
2.80
5.40
7.58
9.17
10.06
10.15
9.43
8.03
6.19
4.23
2.51
1.32
0.79
0.86
1.32
1.88
2.28
2.43
2.38
2.28
2.24
2.25
2.17
1.82
1.09
0.01
-1.26
-2.54
-3.72
-4.76
-5.76
-6.80
-7.91
-9.07
-10.18
-11.11
-11.76
-12.00
-11.70
-10.74
-9.02
-6.55
-3.47
-0.04
3.43
6.60
9.27
11.30
12.63
13.28
13.28
12.70
11.66
10.33
8.93
7.69
6.79
6.31
6.15
6.10
5.93
5.49
4.77
3.91
3.12
2.54
2.21
2.05
1.91
1.66
1.19
0.47
-0.50
-1.59
-2.67
-3.57
-4.17
-4.54
-4.82
-5.23
-5.90
-6.81
-7.81
-8.63
-8.99
-8.65
-7.50
-5.51
-2.82
0.36
3.69
6.87
9.65
11.89
13.56
14.72
15.44
15.82
15.93
15.87
15.68
15.39
15.02
14.61
14.20
13.87
13.61
13.42
13.19
12.85
12.36
11.70
10.92
10.04
9.08
7.99
6.76
5.39
3.87
2.23
0.44
-1.48
-3.53
-5.63
-7.65
-9.46
-10.91
-11.90
-12.38
-12.35
-11.89
-11.18
-10.37
-9.59
-8.82
-7.90
-6.60
-4.75
-2.34
0.44
3.28
5.89
8.07
9.76
10.99
11.73
11.85
11.14
9.46
6.83
3.52
-0.02
-3.30
-5.95
-7.77
-8.78
-9.11
-8.93
-8.40
-7.66
-6.86
-6.17
-5.76
-5.75
-6.20
-7.08
-8.27
-9.63
-11.03
-12.35
-13.55
-14.61
-15.52
-16.27
-16.80
-17.06
-16.96
-16.47
-15.56
-14.29
-12.71
-10.85
-8.71
-6.24
-3.44
-0.38
2.75
5.67
8.12
9.92
11.02
11.50
11.50
11.16
10.63
10.00
9.35
8.75
8.21
7.72
7.23
6.68
6.11
5.56
5.12
4.80
4.55
4.24
3.71
2.92
1.94
0.95
0.15
-0.31
-0.39
-0.22
0.03
0.19
0.14
-0.16
-0.72
-1.43
-2.15
-2.63
-2.63
-1.98
-0.71
0.96
2.69
4.11
5.01
5.38
5.36
5.11
4.77
4.36
3.80
3.02
1.98
0.72
-0.69
-2.08
-3.31
-4.25
-4.86
-5.22
-5.46
-5.74
-6.12
-6.53
-6.84
-6.90
-6.68
-6.28
-5.85
-5.52
-5.32
-5.15
-4.90
-4.48
-3.85
-3.06
-2.14
-1.14
-0.04
1.10
2.19
3.06
3.47
3.22
2.24
0.60
-1.37
-3.21
-4.35
-4.30
-2.77
0.22
4.31
8.83
12.93
15.80
16.86
15.95
13.34
9.70
5.86
2.55
0.22
-1.08
-1.61
-1.78
-2.00
-2.52
-3.40
-4.52
-5.70
-6.73
-7.45
-7.76
-7.64
-7.12
-6.29
-5.34
-4.49
-3.96
-3.89
-4.30
-5.07
-6.00
-6.94
-7.82
-8.70
-9.65
-10.75
-11.92
-13.06
-14.01
-14.72
-15.19
-15.47
-15.64
-15.69
-15.62
-15.45
-15.24
-15.06
-14.90
-14.66
-14.11
-13.02
-11.28
-8.97
-6.38
-3.89
-1.84
-0.43
0.29
0.39
-0.02
-0.86
-2.06
-3.58
-5.32
-7.16
-8.93
-10.50
-11.74
-12.60
-13.08
-13.22
-13.01
-12.41
-11.35
-9.76
-7.61
-5.02
-2.19
0.61
3.13
5.27
7.04
8.56
9.89
11.01
11.79
12.05
11.69
10.73
9.32
7.73
6.22
5.01
4.28
4.13
4.60
5.69
7.34
9.38
11.65
13.90
15.91
17.46
18.34
18.46
17.86
16.72
15.32
13.94
12.79
11.91
11.25
10.65
10.04
9.37
8.71
8.14
7.70
7.39
7.17
7.02
6.87
6.71
6.47
6.12
5.60
4.95
4.20
3.41
2.62
1.76
0.72
-0.61
-2.25
-4.07
-5.82
-7.16
-7.81
-7.59
-6.51
-4.71
-2.44
0.01
2.39
4.54
6.36
7.86
9.05
9.93
10.49
10.66
10.39
9.69
8.66
7.49
6.37
5.49
4.89
4.54
4.37
4.30
4.26
4.28
4.34
4.46
4.56
4.58
4.41
3.98
3.26
2.30
1.20
0.09
-0.90
-1.74
-2.49
-3.26
-4.16
-5.20
-6.31
-7.37
-8.28
-9.03
-9.66
-10.22
-10.64
-10.72
-10.19
-8.87
-6.74
-3.98
-0.94
2.05
4.76
7.07
8.94
10.35
11.26
11.61
11.42
10.79
9.87
8.83
7.78
6.80
5.93
5.24
4.80
4.68
4.92
5.38
5.84
6.09
6.01
5.65
5.14
4.64
4.26
3.97
3.66
3.12
2.27
1.14
-0.10
-1.23
-2.06
-2.46
-2.44
-2.19
-2.04
-2.31
-3.15
-4.47
-6.01
-7.37
-7.93
-7.25
-5.38
-2.86
-0.48
1.16
1.93
2.12
2.33
3.59
6.53
10.72
14.65
16.56
15.43
11.42
5.84
0.51
-2.31
-1.36
2.70
7.47
10.31
9.66
5.70
-0.03
-5.38
-7.16
-2.66
9.43
28.38
51.88
76.26
96.86
108.65
102.17
72.91
26.19
-23.70
-62.28
-82.70
-86.66
-80.41
-70.12
-59.02
-46.33
-30.09
-10.15
10.58
28.29
39.17
41.59
36.66
27.31
17.44
9.36
2.87
-4.26
-14.48
-28.73
-45.97
-63.53
-78.43
-86.97
-87.44
-80.40
-68.00
-52.64
-34.76
-16.08
0.78
13.25
20.19
21.89
19.57
14.76
8.99
3.51
-1.03
-4.31
-6.15
-6.58
-5.83
-4.15
-1.78
1.02
3.83
5.87
6.67
6.42
5.74
5.39
5.81
6.86
7.95
8.66
9.26
10.89
15.32
22.98
32.86
42.62
49.60
52.00
49.72
44.25
37.01
30.44
25.39
21.49
17.77
13.30
7.37
-0.15
-9.10
-18.98
-28.90
-37.91
-44.85
-49.42
-51.42
-51.53
-50.48
-48.66
-45.58
-39.83
-29.91
-15.05
3.57
22.49
36.40
40.47
32.26
13.04
-12.20
-36.10
-51.18
-52.32
-37.33
-10.85
18.69
42.33
53.88
51.71
38.82
21.15
4.81
-6.28
-11.63
-13.03
-13.34
-13.85
-14.62
-14.84
-13.42
-9.77
-4.10
2.61
9.46
15.06
18.26
18.00
13.37
4.05
-9.32
-24.87
-39.21
-47.87
-47.07
-35.58
-16.22
4.86
20.84
27.02
22.63
10.70
-3.56
-15.38
-22.12
-23.94
-22.62
-19.54
-15.12
-9.21
-1.98
5.85
13.04
18.58
21.88
23.36
25.04
29.29
37.79
50.50
66.03
81.75
94.49
100.66
94.07
72.00
37.45
-1.63
-36.71
-61.29
-74.83
-78.35
-73.48
-62.72
-48.55
-33.86
-20.69
-13.25
-15.11
-26.65
-44.39
-61.67
-71.86
-70.82
-58.41
-37.66
-13.64
9.22
27.92
41.63
50.97
57.07
61.52
65.15
68.60
70.46
69.54
65.09
57.44
47.60
36.81
26.95
19.58
16.35
18.11
26.23
39.11
52.12
58.79
53.29
33.61
1.92
-35.42
-71.10
-98.62
-115.20
-121.92
-122.16
-122.20
-122.45
-122.38
-120.97
-118.42
-115.06
-111.93
-110.01
-109.62
-110.26
-110.37
-109.03
-101.54
-88.91
-72.53
-53.06
-29.95
-2.19
30.36
66.39
102.21
133.28
155.26
166.94
169.84
167.07
161.72
155.41
148.30
139.38
127.92
113.87
98.76
84.40
71.81
61.06
51.55
43.02
35.84
31.32
29.44
29.87
31.16
31.18
28.14
21.49
12.43
3.16
-4.22
-8.87
-11.20
-12.64
-14.77
-18.39
-23.34
-28.36
-31.90
-33.05
-31.98
-29.73
-27.68
-26.93
-27.66
-29.25
-30.19
-28.86
-24.41
-17.14
-8.29
0.50
7.81
14.78
21.27
26.77
29.92
28.37
19.07
-0.67
-32.18
-74.57
-124.71
-178.22
-230.12
-276.16
-313.73
-342.00
-361.34
-372.60
-376.23
-371.83
-358.51
-335.15
-300.83
-255.22
-198.84
-133.12
-60.91
12.80
80.72
134.21
166.14
173.79
160.64
135.64
110.03
93.11
89.22
97.45
113.67
133.65
154.94
176.75
198.40
217.85
231.73
236.60
230.93
216.18
196.38
176.23
159.05
145.87
135.57
126.12
115.91
104.78
94.10
86.12
82.63
83.99
88.85
94.61
98.85
99.84
97.34
92.67
87.95
84.88
83.90
84.00
83.12
79.63
72.35
61.32
48.06
34.80
23.44
14.78
8.45
3.19
-2.00
-8.60
-17.91
-30.38
-45.17
-60.18
-72.27
-77.77
-77.84
-71.45
-59.69
-46.93
-38.41
-37.03
-42.34
-51.36
-60.29
-66.35
-68.17
-67.06
-65.30
-65.31
-67.59
-70.88
-72.84
-71.16
-64.77
-54.06
-41.20
-29.87
-22.94
-20.67
-20.96
-21.09
-19.52
-16.78
-14.38
-13.59
-14.42
-15.21
-13.83
-8.80
-0.12
11.03
23.05
34.68
45.37
54.72
62.58
69.04
74.42
79.24
84.17
89.93
94.94
98.65
100.65
100.85
99.47
96.69
92.29
85.62
75.77
62.11
45.02
25.43
4.73
-15.77
-35.18
-53.19
-69.77
-84.77
-97.66
-107.29
-112.73
-113.64
-110.59
-104.92
-98.28
-92.01
-86.82
-82.85
-79.80
-77.64
-76.67
-77.32
-79.84
-84.07
-89.46
-95.30
-100.92
-105.71
-109.27
-111.20
-111.14
-108.81
-104.10
-97.33
-89.28
-81.22
-74.58
-70.46
-68.98
-68.90
-67.87
-63.30
-53.61
-39.17
-22.28
-6.20
6.40
14.54
19.19
22.37
25.93
30.58
35.81
40.53
43.99
46.20
47.96
50.24
53.64
58.16
63.21
67.97
71.70
73.96
74.71
74.25
73.05
71.53
69.85
67.87
65.25
61.67
57.07
51.77
46.30
41.12
36.39
31.90
27.16
21.72
15.49
8.83
2.40
-3.14
-7.43
-10.57
-13.09
-15.61
-18.60
-22.16
-26.01
-29.58
-32.19
-33.22
-32.20
-28.93
-23.48
-16.27
-7.91
0.83
9.20
16.64
22.75
27.36
30.43
32.06
32.45
31.79
30.22
27.73
24.34
20.16
15.61
11.33
8.01
6.07
5.50
5.88
6.58
7.11
7.21
6.90
6.26
5.27
3.88
1.98
-0.32
-2.82
-5.23
-7.43
-9.48
-11.62
-14.08
-16.94
-20.07
-23.20
-26.09
-28.66
-31.06
-33.60
-36.57
-40.01
-43.61
-46.72
-48.55
-48.44
-46.07
-41.65
-35.81
-29.40
-23.31
-18.22
-14.58
-12.53
-12.06
-13.05
-15.39
-19.00
-23.76
-29.46
-35.63
-41.44
-45.64
-46.62
-42.58
-31.91
-13.63
12.07
43.59
77.87
110.89
138.54
157.55
166.31
165.17
156.24
142.72
128.10
115.28
106.06
100.73
98.21
96.46
93.26
87.01
77.11
63.97
48.58
32.00
15.15
-1.22
-16.36
-29.42
-39.63
-46.56
-50.27
-51.17
-49.63
-45.73
-39.45
-31.14
-21.86
-13.37
-7.58
-5.78
-8.04
-13.25
-19.64
-25.60
-30.24
-33.24
-34.69
-34.69
-33.28
-30.48
-26.66
-22.61
-19.51
-18.55
-20.02
-23.34
-27.39
-31.03
-33.38
-34.39
-34.36
-34.18
-34.93
-36.63
-38.65
-40.30
-41.23
-41.38
-41.15
-40.32
-38.72
-36.37
-32.18
-25.03
-14.92
-3.21
8.16
16.94
22.76
25.99
27.43
29.71
35.72
46.87
62.64
81.54
101.28
121.46
142.11
153.53
148.44
126.96
96.65
66.12
45.52
31.02
18.48
5.28
-9.45
-26.20
-42.53
-56.26
-66.62
-74.13
-80.84
-87.65
-95.38
-104.51
-113.66
-120.41
-123.22
-122.14
-118.37
-114.08
-110.01
-106.38
-103.10
-99.22
-93.68
-86.46
-78.48
-70.72
-63.91
-57.23
-49.52
-39.90
-27.81
-13.18
3.32
20.56
37.44
52.91
66.57
78.23
87.85
95.75
102.58
108.84
114.69
119.82
123.68
126.11
127.39
128.11
128.95
130.27
131.79
132.68
131.86
128.66
123.27
116.72
110.28
105.00
101.20
98.32
95.21
90.45
83.19
73.59
62.70
51.52
40.99
31.76
24.22
18.60
14.29
10.38
6.00
0.26
-8.37
-20.64
-35.86
-51.98
-65.99
-76.57
-83.56
-87.68
-90.28
-94.16
-101.26
-111.71
-124.00
-135.28
-144.89
-152.89
-159.28
-164.02
-168.55
-173.72
-179.36
-184.61
-188.09
-191.56
-197.05
-205.35
-203.39
-182.36
-142.89
-94.77
-56.52
-27.98
-6.70
9.72
25.64
42.90
60.41
76.45
89.94
100.89
110.95
119.51
125.90
129.96
131.76
130.34
125.41
117.98
110.14
104.63
101.29
98.64
94.88
88.41
77.89
63.32
46.14
28.53
12.83
-0.66
-12.48
-23.09
-32.79
-41.80
-50.05
-57.29
-63.22
-67.45
-70.23
-71.78
-72.03
-70.74
-67.78
-63.18
-57.18
-50.19
-42.65
-35.18
-28.25
-22.05
-16.61
-11.80
-7.54
-3.81
-0.71
1.61
3.06
3.74
3.92
4.07
4.64
5.88
7.75
9.88
11.85
13.32
14.24
14.75
15.11
15.45
15.75
15.80
15.37
14.29
12.55
10.31
7.80
5.29
2.97
0.87
-1.13
-3.27
-5.76
-8.71
-11.99
-15.33
-18.28
-20.42
-21.38
-20.87
-18.80
-15.25
-10.53
-5.14
0.35
5.45
9.84
13.42
16.21
18.30
19.71
20.45
20.58
20.20
19.51
18.67
17.81
16.98
16.20
15.54
15.13
15.07
15.36
15.86
16.29
16.43
16.13
15.44
14.48
13.39
12.22
10.98
9.61
8.10
6.44
4.63
2.63
0.39
-2.13
-4.84
-7.59
-10.21
-12.57
-14.67
-16.62
-18.57
-20.56
-22.46
-23.94
-24.53
-23.80
-21.47
-17.55
-12.31
-6.26
0.02
5.95
11.04
14.93
17.45
18.62
18.66
17.90
16.72
15.38
14.06
12.79
11.60
10.53
9.67
9.11
8.87
8.87
8.97
9.05
9.04
8.92
8.67
8.24
7.52
6.46
5.11
3.65
2.31
1.24
0.41
-0.36
-1.33
-2.67
-4.38
-6.29
-8.08
-9.38
-9.84
-9.12
-6.95
-3.22
1.95
8.14
14.76
21.16
26.89
31.75
35.73
38.88
41.10
42.20
42.02
40.57
38.13
35.15
32.07
29.06
26.11
23.05
19.89
16.86
14.43
13.07
12.99
13.88
14.99
15.32
14.00
10.55
5.02
-2.09
-10.10
-18.32
-26.18
-33.22
-38.99
-42.88
-44.20
-42.28
-36.70
-27.52
-15.47
-1.72
12.43
25.74
37.08
45.65
51.19
54.21
56.12
58.94
65.04
76.42
93.83
116.21
141.00
165.16
186.41
203.93
217.83
228.72
236.90
241.71
241.62
235.05
221.30
200.91
175.16
144.29
108.54
68.63
25.91
-17.87
-60.60
-99.91
-133.58
-160.23
-181.68
-199.78
-214.87
-226.18
-233.23
-236.40
-236.59
-234.91
-232.48
-233.52
-240.05
-250.16
-259.63
-265.25
-266.16
-263.16
-257.63
-250.86
-248.17
-252.62
-263.02
-275.62
-287.32
-296.21
-300.16
-296.30
-255.19
-167.76
-52.24
60.14
148.58
207.64
239.96
250.51
244.17
225.77
195.89
157.92
119.75
90.75
76.35
75.73
83.03
89.88
88.96
73.47
44.18
10.32
-14.74
-20.55
-3.80
31.16
73.64
113.20
137.90
140.53
121.04
85.80
44.59
7.48
-16.16
-22.57
-13.57
3.17
19.24
29.20
31.89
29.46
25.44
22.89
22.83
24.91
27.92
31.55
36.53
43.46
50.47
53.40
47.55
29.87
1.73
-31.00
-60.08
-78.67
-84.16
-79.11
-68.73
-57.24
-45.80
-32.23
-13.09
13.41
45.03
76.20
100.28
110.70
106.80
93.29
77.28
64.91
59.22
57.41
55.19
48.48
35.71
19.38
5.31
0.07
7.92
28.18
55.20
81.56
100.64
109.70
111.42
111.76
116.50
127.75
142.92
156.57
163.57
161.33
150.98
137.21
125.85
121.14
123.57
128.53
128.71
118.45
94.26
56.44
9.49
-39.99
-85.29
-120.58
-142.75
-148.49
-131.74
-91.49
-34.00
30.05
88.32
131.09
154.70
157.73
143.98
125.14
106.44
85.64
60.33
30.33
-1.43
-30.75
-61.15
-96.59
-130.55
-162.46
-196.75
-233.77
-270.53
-302.75
-327.36
-352.25
-383.82
-411.62
-430.93
-444.54
-453.47
-458.64
-461.59
-410.94
-286.78
-175.08
-100.10
-37.95
17.11
66.00
106.41
135.06
149.92
142.75
111.00
70.61
30.99
-7.37
-42.64
-71.89
-91.64
-99.09
-99.94
-99.64
-92.17
-77.15
-59.84
-42.52
-25.11
-6.52
13.68
30.42
39.28
44.12
46.58
45.72
42.83
40.01
39.00
39.91
39.16
33.33
23.97
12.49
-0.10
-11.49
-19.42
-22.59
-20.99
-16.35
-10.16
-2.40
6.12
13.24
16.71
14.57
6.33
-6.93
-22.96
-38.69
-51.55
-60.45
-66.14
-70.19
-74.49
-79.90
-86.29
-92.42
-95.29
-90.70
-75.74
-50.71
-18.69
15.42
47.50
73.74
87.17
84.82
72.83
59.58
48.75
42.95
38.21
31.95
25.11
20.02
20.36
28.68
46.72
71.86
98.52
121.58
138.48
151.15
162.24
174.67
195.12
228.31
273.17
324.25
375.86
423.01
463.82
494.92
482.80
410.61
291.30
159.11
44.94
-28.33
-70.71
-91.96
-99.46
-97.40
-85.21
-61.66
-30.71
-6.17
0.43
-14.88
-44.12
-75.58
-97.63
-103.72
-91.92
-66.12
-34.52
-6.30
10.28
11.07
-6.26
-41.16
-86.78
-132.99
-169.99
-191.67
-196.08
-186.52
-168.74
-150.15
-137.26
-128.03
-120.91
-114.72
-109.18
-103.80
-97.79
-89.22
-76.42
-59.23
-38.70
-18.52
-3.27
2.79
-2.04
-15.91
-35.13
-55.04
-71.30
-80.01
-79.75
-70.80
-55.32
-36.07
-15.33
5.51
25.72
44.53
62.49
77.66
89.58
99.23
109.29
123.20
143.62
171.17
195.91
208.08
201.84
178.82
145.05
106.69
67.68
30.74
-1.36
-25.63
-38.72
-39.69
-31.04
-18.57
-7.81
-3.70
-7.96
-18.65
-31.67
-42.04
-46.46
-44.27
-37.10
-27.17
-16.82
-7.69
-0.96
2.58
1.64
-3.29
-9.81
-15.10
-14.01
-3.32
15.36
35.92
51.29
57.11
53.20
42.36
28.29
14.08
0.70
-11.84
-23.02
-31.70
-36.29
-35.52
-29.43
-19.40
-7.37
3.86
11.99
15.97
15.99
12.72
7.11
0.32
-6.51
-12.15
-16.48
-20.46
-25.51
-32.56
-41.75
-51.81
-60.52
-65.96
-64.05
-54.80
-43.12
-35.38
-34.38
-38.44
-43.40
-45.20
-41.77
-33.41
-22.83
-13.30
-7.94
-6.18
-6.74
-8.00
-8.04
-5.14
1.79
12.50
26.00
41.32
57.90
75.00
90.33
101.31
105.61
101.52
88.05
65.59
36.41
4.55
-25.54
-50.00
-66.57
-75.23
-78.06
-78.11
