1698082535.00
64.000000
-0.00
-0.00
-0.00
-0.00
-0.00
-0.00
-0.00
-0.00
-0.00
-0.00
0.00
0.01
0.01
-0.00
-0.03
-0.05
-0.05
0.00
0.13
0.36
0.66
1.01
1.37
1.72
2.06
2.40
2.79
3.24
3.80
4.42
5.06
5.66
6.20
6.68
7.15
7.68
8.31
9.14
10.09
11.04
11.88
12.56
13.14
13.76
14.65
15.96
17.91
20.32
22.90
25.38
27.58
29.57
31.68
34.32
37.81
42.54
48.15
54.10
59.83
64.97
69.58
74.14
79.34
85.71
93.76
103.00
112.62
121.73
129.77
136.75
143.30
150.75
157.77
166.64
177.95
191.79
206.97
220.57
228.25
225.36
208.53
176.87
132.76
80.05
23.07
-34.94
-92.44
-149.16
-205.23
-260.37
-313.74
-363.87
-409.83
-450.91
-486.50
-515.74
-537.23
-549.22
-549.96
-538.37
-514.21
-478.67
-433.88
-382.45
-327.02
-269.84
-212.63
-156.66
-102.95
-52.37
-5.90
35.58
71.43
101.35
125.50
144.38
158.69
169.15
176.37
180.75
182.57
182.07
179.51
175.23
169.65
163.18
156.15
148.81
141.29
133.68
126.01
118.34
110.71
103.19
95.84
88.70
81.79
75.12
68.73
62.65
56.90
51.50
46.45
41.72
37.27
33.10
29.17
25.53
22.18
19.16
16.46
14.06
11.90
9.93
8.11
6.43
4.92
3.65
2.65
1.91
1.36
0.87
0.30
-0.42
-1.28
-2.16
-2.88
-3.28
-3.36
-3.22
-3.14
-3.37
-4.08
-5.22
-6.51
-7.59
-8.17
-8.18
-7.84
-7.58
-7.85
-8.89
-10.61
-12.58
-14.24
-15.23
-15.45
-15.17
-14.87
-14.97
-15.78
-17.43
-20.03
-23.44
-27.10
-29.79
-29.78
-25.51
-16.43
-3.61
10.41
22.57
30.51
33.45
32.31
28.99
25.31
22.35
20.30
18.87
17.80
17.04
16.70
16.70
16.54
15.49
12.92
8.69
3.50
-1.25
-4.02
-3.68
-0.14
5.59
11.82
17.03
20.57
22.81
24.68
26.88
29.42
31.51
32.13
30.66
27.21
22.56
17.63
13.30
9.90
7.75
7.15
8.14
10.26
12.33
12.87
10.91
6.67
1.54
-2.49
-4.05
-3.08
-0.82
0.97
0.86
-1.69
-6.41
-12.64
-19.66
-26.53
-31.87
-33.73
-30.19
-20.28
-4.80
13.45
30.49
42.37
46.80
44.02
36.62
28.49
23.39
23.72
29.95
40.81
53.75
66.36
77.21
86.05
93.54
100.75
108.52
117.16
126.28
134.04
138.19
136.59
127.95
112.62
92.75
71.78
53.22
39.35
29.53
21.44
12.17
-0.42
-16.80
-36.12
-57.25
-80.43
-101.91
-121.06
-138.18
-153.57
-166.88
-177.22
-183.59
-185.46
-183.06
-177.15
-169.28
-160.32
-150.35
-138.94
-125.77
-111.14
-96.03
-81.75
-69.25
-59.39
-52.05
-46.45
-41.65
-37.00
-32.33
-27.83
-23.81
-20.36
-17.65
-15.52
-13.53
-11.27
-8.46
-5.09
-1.46
1.91
4.49
5.73
5.42
3.76
1.23
-1.67
-4.56
-7.25
-9.71
-11.98
-14.11
-16.04
-17.59
-18.49
-18.39
-16.96
-13.92
-9.11
-2.61
5.28
14.07
23.13
31.77
39.40
45.53
49.88
52.35
53.11
52.56
51.22
49.62
48.08
46.64
45.07
43.01
40.17
36.53
32.34
27.99
23.82
19.95
16.33
12.83
9.52
6.66
4.63
3.69
3.75
4.38
4.93
4.87
4.11
3.01
2.41
3.25
6.26
11.57
18.62
26.22
32.93
37.50
39.25
38.28
35.30
31.31
27.20
23.49
20.26
17.25
14.10
10.54
6.55
2.39
-1.49
-4.59
-6.57
-7.32
-7.02
-6.07
-4.90
-3.88
-3.31
-3.44
-4.42
-6.35
-9.20
-12.77
-16.74
-20.75
-24.49
-27.69
-30.11
-31.49
-31.57
-30.19
-27.41
-23.61
-19.42
-15.57
-12.68
-11.04
-10.64
-11.19
-12.28
-13.57
-14.84
-16.12
-17.55
-19.34
-21.54
-24.02
-26.43
-28.30
-29.28
-29.38
-28.98
-28.76
-29.33
-30.92
-33.22
-35.49
-36.90
-36.88
-35.39
-32.88
-30.03
-27.34
-24.87
-22.20
-18.64
-13.53
-6.53
2.28
12.45
23.23
33.70
42.71
48.93
51.26
49.39
44.37
38.59
35.15
36.36
42.43
50.92
57.47
57.58
48.54
30.61
6.81
-18.49
-41.39
-59.72
-73.33
-83.51
-91.87
-99.66
-107.37
-114.98
-122.33
-129.46
-136.64
-144.29
-152.70
-161.92
-171.74
-181.85
-191.99
-202.04
-211.99
-221.69
-230.78
-238.72
-245.09
-249.87
-253.61
-257.12
-260.86
-264.32
-265.72
-262.30
-251.28
-230.79
-200.47
-161.53
-116.04
-66.01
-12.79
43.21
102.33
165.20
232.05
302.01
372.49
439.23
497.10
541.64
570.60
584.75
587.26
582.13
572.39
559.17
542.15
520.59
494.46
464.75
433.10
401.17
370.36
341.70
315.79
292.41
270.11
246.28
218.39
185.34
148.34
110.38
74.41
41.50
10.44
-21.10
-54.49
-88.68
-120.50
-146.24
-163.66
-172.85
-175.98
-176.02
-175.55
-176.11
-178.10
-181.03
-183.68
-184.51
-182.32
-177.04
-170.18
-164.42
-162.29
-164.82
-170.83
-177.50
-181.82
-182.04
-178.29
-171.99
-164.67
-156.82
-147.63
-135.50
-119.10
-98.14
-73.75
-47.96
-22.93
-0.17
19.77
37.08
52.19
65.19
75.70
82.90
85.95
84.42
78.57
69.38
58.28
46.74
35.98
26.67
18.85
12.09
5.76
-0.60
-7.19
-13.89
-20.51
-27.08
-33.99
-41.82
-50.91
-60.97
-71.00
-79.59
-85.44
-87.89
-87.00
-83.46
-78.04
-71.30
-63.51
-54.86
-45.73
-36.76
-28.74
-22.32
-17.82
-15.22
-14.38
-15.22
-17.73
-21.79
-26.88
-32.03
-35.83
-36.73
-33.24
-24.08
-8.24
14.80
44.72
79.96
117.61
153.79
184.59
207.16
220.40
225.01
222.88
216.07
206.13
193.75
179.01
161.72
141.78
119.25
94.44
68.02
41.18
15.78
-5.95
-22.09
-31.84
-36.09
-37.30
-38.61
-42.50
-49.79
-59.41
-69.05
-76.42
-80.33
-81.13
-80.31
-79.70
-80.57
-83.30
-87.44
-92.16
-96.51
-99.90
-102.08
-103.12
-103.19
-102.50
-101.28
-99.89
-98.82
-98.43
-98.93
-100.38
-102.80
-106.19
-110.62
-116.13
-122.71
-130.13
-137.53
-143.98
-148.99
-152.82
-156.46
-161.04
-167.23
-174.88
-183.03
-189.16
-191.09
-188.27
-182.47
-176.91
-174.21
-174.54
-175.14
-171.08
-154.95
-121.44
-70.02
-5.63
63.70
130.29
188.90
236.75
272.83
301.23
328.04
359.41
399.04
446.74
497.89
543.30
570.85
569.72
539.77
490.32
436.59
393.68
372.70
379.72
415.52
475.84
522.99
522.31
456.27
335.86
189.69
45.18
-80.01
-177.90
-247.92
-294.42
-319.94
-326.39
-316.51
-295.56
-270.44
-247.45
-230.99
-223.36
-224.82
-231.64
-237.47
-238.10
-233.94
-229.01
-227.66
-232.03
-240.86
-246.32
-241.28
-220.26
-182.91
-135.29
-87.36
-48.43
-23.58
-12.74
-12.06
-16.03
-19.78
-21.28
-21.27
-21.69
-23.44
-26.14
-28.74
-30.41
-31.09
-30.84
-29.88
-28.55
-27.16
-25.97
-25.23
-25.01
-24.80
-23.68
-20.18
-13.59
-5.17
1.63
2.36
-6.61
-26.32
-54.49
-86.37
-116.03
-136.95
-143.66
-133.23
-106.14
-66.84
-23.81
11.46
26.80
12.99
-32.62
-104.33
-188.77
-268.52
-327.31
-354.75
-348.61
-314.04
-260.22
-196.47
-130.04
-65.72
-7.21
41.66
77.12
97.32
104.28
104.37
106.19
116.89
139.03
169.88
203.50
233.93
258.26
277.36
294.48
312.89
333.85
356.08
376.59
392.19
400.63
401.18
394.34
380.96
361.41
335.04
300.33
255.80
200.95
136.99
66.65
-6.85
-81.05
-155.21
-230.08
-306.67
-384.49
-460.31
-528.21
-580.98
-612.53
-620.00
-604.68
-571.16
-525.41
-472.61
-415.85
-356.20
-293.83
-229.20
-163.90
-100.41
-41.39
11.33
57.21
96.90
131.71
162.89
191.12
216.38
238.24
256.21
270.08
280.00
286.25
289.06
288.46
284.47
277.41
268.06
257.46
246.46
235.28
223.62
211.09
197.71
184.16
171.49
160.58
151.71
144.49
138.26
132.50
127.03
121.96
117.48
113.78
111.05
109.56
109.54
110.92
113.05
114.67
114.21
110.38
102.58
91.11
77.11
62.32
48.72
38.22
32.11
30.68
33.04
37.48
42.15
45.87
48.62
51.52
56.19
63.98
75.34
89.72
105.77
121.93
136.87
149.80
160.61
169.74
178.11
186.75
196.40
207.26
218.71
229.21
236.41
237.43
229.75
211.93
184.22
148.52
107.54
63.54
17.52
-30.74
-81.56
-133.94
-185.23
-232.11
-272.53
-306.78
-337.03
-365.20
-390.82
-410.57
-420.18
-417.59
-405.03
-388.41
-374.30
-366.26
-362.86
-358.98
-349.12
-330.83
-305.86
-278.64
-253.31
-231.43
-211.56
-190.67
-166.29
-137.89
-106.92
-75.85
-47.13
-22.66
-3.54
9.90
18.55
24.80
32.27
44.98
65.67
94.30
127.45
159.32
183.93
197.23
198.38
189.19
172.67
151.34
126.62
99.15
69.85
40.29
12.33
-12.79
-35.06
-55.36
-74.57
-92.47
-107.64
-118.52
-124.60
-127.13
-128.45
-130.58
-133.95
-137.32
-138.80
-137.26
-133.13
-127.98
-123.43
-120.04
-117.05
-113.01
-106.80
-98.47
-89.48
-82.13
-78.60
-80.08
-86.55
-97.08
-110.21
-124.50
-138.63
-151.42
-161.95
-169.79
-175.22
-179.16
-182.51
-185.21
-185.53
-180.12
-165.12
-137.86
-98.22
-48.71
6.53
63.18
117.64
167.27
210.26
245.50
272.91
293.59
309.61
322.81
333.52
339.95
338.97
328.43
309.10
285.40
263.55
248.35
240.16
233.99
221.32
193.42
145.15
77.25
-3.30
-84.92
-154.17
-199.17
-212.82
-195.32
-154.77
-104.99
-60.60
-31.37
-18.53
-15.13
-10.28
5.23
35.11
77.36
126.80
178.18
227.60
271.52
305.45
323.63
320.65
294.40
247.59
186.73
118.70
47.79
-24.81
-98.89
-171.89
-237.18
-285.26
-307.24
-298.18
-259.04
-195.99
-118.60
-37.99
34.36
87.81
114.33
110.94
81.49
36.30
-10.95
-48.16
-69.00
-74.26
-69.82
-62.80
-58.37
-58.50
-62.95
-70.98
-82.45
-97.60
-116.20
-136.94
-157.60
-175.99
-191.01
-202.94
-212.86
-221.67
-229.23
-234.13
-234.40
-228.34
-215.38
-196.31
-173.11
-148.52
-125.47
-106.48
-93.03
-84.80
-79.28
-71.98
-57.65
-32.21
5.45
52.75
104.26
153.75
196.29
229.43
253.05
268.28
276.30
277.71
272.48
260.57
242.47
219.58
194.15
168.83
145.77
125.69
107.36
87.97
64.47
35.08
0.21
-37.84
-76.19
-112.70
-146.04
-174.57
-195.07
-202.72
-193.14
-165.45
-124.50
-80.49
-45.68
-29.63
-35.19
-57.50
-86.13
-109.44
-118.43
-108.89
-80.95
-37.21
18.98
83.74
151.68
215.22
265.24
293.68
296.91
277.36
243.01
203.80
167.52
137.02
110.38
83.01
50.47
10.62
-35.64
-84.29
-128.54
-159.60
-168.52
-149.17
-101.46
-32.79
43.29
111.10
157.98
177.91
172.47
148.97
117.50
88.07
69.14
66.80
83.90
119.12
166.22
214.94
254.10
275.35
276.48
261.85
239.89
218.61
202.29
190.16
178.09
161.53
137.90
106.92
69.24
24.89
-27.02
-86.96
-153.08
-220.30
-281.24
-328.98
-359.86
-374.87
-378.70
-377.05
-373.49
-367.95
-357.46
-338.78
-311.34
-278.43
-246.03
-220.02
-203.35
-195.03
-191.36
-188.26
-182.97
-174.40
-162.07
-145.02
-121.92
-91.97
-55.97
-16.24
24.69
65.95
109.14
157.69
214.72
281.00
354.13
429.23
500.41
562.26
610.51
642.05
654.95
648.62
624.16
584.49
533.91
477.19
418.47
360.50
304.45
250.20
196.99
143.97
90.50
36.11
-19.44
-75.92
-132.27
-186.27
-234.61
-273.60
-300.34
-313.85
-315.51
-308.61
-297.24
-285.01
-274.35
-266.46
-261.73
-260.23
-261.75
-265.57
-270.31
-274.02
-274.84
-271.72
-264.83
-255.58
-246.22
-239.14
-236.16
-238.03
-244.10
-252.47
-260.60
-266.10
-267.69
-265.60
-261.30
-256.59
-252.52
-248.90
-244.36
-237.38
-227.24
-214.56
-200.94
-187.98
-176.30
-165.24
-153.31
-139.01
-121.06
-98.50
-70.62
-37.28
0.49
39.90
76.16
103.62
117.94
118.53
109.59
98.99
95.22
104.43
129.05
167.84
217.46
273.63
332.38
389.31
438.75
473.66
487.33
476.34
441.63
387.59
318.89
239.99
153.63
61.81
-32.52
-123.24
-199.42
-248.91
-263.15
-242.99
-195.68
-133.73
-71.53
-22.80
2.62
2.09
-21.65
-62.66
-116.10
-172.41
-219.77
-246.89
-247.69
-222.10
-172.10
-101.65
-16.02
74.98
165.82
253.26
334.90
406.20
445.14
433.32
368.39
290.47
217.91
158.98
110.64
75.06
53.77
46.26
51.91
67.61
87.30
99.85
100.49
90.99
78.30
68.89
66.34
72.28
85.32
102.02
115.86
125.20
131.85
138.49
144.75
147.30
142.67
128.24
102.88
65.09
17.11
-35.99
-86.87
-127.68
-151.01
-150.43
-122.86
-70.26
-0.94
73.98
142.99
196.90
230.43
243.03
238.26
221.44
197.23
167.94
134.47
97.35
57.96
18.59
-18.53
-52.54
-84.54
-116.91
-151.72
-189.35
-228.53
-267.52
-305.51
-342.81
-379.72
-414.57
-442.86
-457.95
-453.49
-426.13
-376.68
-309.26
-229.00
-140.21
-46.44
47.93
135.95
208.30
255.76
273.05
261.23
227.50
181.92
133.05
84.82
36.10
-17.26
-78.81
-148.32
-220.70
-286.93
-336.71
-361.62
-357.84
-327.56
-278.60
-221.95
-167.87
-122.76
-87.53
-58.84
-32.13
-4.73
22.37
45.25
59.35
61.98
53.28
35.63
11.98
-15.68
-46.45
-79.62
-113.70
-146.08
-173.84
-194.83
-208.20
-214.08
-212.74
-203.79
-186.05
-158.10
-119.30
-70.85
-16.44
37.96
85.48
120.36
140.02
146.21
144.62
142.65
146.42
158.40
176.46
194.97
206.91
206.69
192.03
164.72
130.08
95.57
69.13
57.12
62.54
83.93
115.37
147.94
172.18
181.08
172.48
149.93
121.33
96.12
82.15
83.68
100.97
131.07
169.19
209.55
245.61
270.67
279.01
267.47
236.64
190.39
133.97
71.87
6.24
-62.10
-131.47
-197.35
-252.50
-289.66
-305.00
-300.57
-283.95
-265.28
-253.15
-251.40
-258.07
-266.91
-270.07
-260.89
-236.04
-196.67
-148.34
-99.65
-59.46
-33.76
-23.35
-23.69
-27.24
-26.72
-17.81
-0.14
23.68
49.53
72.97
89.84
96.68
91.83
76.33
54.17
30.99
11.74
-1.56
-10.36
-17.98
-27.16
-38.24
-49.26
-57.50
-61.38
-61.29
-58.98
-56.19
-53.50
-50.08
-44.43
-35.26
-22.05
-4.89
16.00
40.78
69.89
103.68
141.69
182.36
223.14
261.33
294.75
322.43
344.67
362.28
376.09
386.14
391.73
391.87
386.03
374.56
358.69
340.26
321.14
302.68
285.28
268.38
250.71
230.87
207.78
181.05
150.83
117.52
81.41
42.48
0.63
-43.87
-89.98
-135.78
-178.98
-217.55
-250.36
-277.29
-298.87
-315.51
-327.04
-332.87
-332.33
-325.42
-313.26
-298.11
-282.79
-269.90
-261.07
-256.55
-255.20
-254.73
-252.16
-244.33
-228.58
-203.38
-168.86
-126.88
-80.34
-32.41
14.14
56.97
94.01
123.34
143.55
154.53
157.82
156.34
153.03
149.37
144.54
135.94
120.93
98.68
71.02
41.86
15.50
-5.16
-19.44
-28.67
-35.23
-41.37
-48.50
-56.93
-66.05
-74.80
-82.18
-87.64
-91.16
-93.30
-94.79
-96.26
-97.97
-99.65
-100.72
-100.48
-98.42
-94.42
-88.75
-81.96
-74.63
-67.11
-59.40
-51.31
-42.79
-34.27
-26.67
-21.01
-17.62
-15.66
-13.03
-6.92
5.34
25.50
53.92
89.50
129.79
171.04
208.33
235.88
248.13
241.39
215.35
173.84
124.01
74.15
31.20
-1.21
-23.08
-36.93
-46.10
-53.14
-59.26
-64.51
-68.61
-71.48
-73.42
-74.82
-75.84
-76.26
-75.66
-73.76
-70.72
-67.35
-64.97
-65.04
-68.68
-76.34
-87.61
-101.33
-115.99
-130.09
-142.61
-153.18
-162.12
-170.23
-178.34
-186.74
-194.72
-200.34
-200.77
-192.84
-173.89
-142.27
-97.88
-42.48
19.93
82.76
137.38
174.75
188.33
176.70
144.70
102.04
59.81
26.62
6.33
-1.75
-0.61
6.91
19.39
36.35
56.95
79.00
99.41
115.47
126.13
132.37
136.30
139.77
143.34
146.21
146.89
144.13
137.58
128.04
117.09
106.54
98.04
92.69
90.71
91.38
93.16
94.21
92.97
88.72
81.68
72.76
62.95
52.85
42.56
32.05
21.51
11.63
3.36
-2.64
-6.32
-8.29
-9.39
-10.18
-10.77
-11.01
-10.90
-10.80
-11.28
-12.57
-14.12
-14.59
-12.35
-6.33
3.34
15.24
27.17
36.93
42.99
44.80
42.51
36.70
28.01
17.18
5.09
-7.14
-18.22
-26.85
-32.04
-33.25
-30.45
-24.24
-15.66
-6.08
3.05
10.62
16.16
19.90
22.60
25.15
28.03
31.09
33.48
34.03
31.64
25.74
16.51
4.76
-8.29
-21.35
-33.35
-43.54
-51.59
-57.48
-61.52
-64.25
-66.36
-68.50
-71.13
-74.38
-78.01
-81.49
-84.17
-85.54
-85.37
-83.86
-81.59
-79.36
-77.96
-77.96
-79.45
-82.16
-85.66
-89.56
-93.66
-97.90
-102.13
-106.05
-109.25
-111.46
-112.62
-112.88
-112.16
-109.98
-105.29
-96.92
-84.03
-66.63
-45.67
-22.76
0.42
22.57
43.09
62.00
79.74
96.97
114.32
132.27
150.98
170.11
188.73
205.36
218.29
226.14
228.27
224.96
217.22
206.35
193.48
179.37
164.58
149.58
134.96
121.09
107.86
94.40
79.28
61.07
39.05
13.63
-13.78
-41.29
-67.20
-90.42
-110.53
-127.48
-141.26
-151.71
-158.46
-161.08
-159.24
-152.91
-142.45
-128.61
-112.48
-95.31
-78.20
-61.85
-46.53
-32.11
-18.42
-5.46
6.48
16.87
25.24
31.36
35.38
37.65
38.63
38.68
38.04
36.83
35.10
32.88
30.20
27.01
23.22
18.76
13.63
7.96
2.06
-3.67
-8.80
-12.96
-16.00
-17.93
-18.99
-19.52
-19.90
-20.38
-20.99
-21.45
-21.29
-19.95
-17.05
-12.55
-6.82
-0.59
5.36
10.41
14.28
16.98
18.75
19.88
20.63
21.16
21.60
22.00
22.41
22.87
23.33
23.69
23.73
23.11
21.42
18.27
13.44
7.09
-0.26
-7.80
-14.68
-20.32
-24.52
-27.44
-29.46
-31.00
-32.39
-33.81
-35.19
-36.21
-36.42
-35.26
-32.33
-27.56
-21.27
-14.09
-6.79
0.01
5.95
10.90
14.77
17.37
18.44
17.76
15.42
11.91
7.98
4.42
1.73
-0.02
-1.11
-1.92
-2.69
-3.39
-3.74
-3.41
-2.14
0.10
3.14
6.52
9.60
11.61
11.80
9.74
5.61
0.24
-4.95
-8.36
-8.61
-4.93
2.71
13.58
26.44
39.83
52.37
62.98
71.12
76.72
80.05
81.45
81.03
78.58
73.71
66.10
55.95
44.02
31.54
19.76
9.59
1.29
-5.38
-11.00
-16.10
-21.02
-25.89
-30.72
-35.58
-40.59
-45.95
-51.84
-58.40
-65.52
-72.92
-80.04
-86.07
-90.09
-91.14
-88.49
-81.76
-71.07
-57.10
-41.05
-24.43
-8.85
4.29
14.04
19.97
22.23
21.36
18.29
14.09
9.92
6.85
5.63
6.55
9.36
13.39
17.79
21.77
24.80
26.59
27.03
26.14
24.06
20.98
17.30
13.39
9.63
6.16
2.85
-0.69
-4.84
-9.81
-15.33
-20.60
-24.47
-25.86
-24.08
-19.18
-11.89
-3.35
5.37
13.60
21.09
27.81
33.50
37.60
39.31
38.03
33.67
26.74
18.14
8.87
-0.32
-8.93
-16.64
-23.15
-28.19
-31.60
-33.41
-33.91
-33.48
-32.46
-31.12
-29.64
-28.24
-27.25
-27.01
-27.78
-29.55
-32.03
-34.68
-36.80
-37.62
-36.53
-33.17
-27.55
-20.11
-11.65
-3.15
4.46
10.42
14.30
15.99
15.61
13.53
10.21
6.26
2.24
-1.31
-4.00
-5.64
-6.21
-5.87
-4.90
-3.60
-2.26
-1.11
-0.25
0.27
0.44
0.30
-0.13
-0.85
-1.87
-3.19
-4.80
-6.63
-8.50
-10.08
-10.88
-10.30
-7.79
-2.97
4.13
13.07
22.99
32.84
41.58
48.45
53.01
55.10
54.72
51.95
46.99
40.23
32.37
24.41
17.39
12.16
9.02
7.63
7.24
6.92
6.02
4.34
2.19
0.16
-1.27
-1.88
-1.92
-1.95
-2.56
-4.13
-6.69
-9.93
-13.31
-16.16
-17.84
-17.84
-15.84
-11.85
-6.23
0.37
7.14
13.28
18.22
21.56
23.17
23.01
21.22
18.10
14.18
10.08
6.41
3.51
1.42
-0.09
-1.29
-2.30
-3.09
-3.49
-3.41
-2.96
-2.41
-2.00
-1.91
-2.12
-2.56
-3.23
-4.25
-5.87
-8.24
-11.27
-14.54
-17.33
-18.77
-18.11
-14.99
-9.60
-2.68
4.72
11.49
16.78
20.19
21.69
21.50
19.88
17.08
13.34
9.01
4.57
0.62
-2.34
-4.06
-4.60
-4.32
-3.68
-3.06
-2.67
-2.50
-2.46
-2.46
-2.52
-2.80
-3.46
-4.68
-6.57
-9.15
-12.41
-16.23
-20.44
-24.71
-28.54
-31.36
-32.62
-31.95
-29.26
-24.83
-19.23
-13.22
-7.60
-3.07
-0.14
0.90
0.07
-2.37
-6.01
-10.35
-14.95
-19.50
-23.87
-28.04
-32.06
-36.00
-39.88
-43.72
-47.55
-51.46
-55.61
-60.15
-65.17
-70.64
-76.42
-82.23
-87.68
-92.16
-94.78
-94.28
-89.33
-78.93
-62.96
-42.48
-19.52
3.43
24.35
42.19
57.05
69.76
81.18
91.72
101.16
108.92
114.50
117.81
119.11
118.77
116.97
113.55
108.32
101.37
93.38
85.65
79.64
76.49
76.56
79.32
83.64
88.30
92.39
95.54
97.90
100.00
102.55
106.11
110.80
115.89
119.73
119.95
114.24
101.27
81.40
56.65
29.96
3.97
-19.89
-41.56
-61.71
-80.84
-98.70
-114.39
-127.19
-137.29
-145.79
-153.91
-161.97
-168.89
-172.91
-172.85
-169.24
-163.99
-158.93
-154.20
-147.77
-136.84
-120.19
-99.81
-80.55
-67.71
-64.03
-68.31
-76.09
-82.37
-84.23
-81.76
-77.02
-72.16
-68.00
-64.19
-60.28
-56.68
-54.58
-54.93
-57.40
-60.20
-61.05
-58.52
-52.87
-45.78
-39.10
-33.39
-27.11
-16.88
1.22
30.02
69.90
118.32
170.51
220.98
265.24
301.03
328.56
349.80
367.26
383.01
398.09
412.39
424.77
433.18
434.85
426.82
406.68
373.32
327.56
271.84
209.58
144.18
78.46
14.25
-47.40
-105.71
-159.90
-209.17
-253.05
-291.81
-326.58
-358.91
-389.78
-418.50
-442.14
-456.06
-455.53
-437.76
-403.49
-357.17
-305.68
-255.87
-212.20
-175.46
-143.33
-112.23
-79.58
-45.08
-10.65
20.74
46.81
66.80
81.37
91.44
97.50
99.26
96.26
88.75
78.12
66.68
56.81
50.03
46.75
46.48
48.36
51.67
56.02
61.31
67.42
74.05
80.50
85.81
88.93
88.92
85.19
77.62
66.63
53.17
38.62
24.52
12.33
3.11
-2.76
-5.52
-5.80
-4.41
-2.01
0.98
4.36
7.96
11.44
14.13
15.15
13.60
9.05
1.85
-6.88
-15.53
-22.61
-27.35
-29.84
-30.79
-31.03
-30.90
-30.17
-28.20
-24.46
-19.00
-12.48
-5.96
-0.39
3.72
6.40
7.94
8.61
8.44
7.31
5.27
2.73
0.42
-0.96
-1.08
-0.19
1.08
2.10
2.63
2.89
3.29
4.15
5.35
6.42
6.72
5.69
3.04
-1.27
-7.01
-13.74
-20.84
-27.50
-32.77
-35.75
-35.79
-32.61
-26.44
-17.91
-8.05
1.93
10.85
17.86
22.59
25.24
26.26
26.19
25.30
23.58
20.86
17.09
12.60
8.12
4.61
2.96
3.65
6.50
10.59
14.41
16.24
14.69
9.17
0.17
-10.92
-22.22
-32.13
-39.78
-45.25
-49.24
-52.64
-56.04
-59.49
-62.33
-63.23
-60.23
-51.06
-33.59
-6.68
28.95
70.18
111.72
147.54
172.86
185.79
187.84
183.15
176.83
173.16
174.12
178.94
185.00
189.05
188.20
180.29
164.03
139.24
107.11
69.76
29.31
-12.23
-53.24
-92.81
-130.84
-167.83
-203.88
-237.39
-265.29
-283.92
-289.31
-278.34
-249.86
-205.45
-149.35
-87.13
-23.66
37.09
92.06
136.40
164.62
174.81
170.91
160.62
151.57
149.62
160.15
180.25
204.34
225.88
239.05
240.02
227.99
201.34
163.64
120.33
75.73
32.50
-8.46
-46.86
-82.30
-114.16
-142.21
-166.85
-190.40
-216.71
-248.89
-288.18
-333.27
-380.70
-425.46
-462.16
-485.60
-492.82
-484.44
-464.10
-437.17
-408.36
-379.62
-349.41
-313.89
-269.12
-213.85
-150.58
-84.06
-19.03
41.82
98.53
152.92
206.67
259.64
308.98
349.53
375.34
381.98
368.56
338.64
299.76
261.15
230.74
212.36
204.74
202.71
199.90
191.72
177.16
158.66
140.17
124.71
112.66
101.66
88.14
69.51
45.86
20.16
-3.18
-20.60
-31.51
-39.02
-48.91
-67.08
-96.71
-136.71
-181.83
-224.56
-258.00
-278.13
-284.62
-279.74
-266.12
-244.88
-215.05
-174.68
-122.83
-61.05
6.17
72.39
130.70
175.20
202.04
210.31
202.84
186.40
170.46
164.18
172.61
194.05
220.46
241.00
247.09
236.18
212.20
182.87
155.59
134.54
120.33
111.64
107.47
108.02
114.09
125.50
140.18
154.44
164.43
167.80
164.69
157.66
150.46
146.26
146.07
148.09
148.26
142.01
126.23
100.75
68.29
33.04
-1.58
-34.54
-67.24
-102.10
-140.42
-180.88
-219.40
-250.36
-268.33
-269.66
-253.30
-221.02
-177.22
-128.43
-82.24
-45.31
-21.13
-8.22
-0.10
12.61
38.39
81.12
138.04
200.46
256.96
297.33
315.77
311.91
289.82
255.71
215.66
174.32
134.67
98.34
66.13
38.12
13.61
-8.80
-30.90
-54.31
-79.75
-106.82
-134.31
-160.89
-185.93
-210.18
-235.98
-266.36
-303.38
-346.24
-390.16
-427.14
-448.57
-448.69
-427.36
-390.73
-349.24
-313.88
-292.31
-286.85
-294.60
-309.32
-323.83
-331.90
-329.28
-313.91
-285.83
-246.90
-200.48
-150.85
-102.62
-59.99
-26.10
-2.46
11.43
17.75
19.72
20.55
22.56
26.64
32.35
38.60
44.41
49.54
54.49
60.20
67.54
76.97
88.37
101.23
114.86
128.63
142.06
154.69
165.92
174.75
179.71
179.18
171.96
157.87
138.10
114.95
91.12
68.97
49.92
34.39
22.00
12.16
4.30
-1.97
-6.92
-10.85
-14.13
-17.00
-19.60
-21.82
-23.51
-24.48
-24.63
-23.97
-22.58
-20.71
-18.79
-17.51
-17.66
-19.81
-23.95
-29.33
-34.55
-37.96
-38.21
-34.70
-27.67
-18.09
-7.26
3.55
13.36
21.56
27.85
32.11
34.34
34.65
33.25
30.54
27.08
23.59
20.77
19.14
18.83
19.61
20.96
22.31
23.34
23.93
24.18
24.11
23.64
22.49
20.41
17.28
13.23
8.55
3.54
-1.57
-6.63
-11.37
-15.27
-17.53
-17.18
-13.42
-5.92
4.93
18.10
32.12
45.51
57.04
65.81
71.17
72.59
69.73
62.63
52.07
39.60
27.31
17.26
10.79
8.08
8.17
9.43
10.24
9.59
7.31
4.01
0.78
-1.27
-1.27
1.16
5.77
11.75
17.81
22.51
24.57
23.26
18.81
12.53
6.72
4.06
6.70
15.27
28.44
43.24
56.26
65.16
69.82
72.42
76.30
84.15
96.26
109.97
120.48
122.72
113.39
92.46
63.19
31.07
2.18
-18.31
-27.01
-22.77
-6.69
17.71
44.70
66.90
77.10
70.46
46.22
7.99
-37.84
-84.67
-128.08
-166.68
-200.99
-231.49
-257.20
-276.13
-286.78
-289.72
-287.64
-284.11
-281.95
-282.04
-283.35
-283.95
-282.32
-277.98
-271.19
-261.88
-249.00
-230.30
-203.04
-165.12
-116.37
-59.31
0.69
56.64
102.16
132.91
147.36
146.88
135.89
121.12
110.12
108.87
120.19
143.86
176.35
211.98
244.78
270.94
289.28
299.69
300.27
287.11
257.71
212.64
156.63
97.74
46.17
11.17
-2.53
2.76
20.09
43.72
71.55
105.37
148.72
205.30
276.54
359.94
447.67
511.30
522.51
471.69
377.30
270.53
175.91
103.82
56.07
20.49
-11.93
-43.25
-71.64
-95.77
-118.72
-142.29
-169.43
-200.66
-234.54
-267.69
-296.55
-320.17
-341.22
-364.14
-390.45
-416.26
-432.90
-431.79
-407.63
-359.85
-292.41
-212.34
-128.75
-51.84
7.51
39.88
40.04
11.07
-34.68
-79.41
-106.45
-107.40
-84.81
-50.18
-17.72
1.70
4.36
-6.71
-24.91
-43.73
-58.72
-67.07
-66.47
-54.62
-30.78
2.25
37.26
64.66
76.68
71.37
54.02
34.67
23.28
25.33
40.31
63.61
90.06
116.73
143.25
170.09
196.46
219.58
235.77
242.53
240.07
231.31
220.29
210.23
201.94
193.68
182.48
166.23
145.39
123.10
103.64
89.97
81.88
75.97
67.66
53.85
34.58
12.69
-8.15
-25.81
-40.90
-56.20
-74.97
-99.34
-129.49
-164.04
-200.76
-237.12
-270.42
-297.65
-315.75
-322.25
-316.27
-299.01
-273.65
-244.37
-214.98
-187.82
-163.27
-140.26
-117.19
-92.93
-67.61
-42.70
-20.52
-3.37
7.28
11.29
9.81
5.00
-0.44
-3.46
-0.89
10.28
32.28
65.68
108.88
158.20
209.00
257.19
300.52
338.91
373.59
405.55
434.35
457.84
473.09
477.74
471.06
454.26
429.94
401.11
370.43
339.86
310.70
283.59
258.46
234.54
210.68
185.93
160.27
134.76
111.02
90.20
72.11
55.19
37.51
18.19
-1.77
-19.85
-33.56
-42.22
-47.88
-54.74
-67.28
-88.21
-117.38
-152.03
-188.20
-222.34
-252.31
-277.39
-297.44
-312.08
-320.14
-320.06
-310.69
-292.33
-267.33
-239.85
-214.89
-196.97
-189.00
-191.90
-204.95
-226.31
-253.53
-283.62
-313.18
-338.96
-358.56
-371.16
-377.22
-377.39
-371.01
-355.41
-326.55
-280.83
-217.41
-139.54
-54.49
27.87
97.39
146.03
169.67
169.15
150.00
120.85
90.79
66.57
50.92
42.79
39.35
38.47
40.23
46.46
58.90
77.32
98.78
118.85
133.67
141.70
143.93
142.60
139.38
134.34
126.26
113.94
97.63
79.32
62.04
48.43
39.79
35.78
34.81
34.68
33.19
28.59
19.96
7.44
-7.76
-23.97
-39.69
-54.19
-67.35
-78.96
-87.81
-91.56
-87.46
-73.78
-51.03
-22.15
8.46
36.53
59.37
76.22
87.71
94.87
98.30
98.00
93.92
86.66
77.70
68.93
61.67
55.89
50.18
42.60
32.06
19.32
6.79
-2.72
-7.57
-8.27
-7.33
-8.01
-12.81
-22.63
-36.75
-53.52
-71.22
-88.60
-104.97
-120.07
-133.74
-145.83
-155.98
-163.56
-167.79
-167.87
-163.39
-154.54
-142.17
-127.42
-111.30
-94.48
-77.30
-60.15
-43.60
-28.45
-15.40
-4.62
4.35
12.40
20.36
28.53
36.49
43.27
47.86
49.78
49.28
47.31
45.11
43.76
43.83
45.30
47.69
50.21
51.94
51.97
49.67
44.97
38.66
32.42
28.59
29.46
36.47
49.72
67.70
87.77
106.84
122.20
132.20
136.52
135.93
131.82
125.61
118.36
110.73
103.16
96.14
90.18
85.69
82.62
80.34
77.76
73.78
67.65
59.13
48.51
36.31
23.11
9.50
-3.83
-16.13
-26.73
-35.29
-41.91
-47.17
-51.72
-55.93
-59.66
-62.23
-62.72
-60.37
-54.87
-46.53
-36.12
-24.62
-12.99
-2.02
7.75
15.92
22.25
26.58
28.88
29.17
27.58
24.22
19.29
13.10
6.17
-0.76
-6.88
-11.49
-14.29
-15.45
-15.57
-15.42
-15.61
-16.44
-17.84
-19.52
-21.28
-23.16
-25.41
-28.34
-32.14
-36.68
-41.56
-46.18
-49.91
-52.23
-52.74
-51.24
-47.69
-42.24
-35.30
-27.40
-19.19
-11.29
-4.16
1.95
7.05
11.38
15.32
19.33
23.74
28.70
34.03
39.32
44.04
47.71
50.02
50.79
49.97
47.57
43.69
38.61
32.80
26.91
21.56
17.07
13.37
9.95
6.13
1.33
-4.64
-11.56
-18.81
-25.62
-31.20
-34.84
-35.99
-34.28
-29.64
-22.33
-13.00
-2.60
7.82
17.29
25.05
30.67
34.01
35.17
34.44
32.29
29.29
26.13
23.41
21.56
20.76
20.93
21.87
23.37
25.29
27.53
29.92
32.13
33.64
33.79
32.09
28.31
22.76
16.11
9.25
3.00
-2.13
-6.09
-9.20
-12.05
-15.27
-19.31
-24.27
-29.71
-34.69
-37.91
-38.13
-34.62
-27.56
-18.15
-8.20
0.37
6.17
8.63
7.98
4.93
0.22
-5.51
-11.90
-18.58
-25.05
-30.57
-34.33
-35.62
-34.14
-30.17
-24.57
-18.52
-13.26
-9.71
-8.30
-9.00
-11.44
-15.11
-19.46
-24.01
-28.33
-32.13
-35.27
-37.83
-39.98
-41.90
-43.64
-45.17
-46.41
-47.29
-47.66
-47.21
-45.39
-41.54
-35.14
-26.23
-15.54
-4.32
6.10
14.88
21.90
27.69
32.95
38.06
42.81
46.47
48.23
47.59
44.67
40.21
35.31
31.10
28.39
27.51
28.30
30.24
32.61
34.68
35.91
35.96
34.74
32.31
28.80
24.41
19.41
14.23
9.36
5.25
2.15
0.02
-1.40
-2.46
-3.45
-4.50
-5.60
-6.66
-7.60
-8.41
-9.11
-9.72
-10.31
-11.09
-12.44
-14.88
-18.80
-24.29
-30.85
-37.49
-42.88
-45.89
-45.89
-43.08
-38.35
-32.98
-28.16
-24.60
-22.44
-21.36
-20.91
-20.69
-20.54
-20.44
-20.31
-19.88
-18.75
-16.50
-12.95
-8.32
-3.14
1.93
6.33
9.78
12.31
14.06
15.19
15.75
15.75
15.22
14.34
13.38
12.66
12.33
12.27
12.11
11.36
9.65
6.90
3.43
-0.06
-2.81
-4.20
-4.01
-2.55
-0.49
1.31
2.02
1.09
-1.69
-6.15
-11.67
-17.25
-21.59
-23.36
-21.56
-15.86
-6.77
4.51
16.48
27.75
37.35
44.78
49.81
52.39
52.57
50.61
46.96
42.33
37.43
32.87
29.05
26.09
23.97
22.53
21.54
20.64
19.48
17.79
15.47
12.74
10.00
7.66
5.98
4.90
4.09
3.05
1.35
-1.20
-4.42
-7.85
-10.89
-13.01
-13.99
-14.02
-13.63
-13.51
-14.25
-16.08
-18.88
-22.10
-24.98
-26.68
-26.49
-24.00
-19.12
-12.17
-3.81
5.14
13.84
21.70
28.49
34.42
39.95
45.55
51.47
57.53
63.30
68.29
72.18
74.84
76.30
76.46
74.95
71.24
64.82
55.53
43.80
30.63
17.38
5.46
-4.08
-10.77
-14.69
-16.42
-16.73
-16.38
-15.98
-15.96
-16.70
-18.53
-21.77
-26.63
-33.07
-40.81
-49.39
-58.33
-67.30
-76.09
-84.54
-92.38
-99.12
-104.09
-106.48
-105.56
-100.90
-92.55
-81.14
-67.81
-53.99
-41.06
-29.99
-21.20
-14.55
-9.61
-5.96
-3.45
-2.09
-1.91
-2.72
-3.94
-4.78
-4.53
-2.86
0.05
3.58
6.88
9.11
9.64
8.15
4.64
-0.63
-7.21
-14.64
-22.49
-30.47
-38.47
-46.46
-54.39
-62.04
-69.02
-74.80
-78.78
-80.49
-79.65
-76.30
-70.76
-63.64
-55.64
-47.36
-39.00
-30.32
-20.65
-9.16
4.83
21.62
41.05
62.58
85.30
108.08
129.52
148.07
162.26
171.06
174.17
172.01
165.57
155.93
144.00
130.40
115.57
99.95
84.06
68.39
53.22
38.64
24.57
11.06
-1.65
-13.17
-23.17
-31.52
-38.35
-43.91
-48.40
-51.82
-54.11
-55.27
-55.47
-55.05
-54.38
-53.64
-52.76
-51.57
-49.93
-47.93
-45.78
-43.71
-41.68
-39.39
-36.34
-32.14
-26.79
-20.66
-14.51
-9.11
-5.07
-2.67
-1.91
-2.57
-4.36
-6.84
-9.46
-11.51
-12.22
-10.96
-7.39
-1.55
6.18
15.16
24.65
33.89
42.16
48.82
53.33
55.42
55.11
52.71
48.75
43.79
38.30
32.56
26.74
20.96
15.32
10.01
5.26
1.28
-1.68
-3.44
-3.74
-2.39
0.73
5.52
11.56
18.15
24.50
29.88
33.81
36.08
36.66
35.63
33.08
29.26
24.52
19.39
14.37
9.75
5.62
1.87
-1.57
-4.64
-7.17
-9.10
-10.62
-12.15
-14.06
-16.42
-18.90
-20.92
-22.04
-22.20
-21.82
-21.48
-21.61
-22.32
-23.45
-24.78
-26.15
-27.45
-28.40
-28.46
-26.97
-23.44
-17.94
-11.11
-3.88
2.88
8.70
13.46
17.11
19.35
19.68
17.64
13.26
7.21
0.59
-5.50
-10.43
-14.15
-16.99
-19.32
-21.31
-22.91
-24.01
-24.66
-24.98
-25.16
-25.28
-25.29
-25.17
-24.95
-24.78
-24.87
-25.35
-26.22
-27.36
-28.59
-29.64
-30.22
-29.97
-28.55
-25.74
-21.48
-15.89
-9.23
-1.80
6.09
14.08
21.71
28.42
33.58
36.76
37.85
37.18
35.36
33.03
30.66
28.41
26.19
23.88
21.58
19.56
18.20
17.69
17.89
18.34
18.44
17.64
15.61
12.30
7.89
2.77
-2.64
-7.94
-12.97
-17.75
-22.40
-26.91
-31.09
-34.59
-37.13
-38.70
-39.42
-39.29
-38.08
-35.54
-31.89
-28.17
-26.03
-27.04
-31.72
-39.11
-47.08
-53.23
-55.98
-54.97
-50.85
-44.58
-36.92
-28.32
-19.21
-10.28
-2.46
3.43
7.04
8.62
8.77
8.11
6.94
5.21
2.53
-1.52
-7.05
-13.66
-20.48
-26.52
-31.12
-34.32
-36.85
-39.71
-43.54
-48.32
-53.53
-58.65
-63.43
-67.60
-70.25
-69.28
-61.72
-44.99
-18.53
15.25
51.59
85.08
111.77
130.13
140.65
144.38
141.67
131.87
114.35
89.88
61.35
33.37
10.57
-4.05
-10.14
-9.73
-5.86
-1.11
3.28
7.40
11.84
16.86
21.89
25.62
26.66
24.10
17.67
7.38
-6.83
-24.92
-45.81
-66.33
-81.09
-83.84
-70.20
-40.15
1.03
44.41
80.75
103.93
112.63
109.44
98.54
83.28
65.34
45.49
24.93
5.98
-8.48
-16.47
-18.06
-15.44
-11.80
-9.77
-10.36
-12.85
-15.62
-17.31
-17.59
-17.26
-17.68
-19.95
-24.28
-29.79
-34.90
-37.94
-37.80
-34.29
-28.18
-20.77
-13.51
-7.54
-3.40
-1.15
-0.53
-1.28
-3.21
-6.08
-9.48
-12.75
-15.23
-16.61
-17.35
-18.53
-21.40
-26.66
-33.91
-41.66
-47.92
-51.16
-50.85
-47.68
-42.91
-37.67
-32.49
-27.18
-21.37
-14.89
-8.02
-1.33
4.78
10.44
16.35
23.47
32.48
43.36
55.25
66.85
76.97
85.08
91.46
96.90
102.06
106.93
110.76
112.40
111.00
106.49
99.66
91.77
84.17
78.05
74.52
74.52
78.68
86.78
97.40
107.90
115.19
116.66
111.03
98.53
80.49
58.74
35.18
11.63
-10.07
-28.02
-40.69
-47.34
-48.31
-44.98
-39.22
-32.74
-26.63
-21.25
-16.43
-11.86
-7.45
-3.38
-0.20
1.37
0.59
-3.19
-10.47
-21.48
-36.01
-53.15
-71.10
-87.29
-98.90
-103.74
-101.22
-92.64
-80.69
-68.26
-57.22
-47.84
-39.19
-30.15
-20.40
-10.71
-2.40
3.52
6.83
8.06
7.89
6.65
4.13
-0.07
-6.08
-13.52
-21.62
-29.53
-36.56
-42.37
-46.91
-50.48
-53.61
-56.92
-60.71
-64.77
-68.22
-69.89
-68.93
-65.32
-59.98
-54.40
-49.91
-47.24
-46.26
-46.08
-45.32
-42.37
-35.84
-25.03
-10.43
6.09
21.65
33.10
38.11
35.88
27.37
14.88
1.08
-11.79
-22.48
-30.79
-37.32
-43.22
-49.72
-57.77
-67.67
-78.77
-89.38
-96.95
-98.67
-92.54
-78.33
-57.88
-34.50
-11.78
7.77
23.41
36.06
47.31
57.94
67.19
73.39
75.23
72.78
67.32
60.70
54.33
48.75
43.69
38.44
33.05
28.85
27.90
31.64
40.18
52.45
66.82
81.11
92.45
97.74
94.60
81.95
60.07
30.53
-3.99
-38.24
-64.52
-77.23
-77.05
-69.12
-58.12
-46.13
-33.68
-21.15
-9.56
-0.64
3.83
3.38
-0.49
-4.81
-6.87
-5.74
-2.21
1.91
4.29
2.42
-5.55
-19.71
-37.96
-55.69
-67.46
-68.35
-55.95
-31.88
-1.89
26.67
45.96
53.19
50.51
42.68
34.30
27.77
22.89
18.11
12.35
6.03
1.04
-0.99
0.11
3.07
5.96
7.04
5.73
2.77
-0.20
-1.18
0.97
6.31
13.31
20.01
24.77
26.91
26.89
25.94
25.62
26.99
30.06
33.94
37.32
39.16
39.13
37.80
36.33
36.07
37.97
42.37
48.95
56.91
64.98
71.43
74.27
71.71
62.92
48.55
30.73
12.46
-3.36
-14.73
-20.92
-22.09
-18.78
-11.61
-1.45
10.12
20.64
26.83
25.83
16.37
-0.74
-22.73
-45.46
-64.29
-75.12
-75.37
-64.92
-46.44
-24.91
-6.07
5.58
8.25
3.16
-6.63
-18.00
-29.19
-39.93
-50.73
-61.79
-72.48
-81.63
-88.17
-91.63
-92.13
-90.06
-85.79
-79.56
-71.62
-62.31
-51.97
-41.02
-30.05
-19.91
-11.80
-6.78
-5.26
-6.74
-9.94
-13.64
-17.59
-22.78
-30.69
-41.83
-54.35
-63.58
-63.16
-47.03
-11.42
44.07
116.40
199.67
285.83
365.53
429.37
469.52
481.67
466.25
428.20
375.20
314.87
252.32
189.12
124.20
56.23
-13.91
-82.01
-141.32
-184.90
-208.48
-212.20
-200.52
-180.39
-158.61
-139.55
-124.70
-113.63
-105.63
-100.85
-100.22
-104.46
-113.01
-123.70
-133.48
-139.77
-141.41
-138.74
-133.07
-125.75
-117.42
-108.00
-97.14
-84.86
-71.94
-59.79
-49.95
-43.42
-40.33
-39.91
-40.87
-41.90
-42.03
-40.82
-38.30
-34.80
-30.79
-26.68
-22.76
-19.14
-15.84
-12.73
-9.76
-6.99
-4.60
-2.79
-1.68
-1.37
-2.05
-4.13
-7.99
-13.90
-21.70
-30.65
-39.56
-47.19
-52.78
-56.49
-59.24
-61.97
-65.31
-69.33
-73.79
-78.38
-83.04
-87.84
-92.64
-96.87
-99.21
-99.07
-97.63
-97.92
-103.40
-115.96
-134.60
-155.45
-173.22
-181.85
-177.80
-161.10
-134.57
-101.67
-64.56
-24.02
19.46
64.42
110.25
155.08
196.28
231.57
260.62
285.54
308.99
331.74
351.34
366.28
375.01
377.34
374.90
371.05
369.75
373.04
380.23
370.37
330.93
264.16
187.03
118.39
67.01
30.80
2.45
-24.77
-53.99
-81.87
-103.96
-117.63
-123.02
-121.92
-115.56
-105.02
-92.35
-80.21
-69.17
-59.15
-49.83
-41.34
-35.41
-33.70
-37.65
-47.65
-62.19
-76.17
-83.83
-80.83
-65.76
-41.48
-12.11
18.11
44.56
61.96
67.20
59.82
42.75
22.99
1.93
-20.39
-45.03
-73.57
-108.07
-146.86
-189.15
-234.41
-272.24
-292.72
-288.10
-256.70
-202.83
-134.95
-63.67
-0.24
46.96
74.67
83.38
78.48
64.96
47.25
29.47
15.47
8.06
9.15
19.18
35.48
53.95
70.35
80.69
82.65
77.17
67.74
58.63
52.60
49.94
48.07
43.85
35.45
22.71
6.75
-10.48
-26.63
-39.94
-50.05
-57.52
-63.06
-66.41
-66.78
-63.89
-58.69
-53.03
-48.68
-46.47
-45.64
-44.07
-38.63
-27.15
-9.60
11.96
34.63
55.74
73.49
87.03
92.64
88.30
76.01
60.44
45.29
32.03
20.79
11.91
6.53
5.70
9.71
17.31
25.75
31.81
34.08
33.07
31.24
31.86
36.76
46.46
59.39
72.26
81.42
84.82
81.42
71.20
55.68
37.50
20.26
7.24
0.42
-0.71
4.65
13.44
19.39
18.66
12.64
6.32
4.30
8.22
13.85
19.28
22.17
19.72
11.40
-1.06
-15.17
-29.96
-42.81
-54.10
-64.13
-74.36
-88.02
-107.00
-131.44
-160.47
-193.35
-229.40
-267.67
-304.99
-321.43
-303.94
-253.64
-184.98
-114.74
-53.74
-5.83
26.20
48.11
63.49
72.61
76.22
76.72
77.43
81.60
90.84
104.78
121.18
134.41
135.95
118.75
80.31
24.04
-40.28
-97.90
-133.72
-137.53
-108.06
-52.10
20.28
100.19
180.02
249.11
299.73
330.16
340.95
330.06
295.37
239.25
170.55
100.60
42.40
1.18
-21.70
-30.00
-31.45
-32.21
-34.97
-40.35
-51.70
-73.07
-103.21
-139.50
-177.63
-211.90
-232.92
-230.69
-188.02
-107.93
-13.32
65.96
108.85
114.44
86.70
33.38
-37.00
-114.10
-189.81
-253.18
-292.18
-298.30
-271.90
-224.94
-173.83
-136.98
-128.52
-155.53
-208.22
-265.45
-304.61
-311.31
-283.95
-226.76
-150.17
-67.16
7.63
70.23
123.42
172.74
222.45
274.81
336.06
408.93
489.18
562.11
617.02
646.41
647.29
620.78
542.13
413.64
265.38
151.75
71.08
9.94
-45.98
-102.43
-161.85
-223.79
-279.89
-321.19
-331.68
-305.76
-247.24
-173.31
-103.70
-51.58
-20.40
-3.18
8.52
18.96
24.67
25.57
24.26
25.06
30.70
40.17
49.66
54.03
46.89
22.83
-14.58
-55.93
-90.46
-111.07
-116.74
-112.43
-105.62
-103.62
-111.36
-127.55
-146.25
-159.82
-162.21
-141.55
-98.43
-43.09
9.60
48.38
70.24
78.96
80.80
80.65
80.29
78.02
73.58
68.68
67.21
71.55
80.89
89.14
88.56
73.39
41.83
-1.85
-50.60
-96.12
-132.26
-156.01
-166.72
-164.22
-148.37
-120.68
-78.65
-29.70
15.35
47.78
64.84
69.43
67.29
63.35
59.46
55.29
49.17
41.55
34.70
31.18
32.04
36.47
42.31
46.96
48.89
47.59
44.63
42.73
44.84
51.97
63.94
79.55
96.53
111.53
119.74
116.59
99.37
68.27
26.46
-20.58
-67.07
-108.69
-143.32
-170.59
-190.12
-200.18
-198.31
-182.99
-155.26
-119.28
-81.39
-47.85
-21.85
-5.05
3.73
7.69
10.24
13.69
18.60
23.96
28.12
29.69
27.97
23.35
16.55
8.05
-2.13
-14.00
-26.86
-38.83
-47.03
-48.68
-42.15
-28.01
-8.95
11.18
28.94
42.26
50.66
54.61
54.66
51.14
44.14
33.93
21.32
7.74
-5.05
-15.37
-21.98
-24.12
-21.28
-13.14
0.38
18.87
41.16
65.37
89.18
110.53
128.14
141.84
152.36
160.71
167.55
172.78
175.66
175.40
171.74
165.35
157.80
150.94
146.08
143.49
142.36
141.55
140.48
139.73
140.74
144.87
152.28
161.51
170.04
175.54
176.74
173.66
166.72
155.70
139.40
116.12
84.95
46.74
4.21
-38.90
-79.09
-114.04
-142.88
-165.81
-183.41
-196.09
-203.72
-205.66
-201.11
-189.65
-171.93
-150.07
-127.42
-107.77
-94.10
-87.61
-87.50
-91.42
-96.55
-100.62
-102.35
-101.30
-97.44
-90.68
-80.79
-67.75
-52.07
-35.03
-18.60
-4.87
4.50
8.80
8.45
4.72
-0.77
-6.59
-11.95
-16.63
-20.80
-24.69
-28.34
-31.70
-34.85
-38.10
-41.84
-46.24
-50.88
-54.92
-57.59
-58.76
-59.26
-60.45
-63.58
-69.25
-77.31
-87.21
-98.41
-110.47
-122.71
-133.73
-141.26
-142.63
-135.68
-119.78
-96.29
-68.29
-39.66
-14.05
5.85
18.59
23.67
21.34
12.54
-0.95
-16.35
-30.14
-38.90
-40.40
-34.49
-22.99
-8.74
5.86
19.69
32.78
45.27
56.44
64.42
67.03
63.08
53.29
40.10
26.59
15.07
6.22
-0.86
-7.70
-15.47
-24.25
-33.08
-40.55
-45.46
-47.30
-46.40
-43.65
-40.09
-36.53
-33.37
-30.66
-28.28
-26.27
-24.87
-24.45
-25.33
-27.45
-30.34
-33.25
-35.41
-36.26
-35.61
-33.50
-30.03
-25.23
-19.06
-11.64
-3.42
4.79
11.97
17.24
20.10
20.62
19.34
17.00
14.32
11.75
9.38
7.06
4.51
1.56
-1.75
-5.11
-8.03
-9.95
-10.39
-9.11
-6.17
-1.85
3.34
8.80
13.91
18.11
21.04
22.62
23.10
22.94
22.66
22.58
22.69
22.67
22.11
20.72
18.58
16.09
13.87
12.43
12.02
12.54
13.67
14.99
16.16
16.86
16.86
15.96
14.05
11.14
7.42
3.15
-1.45
-6.30
-11.43
-16.87
-22.40
-27.43
-31.04
-32.28
-30.47
-25.56
-18.17
-9.37
-0.36
7.91
14.89
20.42
24.57
27.40
28.91
29.02
27.73
25.15
21.62
17.66
13.86
10.78
8.83
8.17
8.68
9.96
11.47
12.68
13.21
12.88
11.74
9.95
7.60
4.73
1.23
-3.01
-8.08
-13.95
-20.44
-27.26
-33.89
-39.51
-42.99
-43.13
-38.98
-30.32
-17.90
-3.36
11.32
24.39
34.85
42.50
47.73
51.05
52.80
53.08
51.95
49.65
46.59
43.32
40.28
37.63
35.36
33.35
31.49
29.78
28.22
26.71
25.07
23.06
20.52
17.42
13.82
9.80
5.46
0.98
-3.24
-6.49
-8.03
-7.38
-4.82
-1.48
0.99
1.04
-2.07
-7.99
-15.43
-22.76
-28.63
-32.31
-33.60
-32.62
-29.56
-24.63
-18.22
-11.06
-4.14
1.53
5.27
6.91
6.78
5.39
3.19
0.46
-2.61
-5.74
-8.43
-10.07
-10.18
-8.61
-5.63
-1.85
2.07
5.61
8.49
10.60
11.87
12.27
11.80
10.63
9.20
8.07
7.84
8.82
10.95
13.78
16.67
18.99
20.25
20.26
19.04
16.79
13.84
10.65
7.80
5.89
5.41
6.59
9.23
12.79
16.53
19.71
21.82
22.72
22.55
21.66
20.45
19.25
18.26
17.59
17.24
17.11
17.05
16.87
16.38
15.47
14.14
12.44
10.41
8.02
5.16
1.70
-2.43
-7.12
-12.06
-16.83
-21.04
-24.49
-27.26
-29.64
-31.89
-34.10
-35.95
-36.75
-35.67
-32.01
-25.57
-16.78
-6.61
3.72
13.12
20.94
27.04
31.58
34.72
36.41
36.40
34.40
30.51
25.38
20.17
16.12
14.05
13.81
14.29
13.74
10.50
3.70
-6.42
-18.66
-31.27
-42.43
-50.48
-54.00
-52.11
-44.97
-34.40
-23.91
-17.62
-18.53
-26.82
-39.39
-50.99
-56.62
-53.93
-44.37
-32.42
-23.23
-20.05
-22.54
-27.05
-28.35
-22.22
-7.35
14.12
37.59
57.99
71.82
78.16
78.38
74.83
69.37
62.68
54.56
44.83
34.16
24.10
16.46
12.27
11.18
11.51
11.12
8.45
3.40
-2.70
-7.71
-9.72
-7.97
-3.21
2.68
7.43
9.31
7.64
2.95
-3.38
-9.61
-14.23
-16.33
-15.83
-13.37
-9.96
-6.60
-3.87
-1.68
0.61
3.82
8.56
14.91
22.33
29.86
36.42
41.10
43.46
43.66
42.53
41.37
41.50
43.84
48.46
54.53
60.69
65.57
68.33
68.86
67.54
64.60
59.62
51.25
37.80
17.98
-8.28
-39.48
-72.98
-105.56
-134.05
-155.64
-168.35
-171.56
-166.55
-156.48
-145.93
-139.47
-140.35
-149.64
-166.45
-188.82
-214.45
-240.83
-264.88
-282.63
-289.72
-282.84
-261.25
-227.29
-185.56
-140.92
-96.57
-52.90
-7.90
41.30
96.53
156.84
218.12
274.09
318.35
346.54
357.44
352.60
334.82
306.73
270.38
228.06
183.34
141.08
106.08
81.04
65.32
55.59
48.04
40.79
34.85
33.05
37.67
48.31
61.37
71.53
73.98
66.41
49.71
27.38
4.49
-13.68
-22.61
-19.61
-4.69
18.93
45.10
65.86
73.19
61.00
26.96
-26.27
-91.09
-156.19
-209.40
-240.93
-246.23
-226.97
-189.95
-143.76
-95.49
-49.21
-6.67
30.86
61.18
81.73
91.68
93.72
94.18
100.21
115.51
137.34
156.94
163.48
149.76
116.35
71.15
26.26
-7.70
-26.16
-31.75
-31.92
-34.71
-45.04
-63.29
-86.88
-111.79
-134.39
-152.21
-163.78
-168.35
-165.75
-156.35
-137.69
-110.39
-77.70
-44.52
-15.89
4.05
12.64
9.72
-1.31
-13.72
-19.83
-13.61
6.61
36.99
69.45
95.88
110.22
110.33
98.00
77.22
52.96
30.08
11.96
1.67
-0.78
0.22
-2.86
-17.71
-48.20
-92.27
-142.00
-186.51
-215.59
-223.39
-210.64
-183.46
-150.60
-119.34
-93.35
-72.50
-53.80
-32.89
-5.32
30.63
73.57
119.20
163.40
203.44
238.07
266.88
289.48
305.60
314.34
315.38
309.32
299.10
287.07
271.90
248.29
205.05
139.01
58.50
-16.54
-74.61
-112.68
-133.54
-143.27
-147.35
-147.26
-139.54
-120.27
-89.20
-52.17
-17.53
7.27
18.95
20.05
17.50
19.21
28.98
44.27
57.22
60.02
48.42
23.35
-9.75
-43.42
-70.88
-88.52
-96.28
-96.64
-92.00
-84.08
-74.06
-62.66
-49.79
-34.08
-13.30
14.58
49.72
89.85
130.11
164.42
187.97
199.36
201.28
198.79
196.57
196.61
197.58
196.07
188.80
174.53
154.56
131.91
109.76
90.49
75.50
65.41
60.17
58.97
59.97
60.44
57.53
49.37
35.53
16.92
-4.89
-28.41
-52.96
-78.76
-106.48
-136.60
-168.27
-198.64
-223.07
-236.47
-235.35
-219.42
-192.13
-159.39
-127.66
-102.18
-86.26
-81.51
-88.39
-106.60
-134.64
-169.69
-207.95
-245.76
-281.05
-314.46
-349.17
-389.34
-437.85
-493.89
-551.94
-602.69
-635.78
-643.44
-623.44
-579.80
-520.73
-455.26
-389.99
-327.71
-268.23
-210.45
-154.12
-100.41
-50.88
-6.20
34.64
74.11
115.15
160.08
209.98
264.20
320.66
376.37
427.91
471.62
504.16
522.55
524.71
509.97
479.42
435.58
381.56
319.99
252.77
181.82
110.20
43.06
-13.04
-52.03
-70.48
-68.61
-49.73
-18.62
19.76
60.31
97.07
122.83
130.31
114.63
75.91
20.06
-42.92
-102.32
-150.08
-182.14
-197.88
-198.48
-185.60
-161.13
-127.67
-88.86
-48.78
-10.80
23.43
53.99
81.83
107.82
131.98
153.84
173.20
190.73
207.65
224.90
242.13
257.39
267.76
270.42
263.85
248.27
225.39
197.73
167.95
138.20
109.95
84.09
61.16
41.57
25.67
13.68
5.37
-0.01
-3.58
-6.48
-9.33
-12.11
-14.31
-15.27
-14.61
-12.44
-9.33
-6.13
-3.77
-3.15
-5.10
-10.19
-18.10
-27.39
-35.72
-40.90
-42.44
-42.58
-46.04
-58.27
-82.99
-119.57
-162.73
-204.05
-234.99
-249.76
-246.82
-228.51
-199.63
-165.93
-132.38
-102.67
-79.04
-62.46
-52.89
-49.52
-51.00
-55.88
-62.83
-69.70
-73.21
-69.05
-52.84
-21.71
24.78
84.85
155.28
227.58
290.62
332.92
347.14
333.50
298.74
252.39
203.21
157.50
118.62
87.98
65.66
51.21
43.62
41.28
41.62
41.48
37.71
28.18
13.03
-4.23
-19.81
-30.12
-32.73
-27.42
-16.47
-4.34
3.86
3.91
-6.37
-25.48
-49.63
-73.53
-92.71
-105.22
-112.80
-118.99
-127.90
-143.10
-161.91
-182.20
-201.62
-218.51
-232.66
-246.21
-260.57
-275.04
-291.57
-303.47
-302.00
-279.79
-233.83
-166.60
-86.03
-0.11
85.17
163.35
225.47
262.36
268.39
244.30
205.10
160.85
120.84
92.77
80.97
84.30
99.12
119.61
139.30
152.88
156.01
148.18
131.54
109.46
86.12
65.39
49.81
40.45
37.01
37.31
39.96
44.16
49.24
54.71
60.11
64.81
68.31
70.65
71.84
73.06
75.66
80.04
85.31
89.67
91.03
87.99
80.24
67.88
51.88
33.12
11.85
-12.24
-39.28
-68.63
-98.63
-126.99
-152.01
-172.44
-187.86
-198.80
-206.51
-212.33
-216.93
-219.91
-219.87
-215.44
-205.06
-187.53
-162.57
-130.96
-94.18
-53.85
-11.68
32.89
75.84
110.28
130.35
135.03
128.55
117.53
107.69
101.85
99.11
96.93
93.54
88.95
84.59
81.99
81.75
83.76
86.76
89.93
91.91
92.05
91.09
91.05
94.12
101.49
112.80
126.19
138.15
146.79
151.85
154.52
156.55
159.18
162.30
164.42
163.23
158.30
149.80
138.81
126.86
114.77
101.94
86.29
65.16
36.54
0.06
-42.96
-89.95
-138.27
-185.99
-232.06
-276.29
-319.10
-361.33
-404.27
-449.74
-499.61
-554.69
-613.15
-668.85
-712.08
-732.66
-723.76
-684.81
-621.87
-545.23
-465.71
-391.34
-324.59
-263.42
-204.40
-145.37
-86.37
-28.80
26.06
77.84
126.93
175.50
226.58
282.20
342.64
406.80
473.64
543.13
615.88
680.26
720.85
723.64
682.51
602.70
497.41
383.11
275.47
186.12
123.41
84.82
65.72
60.36
63.00
67.64
69.27
64.35
50.68
24.93
-11.05
-51.43
-90.20
-123.49
-151.90
-178.09
-203.86
-228.60
-249.04
-260.37
-258.78
-248.11
-230.17
-208.33
-185.97
-164.72
-144.56
-123.82
-100.75
-74.66
-46.58
-17.60
11.25
39.59
66.97
92.97
117.69
140.29
158.61
169.73
172.03
165.26
151.09
135.94
121.43
108.51
97.26
87.32
78.32
70.25
62.57
54.37
44.84
32.13
17.45
3.77
-5.12
-5.93
2.86
19.91
41.45
62.57
78.41
86.40
86.00
78.56
66.89
54.27
43.13
34.25
26.27
15.67
-0.34
-23.25
-53.11
-87.28
-121.40
-150.77
-171.64
-182.08
-182.16
-173.13
-157.29
-137.38
-116.04
-95.62
-77.87
-63.77
-53.28
-45.40
-38.25
-29.99
-19.48
-6.70
7.24
20.60
31.95
40.94
48.66
57.43
69.88
87.85
111.64
139.55
168.28
193.85
212.79
222.99
224.17
217.48
204.93
188.76
170.82
152.38
134.08
116.28
99.46
84.53
72.79
65.47
63.01
64.47
67.47
68.89
65.93
57.11
42.71
24.50
5.12
-12.74
-26.89
-36.07
-40.05
-39.62
-36.31
-31.93
-28.13
-25.93
-25.90
-28.33
-33.40
-41.11
-50.97
-61.74
-71.56
-78.55
-81.49
-80.51
-77.28
-74.91
-77.34
-88.27
-110.01
-142.50
-182.98
-226.61
-267.90
-302.08
-326.11
-338.66
-339.57
-329.32
-308.75
-279.47
-244.16
-206.34
-169.59
-136.50
-108.11
-84.30
-64.81
-50.08
-41.33
-39.62
-44.77
-54.70
-65.81
-74.27
-77.44
-74.75
-67.36
-57.33
-46.52
-36.09
-26.49
-17.73
-9.51
-1.29
7.50
17.44
28.69
40.54
51.25
58.64
61.19
59.06
54.37
49.89
48.33
51.34
59.24
70.89
84.26
97.12
107.68
115.08
118.86
119.86
120.18
122.63
128.90
138.21
147.17
150.80
144.32
123.72
87.71
38.49
-18.11
-74.37
-122.34
-155.61
-170.56
-161.81
-130.17
-83.74
-34.68
7.70
40.50
66.43
90.22
114.01
137.44
158.09
174.19
183.43
186.13
183.78
177.78
168.87
157.18
142.78
125.38
105.25
83.64
62.79
44.57
29.65
17.35
6.13
-5.44
-18.59
-33.62
-49.82
-65.52
-79.20
-90.00
-97.86
-103.24
-106.59
-108.41
-108.98
-108.15
-105.30
-99.77
-91.23
-79.84
-66.24
-51.36
-36.34
-22.30
-10.08
0.03
8.32
15.65
23.28
32.61
44.74
60.26
79.03
100.27
122.59
144.04
162.08
173.95
177.28
171.13
156.79
137.80
119.27
106.26
102.30
108.31
122.51
141.14
159.59
173.71
180.59
179.07
169.68
154.17
134.74
113.27
91.12
69.62
50.74
37.30
32.34
37.55
51.69
70.05
85.34
90.12
79.47
52.78
13.26
-33.80
-83.33
-132.05
-178.89
-224.47
-270.19
-317.51
-367.28
-419.71
-473.66
-525.87
-570.72
-601.47
-612.65
-602.49
-573.62
-531.49
-482.65
-432.48
-383.73
-336.62
-290.19
-243.87
-198.01
-152.86
-106.64
-56.30
1.28
67.98
143.65
226.25
312.49
394.03
460.20
503.38
520.45
512.40
482.61
435.94
378.70
318.28
265.22
222.09
190.06
168.44
154.82
145.94
138.79
130.98
120.53
105.49
83.22
53.77
18.86
-17.41
-49.64
-72.60
-83.24
-81.84
-71.44
-56.58
-40.38
-24.72
-10.09
3.56
16.60
29.32
41.17
52.03
61.28
68.71
74.09
77.33
78.35
77.40
75.03
71.89
68.43
64.53
59.81
53.37
44.77
32.95
16.93
-3.85
-29.21
-58.17
-89.08
-119.40
-146.02
-165.58
-175.51
-174.80
-164.69
-148.49
-130.54
-114.92
-104.13
-98.81
-98.19
-101.31
-107.72
-117.51
-130.71
-146.58
-163.23
-177.96
-188.20
-192.43
-190.81
-184.95
-177.37
-170.56
-166.33
-165.31
-166.63
-167.95
-165.72
-155.76
-134.08
-97.83
-46.23
18.98
93.54
171.36
245.59
309.94
359.78
392.79
409.05
410.46
400.06
381.08
356.37
328.15
297.95
266.72
234.92
202.76
170.47
138.55
107.90
79.67
54.88
34.02
16.88
2.65
-9.61
-20.71
-31.13
-41.21
-51.27
-61.60
-72.21
-82.50
-91.18
-96.66
-97.76
-94.40
-87.84
-80.42
-74.62
-72.16
-73.28
-76.76
-80.57
-82.90
-82.86
-80.69
-77.16
-72.73
-66.93
-58.53
-46.33
-30.14
-11.27
7.65
23.67
34.39
38.57
36.02
27.26
13.30
-4.34
-23.49
-41.52
-56.02
-65.57
-70.24
-71.33
-70.58
-69.26
-67.76
-65.85
-63.22
-59.99
-56.72
-54.09
-52.44
-51.72
-51.66
-52.05
-52.84
-53.96
-54.96
-55.07
-53.45
-49.87
-45.08
-40.70
-38.48
-39.39
-42.99
-47.58
-50.80
-50.70
-46.43
-38.34
-27.32
-14.06
1.40
19.34
39.60
60.98
81.36
98.63
111.78
121.54
129.76
138.03
146.21
151.93
151.68
142.68
124.71
100.60
75.31
54.20
41.49
39.66
49.60
70.93
101.85
138.39
174.12
200.92
211.15
200.59
170.45
127.25
80.24
37.43
2.37
-26.40
-53.18
-81.58
-111.71
-139.75
-159.79
-166.79
-158.93
-138.50
-110.54
-80.72
-53.54
-31.44
-15.03
-3.83
3.02
6.33
5.99
1.52
-6.92
-17.67
-27.28
-31.65
-27.92
-16.02
0.99
17.04
25.53
21.90
5.15
-22.08
-55.26
-90.02
-123.54
-149.58
-162.50
-158.89
-139.80
-110.60
-77.40
-44.32
-13.21
14.98
39.48
58.56
70.53
74.95
72.48
65.67
58.14
53.13
51.30
52.43
54.35
54.33
50.54
41.86
29.49
16.25
5.37
-1.66
-5.13
-7.39
-11.78
-21.52
-40.76
-72.20
-116.25
-167.39
-218.51
-261.00
-287.29
-293.11
-270.22
-221.72
-160.56
-102.97
-59.77
-33.13
-18.52
-10.22
-4.80
-0.44
1.42
-0.24
-4.46
-8.03
-8.08
-3.06
6.70
19.20
33.83
48.58
61.95
73.71
85.32
98.94
116.80
140.78
168.81
202.30
241.79
286.41
332.99
376.02
408.34
423.00
415.44
373.92
299.71
204.99
108.08
24.47
-38.75
-81.97
-109.28
-125.27
-133.73
-135.78
-133.98
-132.69
-136.56
-147.55
-163.49
-177.88
-182.99
-173.36
-146.76
-107.24
-63.61
-26.65
-5.26
-1.21
-9.74
-23.47
-36.33
-44.64
-48.35
-49.32
-49.80
-50.88
-51.98
-51.92
-49.73
-44.97
-37.42
-27.08
-14.62
-1.32
11.84
24.90
38.54
53.70
70.98
90.29
108.20
123.19
134.47
142.17
146.90
148.39
144.85
133.46
112.32
81.90
46.06
9.94
-21.85
-47.29
-67.48
-84.71
-99.32
-108.02
-105.12
-86.12
-52.27
-11.90
22.61
40.07
35.10
10.59
-24.02
-57.31
-81.03
-93.13
-97.11
-98.37
-101.83
-109.53
-120.26
-130.48
-135.73
-131.75
-115.72
-87.39
-48.94
-5.67
36.19
71.65
98.68
118.09
132.39
144.01
151.00
155.08
158.03
161.76
167.30
173.53
176.15
169.03
147.43
111.03
65.61
20.19
-16.31
-38.78
-47.03
-45.07
-38.28
-30.91
-25.01
-20.60
-17.72
-16.81
-19.09
-24.33
-31.56
-39.23
-45.94
-51.01
-54.74
-58.55
-62.75
-68.70
-76.15
-83.79
-90.02
-93.49
-93.78
-91.31
-87.24
-83.01
-80.38
-80.74
-84.93
-92.17
-99.33
-101.24
-92.40
-69.69
-34.44
7.22
46.72
76.28
92.12
95.25
90.32
82.89
76.94
74.04
74.03
76.50
81.05
86.66
90.62
88.53
75.99
51.01
15.46
-24.62
-61.52
-89.26
-105.44
-111.99
-113.71
-115.78
-121.26
-129.70
-137.46
-139.31
-130.74
-110.05
-79.38
-44.00
-10.47
15.87
32.91
41.72
45.28
46.66
47.48
47.96
47.90
47.59
48.00
50.15
54.26
59.34
63.84
66.50
66.97
66.14
65.49
66.25
68.72
72.29
75.50
76.99
75.99
72.73
68.52
65.56
66.34
72.53
83.63
96.09
103.90
100.54
82.04
49.22
7.97
-33.01
-65.73
-86.18
-95.45
-98.33
-100.53
-105.84
-115.07
-126.73
-138.58
-149.21
-158.31
-166.51
-174.52
-182.75
-191.15
-199.95
-210.31
-224.00
-242.05
-263.27
-283.36
-295.86
-294.47
-275.66
-240.69
-195.32
-147.39
-103.70
-67.75
-39.26
-15.06
6.86
28.45
50.82
74.32
99.00
124.71
150.88
176.28
199.18
217.94
231.77
241.24
248.39
256.37
268.51
286.81
310.65
336.24
357.37
367.66
362.68
341.60
307.49
265.92
222.89
182.99
148.63
120.37
97.94
80.81
68.38
59.73
53.49
47.92
41.40
32.99
22.70
11.49
0.84
-7.89
-14.14
-18.49
-22.57
-28.60
-38.63
-53.87
-74.32
-98.83
-125.56
-152.39
-177.42
-199.26
-217.16
-231.09
-241.52
-249.14
-254.30
-256.71
-255.44
-249.41
-238.25
-223.00
-206.29
-191.57
-181.66
-177.28
-176.28
-174.01
-164.85
-144.51
-111.56
-68.06
-18.71
31.16
77.39
118.01
153.01
183.96
213.12
242.97
275.31
310.14
344.46
372.00
384.84
376.13
343.55
290.85
227.00
162.82
106.79
62.19
26.55
-5.99
-41.43
-82.75
-128.22
-171.52
-203.47
-215.28
-201.94
-165.23
-113.90
-61.58
-22.27
-5.33
-11.99
-34.95
-61.28
-76.73
-70.64
-39.12
13.85
77.85
139.50
186.89
213.80
221.14
215.97
207.24
201.32
199.23
196.73
187.31
165.47
129.48
81.98
29.20
-20.66
-58.76
-76.67
-67.68
-28.78
37.50
122.28
211.34
288.36
338.87
354.10
332.87
280.94
208.67
127.54
47.57
-24.54
-85.55
-135.71
-177.55
-214.90
-252.35
-294.39
-343.60
-398.83
-454.13
-499.04
-523.33
-520.77
-491.70
-443.10
-386.01
-330.44
-281.52
-238.87
-197.97
-156.14
-114.30
-75.87
-44.54
-22.55
-10.25
-7.47
-14.77
-32.06
-60.11
-98.47
-144.04
-187.28
-218.47
-231.64
-226.88
-217.19
-204.41
-183.83
-149.62
-95.83
-25.48
51.62
123.35
180.17
218.52
242.64
258.88
272.95
288.51
306.59
326.71
347.70
367.62
383.21
390.91
386.02
365.57
331.16
289.19
248.82
218.03
200.03
192.19
188.49
181.65
166.59
142.25
110.61
74.84
37.60
0.56
-34.88
-66.52
-91.97
-109.26
-117.74
-118.82
-115.48
-111.30
-109.15
-110.30
-114.02
-118.51
-121.80
-122.57
-120.66
-116.91
-112.66
-109.05
-106.49
-104.47
-101.93
-97.91
-92.19
-85.59
-79.69
-76.10
-75.76
-78.53
-83.40
-88.99
-94.20
-98.59
-102.32
-105.79
-109.22
-112.43
-115.02
-116.67
-117.55
-118.41
-120.39
-124.61
-131.69
-141.39
-152.57
-163.36
-171.52
-175.05
-172.72
-164.55
-151.99
-137.66
-124.52
-114.75
-108.63
-104.14
-97.34
-83.89
-61.06
-29.33
7.22
42.06
68.36
81.32
79.59
65.39
43.47
19.72
-0.15
-11.44
-11.12
1.64
25.14
55.42
87.17
115.21
135.77
147.21
149.87
145.50
136.49
125.82
116.93
113.36
118.05
131.94
152.94
175.66
192.69
197.12
185.32
158.50
122.44
85.56
55.97
38.80
35.18
42.49
55.97
71.18
84.97
95.73
103.03
106.96
107.51
105.29
101.37
97.00
94.36
95.41
101.08
110.86
122.68
132.86
138.66
138.24
130.95
118.84
105.13
93.03
84.86
81.61
82.00
85.61
92.24
101.52
114.75
133.03
156.18
182.47
209.11
231.98
250.09
264.34
264.56
244.14
201.31
140.67
71.82
14.29
-29.18
-60.70
-82.89
-97.70
-106.35
-107.93
-102.13
-90.34
-75.77
-63.98
-58.16
-59.49
-67.32
-77.75
-85.48
-85.85
-76.42
-57.83
-34.69
-11.71
6.74
17.41
19.72
15.05
5.48
-7.18
-21.75
-38.31
-56.07
-73.86
-90.51
-104.76
-115.70
-123.21
-127.58
-129.47
-129.78
-128.93
-127.34
-125.73
-125.01
-125.94
-128.75
-132.79
-136.68
-139.04
-138.95
-136.55
-133.17
-130.92
-132.20
-139.14
-152.87
-172.91
-196.75
-220.02
-237.11
-242.89
-234.97
-215.38
-190.59
-169.68
-161.15
-169.78
-194.95
-230.33
-266.03
-292.08
-301.64
-292.69
-267.59
-231.07
-187.90
-141.61
-93.12
-41.48
14.84
76.51
142.56
210.28
275.92
335.41
383.50
414.38
424.09
413.35
387.53
353.61
316.97
280.32
246.47
215.65
189.37
169.14
155.44
146.70
139.47
129.72
114.51
92.97
65.53
34.95
4.45
-22.24
-41.95
-53.15
-56.42
-54.03
-49.10
-47.31
-49.13
-53.43
-58.28
-62.26
-65.21
-68.12
-72.33
-78.70
-87.52
-95.59
-101.58
-105.56
-108.80
-113.00
-119.09
-126.32
-132.31
-134.17
-129.47
-118.49
-103.70
-88.91
-77.80
-72.40
-72.48
-75.81
-79.29
-79.87
-75.98
-67.10
-53.36
-35.29
-13.79
9.63
32.87
53.67
70.39
82.36
90.11
94.84
97.43
97.85
95.44
89.66
80.84
70.32
59.54
49.29
39.44
29.38
19.04
9.40
2.07
-1.71
-2.06
-0.68
-0.15
-2.68
-9.22
-19.18
-30.76
-41.35
-47.98
-47.66
-38.27
-19.55
5.96
33.19
56.17
70.49
75.36
74.07
72.33
75.34
84.94
98.54
109.96
111.53
96.50
60.81
4.14
-69.66
-152.69
-233.99
-301.75
-346.20
-362.23
-350.66
-317.33
-270.45
-217.68
-164.13
-111.94
-61.23
-11.57
37.14
84.25
128.56
168.27
201.13
224.68
237.07
238.00
229.23
214.36
197.70
182.86
171.79
164.64
160.35
157.40
154.28
149.62
142.20
131.07
115.97
97.65
77.84
58.66
41.69
27.32
14.74
2.68
-9.89
-23.18
-36.70
-49.71
-61.53
-71.58
-79.23
-83.63
-83.93
-79.55
-70.63
-58.15
-43.90
-30.29
-19.88
-14.84
-16.14
-22.84
-31.94
-39.01
-39.66
-31.30
-14.34
7.88
30.54
49.47
62.74
71.06
76.58
81.16
85.05
86.73
83.84
74.65
58.94
37.91
13.46
-12.74
-39.75
-67.11
-94.34
-120.54
-144.28
-164.02
-178.34
-185.90
-185.40
-175.77
-156.73
-129.31
-96.19
-60.89
-26.92
3.54
29.98
52.86
72.41
87.92
98.15
102.59
102.99
102.84
105.95
114.46
127.33
140.65
149.60
150.96
144.44
133.02
120.62
110.42
104.09
102.09
104.78
113.12
128.53
147.49
164.82
173.20
165.97
140.95
102.42
59.12
19.73
-11.21
-34.62
-54.27
-73.80
-93.51
-110.09
-118.89
-117.22
-106.39
-91.28
-77.95
-70.28
-68.89
-71.01
-72.48
-69.93
-62.25
-50.73
-38.32
-28.27
-22.83
-23.21
-28.88
-38.19
-48.62
-57.51
-62.71
-63.16
-59.31
-52.06
-44.61
-40.12
-40.52
-45.64
-53.39
-60.76
-64.99
-64.51
-59.19
-51.15
-41.06
-29.44
-16.47
-2.21
13.40
30.17
47.67
65.23
81.93
97.36
111.03
122.49
131.11
136.12
136.74
132.70
124.65
114.29
104.27
96.85
93.00
91.90
91.32
88.79
83.25
74.78
64.18
51.84
36.51
15.37
-14.62
-55.06
-104.83
-160.26
-216.26
-267.61
-309.47
-337.53
-348.10
-339.15
-311.79
-270.99
-224.66
-181.10
-145.99
-120.60
-102.32
-86.83
-70.49
-51.79
-31.25
-10.33
9.52
27.18
41.43
50.69
53.40
48.92
38.64
26.24
16.95
15.77
25.59
45.59
70.97
94.30
108.18
108.17
94.43
71.42
45.73
23.31
7.52
-0.92
-2.54
2.32
14.03
32.85
57.66
85.19
110.95
131.07
144.04
151.33
156.32
162.26
170.34
179.04
185.07
185.30
178.50
165.98
150.84
136.44
124.90
116.29
108.98
100.71
89.83
76.00
60.13
43.74
28.22
14.20
1.65
-9.78
-20.34
-29.94
-38.20
-44.73
-49.41
-52.60
-54.96
-57.28
-60.13
-63.82
-68.41
-73.81
-80.12
-87.60
-96.70
-107.72
-120.32
-133.23
-144.36
-151.45
-152.98
-148.86
-140.55
-130.48
-120.94
-113.11
-106.83
-101.31
-96.34
-93.02
-93.42
-99.10
-109.45
-121.16
-129.24
-129.23
-119.32
-101.14
-78.64
-55.84
-34.94
-15.81
2.70
20.99
37.51
49.46
54.53
52.85
47.37
42.50
41.72
45.61
51.74
56.19
56.15
51.67
45.66
42.19
44.12
51.41
61.08
68.73
70.66
65.26
53.12
36.09
16.13
-5.33
-27.15
-47.86
-65.31
-77.01
-81.16
-77.75
-69.04
-58.95
-51.63
-49.90
-54.27
-63.18
-73.98
-84.20
-92.45
-98.49
-102.89
-106.52
-110.21
-114.57
-120.09
-127.05
-135.43
-144.97
-155.41
-166.76
-179.56
-194.62
-212.36
-232.29
-252.45
-269.39
-278.96
-277.71
-264.53
-241.71
-214.52
-189.32
-170.91
-160.36
-154.38
-147.24
-133.63
-111.08
-80.78
-46.58
-13.26
14.84
34.56
44.36
44.17
35.82
23.16
11.52
6.07
9.75
21.80
37.91
52.78
61.73
62.72
56.83
47.40
38.64
34.23
36.40
45.72
63.24
89.48
124.42
166.64
212.56
256.89
294.15
320.73
336.60
348.18
363.87
390.41
429.13
474.71
517.49
547.82
560.09
554.54
540.14
528.62
530.55
551.99
593.22
650.09
716.51
786.60
832.92
833.05
772.43
651.24
485.13
298.17
113.21
-53.64
-193.75
-304.15
-382.14
-427.54
-443.06
-434.79
-411.89
-384.47
-361.15
-347.14
-343.66
-345.92
-347.29
-341.94
-327.07
-303.81
-276.21
-249.26
-227.02
-211.69
-201.74
-194.32
-186.76
-178.06
-169.33
-162.76
-159.82
-160.09
-161.35
-159.98
-153.49
-141.69
-126.62
-111.35
-98.13
-87.34
-77.75
-67.73
-56.26
-43.85
-32.03
-22.45
-15.96
-12.25
-10.07
-7.98
-5.07
-1.12
3.47
8.13
12.41
16.08
18.98
20.95
21.86
21.76
21.11
20.55
20.86
22.56
25.64
29.60
33.68
37.14
39.38
40.20
39.50
37.41
34.31
30.61
26.54
21.79
15.51
6.63
-5.52
-20.25
-35.59
-48.81
-57.50
-60.76
-59.52
-55.88
-52.01
-49.15
-47.12
-44.99
-41.82
-37.33
-32.06
-27.11
-23.53
-21.92
-21.94
-22.60
-22.64
-21.01
-17.42
-12.41
-7.16
-2.84
0.01
1.62
2.73
3.76
4.59
4.91
4.95
5.95
9.83
17.99
29.91
43.06
53.74
59.14
58.85
55.07
51.25
49.86
50.99
52.16
49.97
42.10
28.76
12.64
-2.60
-14.12
-21.10
-24.61
-26.55
-28.05
-28.96
-28.20
-24.74
-18.83
-12.09
-6.96
-5.31
-7.41
-11.57
-15.27
-16.53
-14.70
-10.76
-6.44
-3.10
-0.71
2.10
7.56
17.06
30.30
45.27
58.99
68.66
72.46
69.70
59.10
40.57
14.64
-17.22
-52.23
-86.18
-113.99
-131.08
-134.73
-124.93
-104.10
-76.46
-46.92
-20.07
0.64
13.26
17.67
15.47
9.41
2.78
-1.81
-2.94
-0.43
5.17
13.10
22.60
32.75
42.26
49.68
53.67
53.69
50.42
45.60
41.29
38.93
38.58
38.85
37.65
32.98
23.79
10.34
-6.02
-23.53
-40.74
-56.95
-72.28
-87.40
-103.10
-119.85
-137.60
-155.50
-171.70
-183.17
-185.99
-176.49
-152.99
-117.42
-75.82
-37.10
-10.24
-1.08
-10.31
-33.72
-64.26
-94.80
-119.98
-136.54
-142.73
-137.71
-121.76
-97.08
-68.28
-41.65
-23.17
-16.00
-19.03
-27.16
-33.13
-30.34
-15.01
12.95
50.43
92.46
133.72
169.61
196.96
214.21
221.22
218.91
208.74
192.22
170.62
144.99
116.40
86.20
55.97
27.07
0.29
-24.32
-47.28
-69.32
-90.93
-112.31
-133.43
-154.39
-175.38
-196.43
-216.82
-234.88
-248.11
-253.82
-250.06
-236.32
-213.57
-183.89
-149.67
-112.75
-73.85
-32.69
11.24
57.56
104.42
148.54
186.33
215.27
234.81
246.48
252.87
256.28
257.85
257.41
254.41
248.80
241.53
234.17
227.91
222.79
217.67
210.88
201.30
188.99
175.07
160.91
147.25
133.52
117.98
98.56
73.86
44.06
11.12
-21.53
-49.97
-70.93
-82.82
-86.28
-83.96
-79.66
-77.02
-78.26
-83.57
-91.13
-97.98
-101.06
-98.22
-88.69
-73.03
-52.71
-29.66
-5.98
16.36
35.62
50.51
60.38
65.31
66.13
64.24
61.32
58.99
58.49
60.41
64.68
70.72
77.82
85.52
93.92
103.68
115.64
130.39
147.76
166.59
184.90
200.40
211.25
216.57
216.49
211.92
203.84
192.74
178.23
159.21
134.47
103.41
66.49
25.33
-17.50
-59.01
-96.16
-126.33
-147.63
-159.22
-161.55
-156.24
-145.84
-133.19
-120.91
-110.92
-104.36
-101.55
-102.24
-105.66
-110.53
-115.09
-117.32
-115.58
-109.14
-98.66
-86.16
-74.38
-65.83
-61.94
-62.72
-67.04
-73.45
-80.85
-88.93
-97.85
-107.68
-117.81
-126.75
-132.52
-133.45
-129.04
-120.27
-109.54
-99.77
-93.29
-91.28
-93.72
-99.94
-109.14
-120.33
-131.53
-139.21
-138.84
-126.74
-102.24
-68.83
-33.21
-2.46
18.97
30.85
36.16
38.54
39.79
39.20
34.94
26.39
15.46
6.10
2.24
5.55
14.75
26.50
37.51
46.26
53.48
61.29
71.68
85.13
100.31
114.67
125.60
131.25
130.84
124.38
112.34
95.48
75.01
52.84
31.58
14.18
3.26
0.46
6.07
19.15
37.87
59.90
82.70
103.57
119.76
128.83
129.30
121.33
106.96
89.44
72.05
56.80
43.78
31.64
18.70
4.20
-11.20
-25.97
-38.78
-49.42
-58.81
-68.28
-78.45
-88.70
-97.37
-102.72
-103.94
-101.56
-97.16
-92.57
-89.12
-87.18
-86.17
-84.76
-81.15
-73.29
-59.18
-37.35
-7.55
28.68
68.03
105.95
137.71
159.54
169.33
166.71
152.69
129.17
98.66
64.25
29.60
-1.37
-25.20
-39.67
-44.42
-40.82
-31.33
-18.56
-4.55
9.23
21.68
31.60
37.71
38.97
35.03
26.49
14.73
1.22
-13.07
-27.97
-43.82
-60.85
-78.83
-97.05
-114.85
-132.19
-149.63
-167.83
-186.72
-205.11
-221.07
-232.92
-240.44
-245.03
-248.99
-253.79
-258.67
-260.51
-255.27
-240.04
-214.86
-182.87
-148.74
-116.64
-88.83
-65.84
-47.62
-34.54
-27.22
-25.29
-26.06
-24.61
-15.53
4.53
34.95
71.51
108.68
142.49
172.30
200.42
229.87
261.99
295.15
325.56
349.37
364.77
372.63
375.58
376.10
374.54
368.47
353.93
327.61
289.03
241.16
189.29
138.83
93.52
54.99
23.53
-0.62
-17.01
-25.77
-28.55
-28.68
-29.89
-34.29
-41.10
-46.93
-47.92
-42.35
-32.10
-21.84
-16.81
-20.55
-33.46
-53.58
-77.96
-104.60
-133.47
-166.45
-206.02
-253.81
-308.77
-366.22
-418.08
-454.38
-466.10
-448.18
-401.58
-333.17
-254.27
-177.67
-114.42
-70.98
-47.48
-38.96
-37.88
-37.61
-33.03
-21.12
-0.40
29.70
69.43
118.83
175.69
233.87
282.95
313.67
320.99
305.61
272.76
230.42
188.17
153.25
127.79
106.60
82.98
51.49
9.90
-39.81
-90.37
-129.14
-143.71
-127.90
-87.05
-31.23
29.09
85.88
134.59
164.23
167.69
146.34
124.65
110.15
104.69
105.30
113.05
127.58
145.40
161.44
169.71
165.26
144.39
102.78
49.49
-1.26
-41.17
-71.83
-98.04
-121.09
-136.52
-139.56
-127.36
-102.07
-73.45
-53.72
-49.77
-58.90
-72.11
-79.55
-77.07
-66.22
-51.69
-41.62
-42.56
-57.35
-84.07
-117.89
-153.66
-186.04
-209.25
-216.43
-205.05
-175.06
-130.50
-78.38
-26.73
17.82
51.86
75.99
95.32
112.53
130.19
148.64
166.55
182.32
195.10
205.33
205.68
208.40
211.69
214.25
214.13
209.55
199.49
183.67
162.49
136.46
107.30
73.97
37.65
0.49
-34.65
-65.02
-89.33
-107.47
-120.27
-127.87
-132.21
-132.96
-128.73
-117.73
-98.78
-73.24
-43.48
-12.65
16.17
38.02
49.27
48.15
35.48
14.36
-12.65
-42.34
-71.99
-100.07
-127.82
-157.00
-188.55
-221.56
-253.46
-282.97
-307.40
-323.16
-326.48
-315.68
-290.84
-253.49
-206.35
-139.92
-57.23
29.95
108.21
169.71
211.30
231.40
228.76
204.22
162.99
112.65
63.79
24.11
-2.11
-16.04
-21.78
-23.28
-22.26
-18.46
-12.92
-6.96
-2.36
1.10
2.55
2.70
3.61
7.15
13.34
18.90
20.32
15.67
5.57
-8.10
-21.61
-31.41
-35.90
-36.45
-36.87
-40.51
-48.34
-58.35
-66.89
-68.06
-56.12
-27.63
17.08
74.39
139.27
206.41
270.53
317.12
331.84
308.78
255.51
188.14
121.99
66.42
24.64
-4.26
-23.26
-33.95
-36.88
-32.97
-24.81
-16.31
-11.06
-10.89
-15.60
-23.50
-31.21
-35.57
-35.45
-32.37
-29.34
-28.83
-31.46
-36.03
-40.43
-42.05
-38.99
-30.96
-19.27
-6.05
6.70
17.43
25.22
29.34
29.88
27.69
23.81
19.01
13.50
7.05
-0.56
-9.00
-17.48
-24.94
-30.46
-34.04
-36.61
-39.46
-43.43
-48.48
-53.86
-58.79
-62.96
-66.44
-69.48
-71.92
-72.97
-71.57
-66.92
-58.97
-48.45
-36.94
-24.85
-12.67
-0.75
10.51
20.56
28.77
34.79
38.91
42.12
45.77
51.18
58.61
66.82
73.31
75.09
69.90
57.75
40.06
20.37
2.82
-9.24
-14.36
-13.12
-7.55
-0.18
6.82
11.70
13.31
10.79
3.87
-6.72
-18.90
-29.69
-36.29
-37.26
-33.45
-27.65
-23.25
-22.52
-25.43
-29.91
-33.38
-34.50
-33.91
-33.95
-37.18
-45.05
-56.76
-70.10
-82.43
-92.07
-98.85
-103.40
-106.58
-109.02
-111.29
-113.91
-116.77
-119.55
-120.31
-117.12
-107.38
-88.73
-59.81
-20.75
26.79
80.57
136.44
188.25
228.91
252.81
257.50
244.39
217.98
184.37
151.03
123.38
103.66
91.30
84.93
82.80
83.13
84.63
87.33
94.61
109.51
132.07
158.37
181.79
194.97
191.71
168.26
113.73
30.57
-64.68
-149.46
-207.62
-234.05
-232.52
-211.72
-182.07
-152.63
-126.75
-104.45
-84.38
-65.67
-48.35
-33.87
-24.51
-22.14
-27.01
-35.58
-44.06
-50.42
-54.81
-58.37
-62.12
-66.33
-70.59
-73.88
-73.06
-66.02
-52.28
-32.75
-9.04
17.00
43.05
66.22
83.68
95.07
101.35
104.56
107.09
110.97
117.31
126.04
135.86
138.71
129.47
107.21
75.13
37.85
-0.86
-37.31
-66.57
-82.98
-82.52
-64.55
-34.20
-1.12
25.23
39.19
39.66
30.08
15.98
2.15
-8.32
-14.74
-18.24
-19.78
-20.00
-19.06
-17.26
-15.91
-17.21
-22.88
-33.51
-47.89
-63.18
-75.76
-82.44
-81.48
-73.55
-61.47
-48.85
-38.47
-30.98
-24.99
-17.44
-6.72
6.36
18.59
25.91
25.61
17.58
4.25
-10.72
-23.94
-33.34
-38.08
-38.46
-35.47
-30.57
-25.43
-21.43
-19.27
-18.64
-18.57
-18.00
-16.52
-14.62
-13.36
-13.96
-17.07
-22.60
-29.75
-37.32
-43.63
-46.61
-43.89
-33.47
-14.76
10.80
39.62
67.03
88.86
102.76
108.66
108.09
102.83
93.68
80.42
62.60
40.93
17.87
-2.95
-18.34
-26.95
-29.71
-29.25
-28.39
-28.92
-30.44
-30.47
-25.57
-13.03
7.66
34.26
62.10
85.18
97.73
96.45
81.66
57.09
28.27
0.57
-22.02
-37.31
-45.09
-47.56
-47.98
-49.58
-54.28
-61.83
-69.51
-72.62
-66.37
-46.99
-16.01
18.58
46.47
61.87
65.92
64.15
62.54
64.62
72.39
81.80
87.96
87.46
79.35
65.12
47.97
31.72
19.29
10.81
5.40
1.73
-1.02
-2.53
-2.08
0.21
2.61
2.20
-3.68
-15.95
-32.60
-49.60
-63.09
-71.61
-76.68
-81.59
-88.99
-99.37
-111.14
-122.05
-130.94
-138.37
-145.75
-153.43
-159.41
-159.84
-151.22
-133.33
-110.62
-90.72
-80.84
-83.85
-96.33
-110.18
-116.49
-109.39
-88.31
-57.35
-22.89
9.17
34.67
51.28
57.89
54.60
43.52
29.26
18.41
17.60
31.00
58.29
94.26
130.48
158.43
173.05
173.42
161.81
141.49
115.14
84.66
52.28
21.95
-0.27
-7.18
5.26
34.95
73.26
108.37
130.29
134.82
124.53
106.87
91.63
85.32
88.84
98.21
107.73
113.22
113.33
108.85
101.60
95.10
91.88
92.59
96.29
101.84
108.75
116.62
124.48
119.73
94.75
51.87
2.36
-42.42
-76.51
-98.28
-107.79
-106.17
-96.11
-80.85
-65.78
-57.09
-59.52
-73.54
-94.91
-116.73
-131.71
-134.26
-120.27
-89.77
-47.77
-3.75
31.43
49.54
48.49
31.36
5.53
-18.98
-34.27
-37.70
-32.61
-25.81
-23.22
-29.08
-42.07
-56.59
-65.86
-66.40
-60.33
-54.26
-54.48
-62.62
-75.61
-86.55
-90.76
-87.92
-81.93
-78.70
-82.69
-94.11
-107.94
-116.24
-112.33
-92.75
-58.50
-15.11
27.33
56.67
64.43
50.40
23.81
-1.97
-14.59
-8.05
15.67
47.68
77.47
95.13
98.75
99.67
107.15
124.72
145.33
162.32
172.44
170.58
155.55
123.42
80.12
35.00
-2.81
-28.78
-43.30
-50.75
-56.12
-60.97
-63.50
-59.39
-47.99
-32.51
-18.71
-11.33
-12.51
-21.02
-32.40
-42.42
-46.43
-44.53
-40.27
-38.52
-42.88
-55.07
-74.84
-97.74
-120.34
-137.21
-143.31
-134.96
-111.57
-76.37
-36.18
0.81
28.36
43.87
49.68
50.04
48.77
47.60
46.19
43.43
38.93
33.79
29.61
28.06
29.36
32.32
35.00
35.66
33.61
29.44
24.56
20.46
18.50
19.17
22.06
26.06
30.05
32.97
34.83
36.66
39.94
45.89
54.46
63.77
70.30
70.16
60.39
40.03
10.46
-24.71
-60.03
-88.86
-104.76
-103.31
-83.44
-48.30
-4.56
39.07
73.46
91.24
89.37
69.24
36.20
-1.34
-33.92
-54.02
-58.57
-50.01
-34.96
-21.16
-13.02
-11.15
-12.60
-13.60
-11.97
-8.23
-4.71
-3.29
-3.90
-4.65
-3.33
1.26
8.23
15.00
18.72
17.80
12.70
5.65
-0.52
-3.95
-4.31
-2.81
-1.32
-1.27
-2.93
-5.38
-7.09
-6.86
-4.58
-1.22
1.54
2.11
-0.51
-6.08
-13.60
-21.59
-28.57
-33.64
-36.68
-38.24
-39.25
-40.50
-42.25
-44.12
-45.23
-44.60
-41.63
-36.23
-28.80
-19.96
-10.38
-0.71
8.35
16.02
21.60
24.65
25.22
23.77
20.88
16.77
11.02
2.72
-9.04
-24.56
-43.09
-62.64
-80.23
-92.45
-96.06
-88.90
-70.56
-42.65
-8.44
28.10
63.45
95.23
122.09
143.10
156.87
161.42
154.99
137.14
109.87
77.51
45.48
18.41
-1.33
-14.06
-21.89
-27.28
-31.73
-35.25
-36.97
-36.03
-32.55
-27.72
-23.25
-20.48
-19.70
-20.13
-20.50
-19.85
-18.02
-15.58
-13.32
-11.64
-10.32
-8.74
-6.37
-3.20
0.19
2.82
3.75
2.54
-0.59
-4.81
-9.04
-12.36
-14.47
-15.78
-17.25
-19.80
-23.83
-28.81
-33.47
-36.37
-36.69
-34.70
-31.70
-29.36
-28.80
-30.02
-32.00
-33.32
-33.20
-32.06
-31.56
-33.86
-40.71
-52.54
-68.29
-85.79
-102.59
-116.72
-127.24
-134.20
-138.61
-142.30
-148.03
-159.22
-179.01
-208.82
-246.80
-287.32
-322.09
-342.81
-344.02
-325.01
-289.68
-244.40
-195.25
-145.89
-96.92
-46.76
6.72
64.53
125.74
187.51
245.82
296.46
335.99
362.27
374.54
373.28
359.87
336.48
306.13
272.47
239.27
209.59
184.91
164.85
147.69
131.45
114.90
98.14
82.24
68.40
57.35
48.96
42.40
36.62
30.76
24.41
17.60
10.70
4.26
-1.15
-5.06
-7.22
-7.70
-6.83
-5.15
-3.25
-1.63
-0.54
0.03
0.38
0.94
2.20
4.53
8.15
13.01
18.88
25.47
32.56
40.03
47.70
55.24
62.18
67.97
72.27
75.19
77.28
79.28
81.76
84.75
87.78
90.14
91.30
91.18
90.15
88.68
86.95
84.65
81.17
75.95
68.86
60.29
50.93
41.38
31.90
22.39
12.67
2.82
-6.80
-15.71
-23.70
-31.03
-38.34
-46.19
-54.66
-63.17
-70.74
-76.55
-80.29
-82.28
-83.09
-83.17
-82.59
-81.08
-78.40
-74.61
-70.13
-65.61
-61.54
-58.09
-55.10
-52.23
-49.22
-46.02
-42.78
-39.67
-36.77
-33.96
-30.97
-27.44
-23.12
-17.89
-11.79
-5.10
1.73
8.06
13.17
16.44
17.56
16.70
14.47
11.70
9.12
7.06
5.42
3.84
1.99
-0.23
-2.73
-5.36
-8.16
-11.39
-15.38
-20.31
-26.00
-31.99
-37.70
-42.65
-46.64
-49.66
-51.84
-53.26
-53.97
-53.96
-53.20
-51.62
-49.09
-45.50
-40.72
-34.85
-28.17
-21.17
-14.39
-8.26
-3.07
1.06
4.14
6.29
7.76
8.89
9.98
11.09
11.99
12.08
10.75
7.57
2.62
-3.51
-9.78
-14.92
-17.66
-16.99
-12.28
-3.37
9.35
25.00
42.37
60.07
76.66
90.77
101.16
106.91
107.54
103.09
94.28
82.40
69.04
55.94
44.75
36.98
33.84
36.11
43.76
55.69
69.81
83.20
92.84
96.45
93.04
83.16
68.57
51.57
34.25
17.88
2.67
-12.22
-28.28
-46.87
-68.51
-92.30
-115.98
-136.48
-150.83
-156.92
-153.77
-141.47
-120.90
-93.64
-62.10
-29.54
0.34
24.22
40.14
48.26
50.65
50.23
49.53
49.62
49.88
48.61
43.92
34.66
20.71
2.92
-17.41
-38.91
-60.24
-80.05
-96.81
-108.79
-114.39
-112.73
-104.14
-90.26
-73.59
-56.51
-40.52
-25.85
-11.85
2.16
16.04
28.50
37.58
41.57
39.95
33.90
25.99
19.27
16.20
17.88
23.86
32.60
42.15
51.04
58.54
64.69
69.69
73.51
75.86
76.53
75.83
74.65
73.86
73.57
72.68
69.41
62.37
51.56
38.56
25.74
14.98
6.83
0.61
-4.82
-10.15
-15.39
-20.33
-25.28
-31.26
-39.53
-50.62
-63.81
-77.32
-89.18
-98.27
-104.60
-108.95
-112.05
-114.07
-114.66
-113.42
-110.48
-106.51
-102.34
-98.27
-93.81
-87.94
-79.95
-70.04
-59.36
-49.25
-40.37
-32.22
-23.56
-13.51
-2.34
8.51
17.27
23.02
26.27
28.60
31.50
35.32
38.96
40.68
39.32
35.14
29.73
25.03
22.33
21.74
22.45
23.54
24.62
25.94
27.89
30.44
32.77
33.58
31.75
27.04
20.33
13.32
7.81
4.95
4.84
6.68
9.15
10.97
11.33
9.98
7.22
3.71
0.20
-2.58
-4.18
-4.40
-3.28
-0.87
2.78
7.74
14.05
21.43
29.18
36.23
41.57
44.61
45.44
44.79
43.61
42.70
42.34
42.38
42.35
41.72
40.10
37.25
33.12
27.92
22.09
16.15
10.73
6.26
3.00
1.03
0.37
0.98
2.68
5.04
7.28
8.54
8.09
5.64
1.34
-4.35
-10.89
-17.88
-25.01
-32.00
-38.50
-44.16
-48.69
-52.03
-54.30
-55.77
-56.65
-57.05
-56.86
-55.71
-52.87
-47.20
-37.27
-21.69
0.45
29.09
62.99
99.79
136.29
168.84
193.83
208.36
210.95
202.22
184.91
163.25
141.58
123.01
108.52
97.11
86.78
75.66
62.83
48.28
32.43
15.66
-1.81
-19.52
-36.54
-51.31
-62.23
-68.26
-69.46
-67.01
-62.73
-58.43
-55.23
-53.36
-52.33
-51.34
-49.78
-47.40
-44.38
-41.10
-38.01
-35.40
-33.39
-31.89
-30.74
-29.75
-28.80
-27.93
-27.24
-26.87
-26.86
-27.32
-28.46
-30.75
-34.79
-41.02
-49.33
-58.99
-69.03
-78.86
-88.80
-99.78
-112.57
-126.66
-139.99
-149.51
-152.51
-147.81
-136.12
-119.41
-99.79
-78.64
-56.49
-33.60
-10.62
11.34
31.00
47.62
61.21
72.26
81.15
87.74
91.55
92.30
90.56
87.92
86.47
87.97
93.18
101.53
111.30
120.23
125.99
126.73
121.29
109.58
92.74
73.04
53.40
36.55
24.19
16.51
12.41
10.15
8.25
5.90
3.03
-0.14
-3.46
-7.01
-10.91
-15.14
-19.34
-22.94
-25.38
-26.40
-26.09
-24.83
-23.12
-21.39
-19.83
-18.37
-16.77
-14.76
-12.18
-9.17
-6.18
-3.85
-2.80
-3.40
-5.62
-9.10
-13.29
-17.68
-21.83
-25.43
-28.28
-30.30
-31.55
-32.29
-32.85
-33.55
-34.53
-35.70
-36.88
-37.82
-38.30
-38.08
-36.85
-34.29
-30.20
-24.74
-18.51
-12.48
-7.63
-4.58
-3.43
-3.82
-5.18
-7.03
-9.07
-11.21
-13.39
-15.51
-17.40
-18.88
-19.87
-20.47
-20.88
-21.38
-22.17
-23.28
-24.58
-25.81
-26.79
-27.57
-28.41
-29.63
-31.31
-33.06
-34.00
-33.04
-29.31
-22.48
-12.95
-1.72
9.90
20.63
29.32
35.09
37.37
36.00
31.44
24.82
17.78
12.13
9.21
9.43
12.22
16.43
21.08
25.93
31.52
38.56
47.12
56.15
63.67
67.63
66.96
61.94
54.06
45.12
36.53
28.88
22.19
16.43
11.83
8.87
7.94
9.08
11.76
14.99
17.44
17.71
14.62
7.69
-2.62
-14.79
-26.66
-36.04
-41.44
-42.50
-39.91
-35.04
-29.33
-23.98
-19.72
-16.85
-15.31
-14.81
-14.85
-14.88
-14.48
-13.49
-11.94
-10.03
-7.98
-6.05
-4.51
-3.63
-3.61
-4.35
-5.41
-6.16
-6.05
-4.93
-3.25
-1.80
-1.35
-2.23
-4.09
-6.12
-7.45
-7.53
-6.41
-4.63
-2.86
-1.54
-0.70
0.02
1.10
2.84
5.08
7.26
8.55
8.27
6.18
2.66
-1.38
-4.90
-7.08
-7.70
-7.25
-6.68
-6.86
-8.18
-10.27
-12.20
-13.06
-12.44
-10.77
-9.15
-8.87
-10.90
-15.52
-22.33
-30.41
-38.68
-46.03
-51.50
-54.34
-54.22
-51.43
-46.93
-42.08
-38.20
-36.09
-35.80
-36.79
-38.54
-41.16
-45.72
-53.89
-66.92
-84.37
-103.18
-118.00
-122.69
-112.58
-86.56
-47.84
-3.07
39.97
74.88
98.46
110.93
114.85
113.49
109.52
104.48
99.03
93.44
88.05
83.24
79.21
75.62
71.67
66.32
58.85
49.30
38.56
28.25
20.11
15.34
14.23
16.04
19.40
22.91
25.69
27.48
28.57
29.37
30.06
30.34
29.66
27.61
24.30
20.64
18.08
18.11
21.58
28.34
37.19
46.43
54.41
60.07
63.18
64.17
63.76
62.58
60.88
58.61
55.58
51.60
46.43
39.81
31.41
20.99
8.48
-5.92
-21.65
-37.79
-53.32
-67.39
-79.50
-89.52
-97.54
-103.79
-108.36
-111.15
-111.61
-109.28
-104.19
-96.95
-88.40
-79.16
-69.31
-58.40
-45.72
-30.08
-10.90
11.25
34.87
58.16
79.76
98.89
115.14
128.26
138.96
147.94
155.22
160.09
161.68
159.56
153.75
144.60
132.57
119.38
107.10
97.08
89.78
85.35
84.24
87.18
94.94
98.27
91.43
75.10
54.95
36.14
19.55
2.39
-18.85
-45.96
-75.92
-106.22
-133.05
-153.63
-167.44
-175.97
-181.49
-185.97
-190.70
-193.63
-192.81
-186.80
-176.05
-162.65
-148.89
-135.84
-123.13
-109.70
-94.86
-78.80
-62.02
-45.50
-30.18
-16.63
-5.15
3.72
9.11
10.27
7.25
1.67
-4.00
-7.38
-7.01
-2.63
4.96
14.41
24.41
33.83
42.06
48.57
52.77
54.06
52.09
47.06
39.84
31.90
24.71
19.41
16.31
14.82
13.76
11.96
8.76
4.22
-1.12
-6.63
-11.91
-16.81
-21.29
-25.07
-27.54
-27.95
-25.82
-21.18
-14.74
-7.56
-0.65
5.38
10.38
14.51
17.88
20.26
21.11
19.85
16.28
10.82
4.45
-1.69
-6.85
-11.07
-15.08
-19.91
-26.26
-33.99
-42.09
-48.99
-53.21
-53.83
-50.91
-45.30
-38.39
-31.60
-25.97
-21.99
-19.57
-18.24
-17.42
-16.64
-15.68
-14.46
-13.04
-11.42
-9.59
-7.46
-4.96
-1.99
1.52
5.68
10.52
15.87
21.27
25.98
29.20
30.35
29.39
27.03
24.56
23.40
24.68
28.74
34.98
42.00
47.96
51.13
50.37
45.54
37.48
27.78
18.24
10.18
4.10
-0.27
-3.66
-6.67
-9.47
-11.83
-13.36
-13.89
-13.57
-12.79
-11.96
-11.36
-11.08
-11.15
-11.56
-12.30
-13.24
-14.14
-14.71
-14.73
-14.12
-12.85
-10.85
-7.98
-4.14
0.53
5.52
9.99
13.02
13.99
12.87
10.22
6.97
4.04
1.99
0.86
0.34
-0.05
-0.67
-1.65
-2.84
-4.00
-4.87
-5.36
-5.50
-5.51
-5.73
-6.57
-8.46
-11.74
-16.45
-22.21
-28.17
-33.08
-35.57
-34.59
-29.77
-21.64
-11.53
-1.16
7.89
14.65
18.91
21.05
21.72
21.48
20.71
19.62
18.42
17.35
16.61
16.28
16.34
16.76
17.56
18.80
20.41
22.03
22.92
22.22
19.22
13.80
6.52
-1.54
-9.23
-15.72
-20.78
-24.74
-28.20
-31.57
-34.68
-36.88
-37.45
-36.11
-33.47
-30.74
-29.06
-28.63
-28.42
-26.54
-21.34
-12.43
-1.04
10.31
18.90
22.84
21.77
16.92
10.68
5.88
4.87
8.53
15.54
22.36
24.28
17.40
0.72
-22.55
-45.52
-59.63
-57.68
-36.36
2.40
51.89
102.39
143.73
167.73
170.07
150.93
114.75
68.77
21.13
-21.09
-53.30
-73.76
-83.26
-84.15
-79.35
-71.75
-63.79
-57.20
-52.76
-50.27
-48.62
-46.24
-41.75
-34.71
-25.96
-17.42
-11.26
-8.83
-9.88
-12.39
-13.17
-9.00
2.17
20.31
43.20
67.18
88.52
104.57
114.40
118.54
118.06
113.64
105.24
92.53
75.63
55.74
34.99
15.87
0.35
-10.67
-17.16
-19.56
-18.26
-13.61
-6.20
2.79
11.79
19.30
24.55
27.77
29.92
32.05
34.61
37.28
39.13
39.12
36.62
31.54
24.30
15.55
6.07
-3.41
-12.20
-19.85
-26.16
-31.24
-35.23
-38.05
-39.23
-38.13
-34.29
-27.82
-19.45
-10.43
-2.19
3.95
6.95
6.29
2.14
-4.56
-12.15
-18.68
-22.57
-23.24
-21.19
-17.71
-14.07
-10.99
-8.43
-6.02
-3.58
-1.54
-0.82
-2.31
-6.31
-12.19
-18.54
-23.66
-26.09
-25.11
-20.78
-13.84
-5.35
3.54
11.89
19.05
24.77
29.10
32.25
34.42
35.65
35.83
34.83
32.78
30.16
27.71
26.11
25.63
26.03
26.70
27.13
27.16
27.15
27.77
29.61
32.91
37.39
42.46
47.38
51.48
54.21
55.10
53.62
49.31
41.87
31.28
17.90
2.43
-14.26
-31.25
-47.68
-62.91
-76.66
-89.18
-101.22
-113.66
-127.03
-141.00
-154.49
-166.26
-175.56
-182.26
-186.47
-187.87
-185.49
-178.26
-165.93
-149.76
-132.28
-116.32
-103.70
-94.58
-87.67
-81.26
-74.14
-65.95
-56.94
-47.46
-37.55
-26.93
-15.16
-1.70
13.85
31.42
50.13
68.33
84.13
96.29
104.85
111.05
116.64
122.72
128.87
133.28
133.87
129.49
120.57
108.81
96.06
83.61
71.67
59.47
46.01
31.00
15.44
1.34
-9.01
-14.22
-13.96
-9.07
-1.23
7.81
16.89
25.47
32.97
39.14
41.31
36.25
22.89
3.65
-16.67
-33.17
-42.75
-44.98
-41.64
-35.64
-29.29
-23.69
-18.98
-15.02
-11.77
-9.30
-7.64
-6.54
-5.71
-4.81
-3.58
-2.15
-1.00
-0.55
-0.86
-1.59
-1.94
-1.37
0.25
2.51
4.57
5.51
4.81
2.66
-0.59
-3.89
-6.76
-9.52
-13.01
-18.24
-26.02
-36.86
-50.18
-65.96
-82.47
-96.31
-102.79
-97.62
-79.06
-49.45
-14.88
17.06
40.18
52.29
55.15
52.78
49.02
45.77
42.88
39.42
35.02
30.36
26.90
25.69
26.59
28.37
29.44
28.45
25.20
20.54
15.86
12.56
11.38
12.14
13.83
15.17
15.08
13.29
10.23
6.98
4.56
3.69
4.44
6.24
8.11
9.06
8.61
6.87
4.56
2.73
2.37
4.03
7.52
12.16
16.76
20.37
22.57
23.65
24.47
26.01
29.05
33.91
40.35
47.61
54.35
58.78
58.98
53.74
43.31
29.77
16.46
6.62
1.92
1.58
2.80
2.30
-1.95
-9.91
-19.68
-28.91
-36.01
-40.60
-43.40
-45.32
-47.09
-48.82
-50.04
-49.41
-44.98
-34.46
-16.14
9.60
39.80
69.27
92.64
106.29
109.73
105.32
96.66
86.81
76.58
65.11
50.99
34.20
16.56
0.69
-11.56
-20.27
-27.13
-35.05
-46.33
-61.83
-80.22
-99.03
-116.63
-133.51
-152.01
-170.18
-186.34
-198.31
-204.68
-204.97
-199.69
-189.52
-174.18
-151.65
-118.76
-73.89
-15.27
49.15
105.69
143.25
159.86
161.88
158.50
156.58
160.75
167.66
171.82
169.36
159.22
142.74
122.41
100.84
78.27
55.79
33.58
11.10
-11.88
-34.71
-55.96
-74.12
-88.29
-98.56
-105.86
-112.11
-118.95
-126.42
-133.07
-136.86
-136.90
-134.17
-131.04
-130.03
-132.86
-139.59
-148.89
-159.02
-168.67
-177.01
-183.16
-185.58
-181.98
-170.71
-151.66
-126.41
-97.64
-67.96
-39.14
-12.22
12.04
32.78
48.79
59.19
64.16
65.07
64.23
64.02
66.04
70.79
77.77
85.80
93.47
99.63
103.90
106.76
109.85
115.35
125.23
140.19
159.16
179.67
198.71
213.76
223.57
228.30
228.77
225.86
219.88
210.60
197.82
181.76
163.24
143.47
123.77
105.12
88.12
72.97
59.58
47.68
36.89
26.82
17.23
8.09
-0.46
-7.98
-14.00
-18.11
-20.22
-20.59
-19.85
-18.78
-18.16
-18.63
-20.54
-23.94
-28.58
-33.79
-38.48
-41.23
-40.76
-36.42
-28.71
-19.24
-10.24
-3.65
-0.36
-0.01
-1.45
-3.59
-6.00
-8.99
-13.18
-18.75
-25.08
-30.92
-35.12
-37.23
-37.83
-38.05
-38.93
-40.83
-43.21
-45.00
-45.20
-43.34
-39.56
-34.32
-28.00
-20.62
-11.85
-1.32
11.08
24.97
39.54
53.76
66.70
77.78
86.73
93.78
99.48
104.53
109.36
113.86
117.29
118.46
116.15
109.61
99.03
85.64
71.19
57.25
44.47
32.57
20.65
7.73
-7.21
-24.77
-44.94
-66.90
-88.93
-108.63
-123.34
-131.05
-131.24
-126.10
-118.99
-112.42
-106.53
-99.22
-87.76
-70.56
-48.39
-24.34
-4.49
5.83
4.51
-6.53
-23.04
-40.78
-56.71
-69.29
-78.06
-86.13
-96.38
-109.13
-121.30
-128.51
-127.86
-119.02
-104.43
-88.32
-79.41
-85.37
-109.46
-149.27
-199.39
-255.12
-313.19
-371.88
-405.44
-393.97
-334.65
-245.16
-149.23
-62.52
8.73
64.16
105.22
134.21
150.23
153.36
146.45
135.36
125.94
119.53
116.19
113.86
110.02
99.67
79.10
48.24
11.91
-18.84
-35.40
-32.42
-10.01
26.35
65.69
96.98
113.70
116.18
109.70
100.13
91.78
85.87
81.50
76.36
69.06
59.97
50.98
44.04
39.52
36.84
34.77
32.39
29.13
25.61
22.24
20.07
20.15
22.80
27.83
34.56
41.99
48.94
54.33
57.27
57.52
55.49
52.07
48.67
47.11
49.09
55.39
65.03
74.75
79.64
74.52
56.11
24.90
-14.16
-53.11
-83.77
-100.62
-102.54
-92.54
-76.01
-57.23
-40.25
-27.35
-18.90
-14.10
-11.86
-11.48
-12.64
-15.01
-17.36
-17.90
-14.57
-5.86
8.24
26.14
45.05
61.65
73.29
75.35
63.63
36.93
-1.11
-43.19
-80.97
-107.03
-116.39
-109.62
-87.49
-52.81
-10.60
32.85
71.88
102.73
124.59
135.69
133.22
118.97
97.47
74.10
53.10
36.38
23.43
12.20
-0.00
-14.97
-32.46
-50.45
-65.20
-73.20
-71.46
-59.47
-40.05
-18.58
-0.41
11.62
17.67
20.41
23.23
28.52
36.29
44.56
50.26
51.27
47.53
40.68
33.17
27.24
24.14
23.69
24.53
25.01
24.13
22.20
20.28
19.44
19.99
21.33
22.23
21.56
18.87
14.81
10.68
7.67
6.20
5.77
5.34
3.90
0.94
-3.40
-8.58
-13.97
-19.17
-24.07
-28.59
-32.59
-35.79
-37.92
-38.91
-39.17
-39.57
-41.38
-45.92
-54.06
-65.70
-79.51
-93.03
-103.12
-106.82
-102.32
-89.83
-71.63
-51.46
-33.12
-19.10
-10.00
-4.66
-1.26
1.49
3.31
2.73
-1.71
-10.06
-20.58
-30.61
-37.82
-41.49
-42.57
-43.85
-48.57
-59.49
-77.61
-101.60
-128.03
-151.06
-163.20
-156.92
-128.24
-78.66
-15.89
48.57
102.83
137.80
149.73
140.73
117.54
87.78
57.66
29.69
3.15
-20.84
-41.75
-59.03
-75.53
-87.52
-91.38
-82.92
-64.04
-40.32
-18.08
-1.60
8.54
15.31
23.54
36.91
56.96
81.60
106.33
126.15
138.02
141.63
142.34
142.61
141.88
138.22
129.43
115.14
95.44
73.74
54.17
38.36
27.02
19.29
13.12
5.63
-5.14
-19.29
-34.79
-48.80
-58.69
-62.82
-60.58
-52.28
-39.28
-23.79
-8.89
2.35
7.34
5.11
-3.31
-15.31
-27.92
-39.00
-47.62
-53.48
-55.92
-53.61
-45.00
-29.52
-8.63
14.11
33.92
47.12
51.76
48.38
39.79
29.99
22.59
19.84
22.15
28.36
36.35
43.73
48.46
49.32
46.19
39.24
28.63
14.49
-2.68
-21.65
-39.02
-51.93
-58.53
-58.10
-51.85
-42.22
-31.83
-22.40
-14.24
-6.86
-0.21
4.00
4.70
0.93
-6.31
-13.40
-15.22
-7.70
9.67
33.60
55.74
69.05
70.49
61.59
46.50
29.26
12.85
-0.61
-9.41
-11.98
-7.00
4.64
19.17
30.98
35.18
30.82
22.46
18.56
27.80
55.19
99.08
151.61
202.11
239.96
256.81
250.85
226.74
192.47
155.33
118.66
81.55
41.05
-4.91
-55.52
-106.99
-155.13
-197.50
-234.42
-268.25
-301.63
-335.87
-370.94
-406.12
-440.88
-475.38
-509.50
-541.20
-565.49
-575.55
-565.13
-531.52
-477.03
-407.96
-332.20
-256.56
-185.42
-121.02
-64.73
-17.68
19.56
48.12
71.61
95.33
124.08
159.81
201.01
243.76
283.82
318.42
347.30
372.85
398.81
428.38
462.53
499.20
533.39
558.55
567.48
554.79
519.66
466.61
403.59
338.82
278.07
222.86
171.40
119.38
63.67
5.47
-49.26
-93.27
-121.67
-133.67
-131.98
-120.25
-103.06
-85.02
-70.37
-62.44
-64.80
-80.67
-111.03
-156.61
-205.85
-242.26
-258.03
-258.21
-251.67
-244.49
-237.48
-227.46
-209.62
-180.07
-141.95
-100.65
-63.86
-37.11
-21.85
-14.52
-8.24
3.19
21.88
43.22
59.18
56.82
31.64
-12.60
-65.67
-114.88
-149.72
-164.55
-159.94
-140.57
-112.19
-78.15
-39.75
2.69
48.55
95.69
140.21
176.21
196.77
195.88
172.22
130.64
81.77
39.46
16.35
20.24
52.10
106.32
172.59
238.97
294.72
330.63
340.25
320.27
273.47
210.66
148.60
104.09
87.08
98.26
127.38
158.38
174.58
165.79
131.39
77.83
13.95
-54.15
-120.31
-181.04
-225.56
-246.21
-243.95
-225.67
-199.86
-174.22
-160.44
-158.67
-165.84
-177.29
-189.93
-201.31
-209.26
-207.31
-191.12
-163.67
-125.86
-79.35
-25.94
31.26
90.44
151.37
203.78
253.19
275.43
254.94
194.39
114.64
38.97
-17.08
-48.88
-65.13
-74.63
-89.73
-113.99
-145.50
-176.06
-200.21
-213.18
-210.71
-190.64
-142.62
-76.50
-11.85
35.40
62.01
72.89
75.10
73.68
70.27
65.22
55.55
43.45
34.50
32.88
37.27
42.15
41.37
31.48
14.57
-5.22
-20.39
-24.13
-14.79
2.91
21.40
34.54
40.15
40.21
37.24
34.10
32.85
33.66
35.08
35.77
35.55
35.17
35.80
37.62
39.77
41.53
42.38
42.45
42.61
43.61
44.81
43.52
36.15
19.23
-7.34
-39.98
-72.79
-100.19
-118.78
-127.63
-126.83
-115.27
-93.50
-62.84
-27.80
3.63
22.74
24.17
8.79
-16.15
-40.14
-53.78
-51.63
-34.72
-8.50
18.63
38.22
44.53
36.81
19.42
-0.20
-14.53
-19.80
-17.65
-13.74
-13.94
-20.76
-31.73
-41.19
-43.50
-35.77
-19.16
2.06
22.05
35.22
37.13
25.72
2.39
-27.48
-54.92
-69.91
-65.41
-40.96
-3.49
35.11
62.77
71.85
61.71
38.14
9.99
-14.60
-30.35
-34.99
-28.35
-11.51
13.52
42.29
68.58
87.51
96.59
95.69
86.84
73.38
58.95
46.44
37.72
33.62
33.76
36.47
40.17
44.02
47.73
51.44
53.11
49.86
39.13
20.29
-4.79
-31.81
-55.79
-73.01
-82.17
-84.29
-81.27
-74.91
-66.63
-58.16
-51.41
-48.16
-49.13
-53.37
-58.65
-62.31
-62.74
-58.31
-50.27
-41.45
-34.74
-31.55
-30.97
-30.08
-25.06
-13.23
5.36
27.08
46.08
56.45
54.37
39.32
13.84
-17.53
-49.90
-78.96
-101.74
-116.08
-120.29
-112.93
-93.29
-62.25
-22.76
19.93
59.22
88.66
104.25
105.74
96.66
82.33
67.24
53.89
42.68
33.19
25.16
19.27
17.14
20.62
30.27
43.98
58.56
71.09
80.40
87.13
93.06
99.80
107.32
112.45
107.95
86.46
43.51
-19.73
-96.54
-175.73
-243.96
-288.63
-301.66
-283.27
-239.36
-179.29
-112.50
-46.84
11.71
55.25
79.81
95.84
110.83
129.54
150.69
174.42
199.74
223.80
242.49
252.10
250.68
237.56
215.71
190.26
166.59
147.41
132.61
120.45
108.72
96.27
82.26
67.85
55.17
46.37
41.97
40.89
40.72
37.00
25.05
0.89
-35.94
-82.24
-132.13
-179.15
-217.55
-243.18
-256.30
-259.63
-257.89
-256.06
-259.07
-271.32
-295.57
-331.40
-361.31
-368.61
-344.76
-295.08
-233.41
-173.20
-123.09
-86.95
-64.86
-53.81
-52.70
-55.27
-53.73
-40.78
-12.53
29.17
76.98
121.36
154.66
172.62
171.69
154.36
127.05
96.67
67.83
42.45
21.23
5.02
-5.97
-11.79
-13.13
-11.97
-11.49
-14.80
-23.52
-36.65
-50.99
-63.10
-70.20
-70.55
-63.91
-50.91
-32.54
-9.95
15.31
40.75
62.83
78.20
85.68
87.45
88.63
94.79
108.57
127.39
144.25
151.44
145.09
127.83
107.43
92.54
88.26
93.94
104.85
115.85
124.69
132.62
142.15
154.06
165.83
172.81
171.12
160.41
144.23
128.23
117.41
114.02
117.37
124.95
134.14
143.23
151.40
158.16
162.81
164.72
163.87
161.20
158.38
156.95
157.34
158.54
158.49
155.14
147.49
135.92
121.69
105.92
88.64
68.30
42.10
7.08
-38.46
-93.63
-154.25
-213.24
-262.04
-292.95
-301.48
-287.89
-257.22
-217.80
-178.70
-147.17
-127.00
-118.34
-118.75
-124.85
-133.71
-143.40
-152.78
-160.90
-166.53
-168.14
-164.48
-155.20
-141.29
-124.92
-108.69
-94.72
-83.94
-75.98
-69.74
-64.19
-59.00
-54.54
-51.55
-50.49
-51.01
-51.87
-51.34
-47.73
-40.02
-28.18
-13.19
3.44
20.11
35.60
49.14
60.20
68.18
72.24
71.40
64.93
52.77
35.71
15.36
-6.30
-27.30
-46.02
-61.33
-72.56
-79.63
-83.06
-84.01
-84.08
-84.84
-87.30
-91.55
-96.74
-101.46
-104.34
-104.62
-102.34
-98.34
-93.72
-89.39
-85.81
-82.99
-80.68
-78.47
-75.84
-72.00
-65.96
-56.78
-44.20
-29.03
-13.01
1.92
14.77
26.10
37.91
52.49
71.08
92.94
115.61
135.99
151.77
162.27
168.36
171.61
173.45
174.63
175.34
175.76
176.35
177.63
179.76
182.05
182.86
180.01
171.59
156.81
136.35
112.19
86.93
63.05
42.36
25.70
12.98
3.50
-3.77
-9.78
-15.18
-20.20
-24.73
-28.60
-31.82
-34.71
-37.77
-41.44
-45.82
-50.63
-55.34
-59.44
-62.55
-64.43
-64.87
-63.58
-60.33
-55.13
-48.43
-41.09
-34.06
-28.09
-23.40
-19.80
-16.87
-14.23
-11.70
-9.25
-6.83
-4.37
-1.75
1.03
3.75
6.01
7.39
7.71
7.18
6.32
5.81
6.08
7.14
8.50
9.35
8.94
6.95
3.65
-0.14
-3.37
-5.24
-5.55
-5.03
-5.18
-7.94
-15.07
-27.46
-44.72
-65.15
-86.24
-105.43
-120.96
-132.56
-141.78
-151.91
-167.22
-191.40
-225.90
-268.81
-315.00
-357.44
-389.18
-405.26
-403.69
-385.40
-353.05
-309.97
-259.33
-204.23
-147.62
-92.02
-38.84
12.28
62.97
115.43
170.87
228.41
284.86
335.88
377.83
409.28
431.33
445.73
454.43
459.15
461.26
461.62
460.45
457.28
450.81
439.25
419.35
389.66
352.29
312.41
275.34
243.53
215.47
186.68
152.32
106.84
48.56
-18.64
-86.78
-147.40
-194.99
-227.92
-248.12
-259.76
-271.65
-291.35
-321.18
-358.08
-396.54
-432.52
-464.82
-494.86
-502.53
-475.22
-415.32
-338.44
-260.85
-190.81
-130.90
-81.65
-43.16
-14.29
2.98
7.38
1.28
-12.12
-27.16
-39.57
-45.54
-41.30
-23.40
5.74
40.52
76.76
111.69
144.79
176.83
210.77
244.97
279.89
314.09
334.89
335.69
317.73
289.43
260.17
236.16
219.49
209.70
202.73
193.27
183.44
169.77
149.80
123.19
92.21
60.52
31.32
4.76
-21.66
-50.06
-81.01
-114.30
-148.25
-179.90
-206.82
-229.16
-249.98
-273.80
-302.68
-321.22
-317.65
-290.35
-247.35
-198.74
-151.52
-108.28
-69.50
-35.10
-6.24
12.53
17.24
8.13
-8.77
-24.86
-30.88
-21.67
1.95
34.81
68.84
98.65
124.48
151.65
179.66
208.49
235.11
252.00
250.99
226.51
180.45
122.33
65.39
20.61
-6.53
-18.16
-23.12
-28.53
-38.08
-51.68
-66.84
-81.02
-92.78
-100.59
-98.19
-83.96
-59.44
-30.39
-5.33
7.59
3.80
-15.62
-44.50
-75.46
-103.99
-127.74
-145.37
-154.46
-150.64
-130.02
-92.21
-42.56
8.54
48.97
71.05
74.49
65.56
54.37
48.50
51.73
63.66
81.13
99.36
113.89
120.99
116.12
98.69
70.76
37.52
5.61
-19.16
-35.07
-43.82
-48.81
-54.22
-62.64
-74.06
-85.23
-90.94
-85.75
-67.42
-37.15
0.91
40.38
75.56
103.57
124.87
141.71
155.95
165.62
166.48
154.71
128.27
88.13
38.23
-16.34
-70.95
-122.17
-168.98
-211.57
-242.43
-254.15
-245.44
-221.84
-192.32
-169.84
-156.49
-155.08
-167.36
-191.43
-215.97
-229.90
-224.82
-198.07
-150.32
-88.19
-23.42
33.49
78.10
114.73
149.75
188.49
234.04
291.60
362.77
442.35
519.59
582.08
622.79
637.75
627.70
569.31
465.81
345.22
237.55
162.46
100.43
36.48
-34.23
-109.66
-181.68
-238.17
-273.77
-292.57
-306.75
-327.37
-355.67
-388.72
-423.50
-458.87
-491.19
-517.49
-513.90
-466.21
-378.79
-270.24
-162.67
-70.77
0.09
52.71
92.06
120.25
131.54
120.91
91.60
53.96
21.48
5.31
12.29
43.01
92.32
150.01
206.93
258.35
301.80
334.11
349.75
343.52
313.32
262.34
196.77
124.86
54.83
-7.70
-59.22
-95.13
-112.91
-114.71
-105.47
-91.11
-75.80
-61.42
-48.16
-35.12
-24.73
-18.01
-17.11
-23.79
-38.35
-58.65
-80.43
-98.35
-100.65
-82.80
-47.04
-1.28
43.94
77.97
92.16
82.33
50.67
5.82
-41.05
-78.88
-101.24
-107.96
-104.27
-97.55
-94.05
-96.37
-103.21
-111.57
-116.55
-112.56
-94.96
-62.09
-17.56
29.50
66.86
83.31
72.58
37.03
-12.99
-62.62
-97.66
-109.39
-96.83
-66.00
-26.91
10.16
38.33
55.37
62.94
64.47
62.87
59.74
55.51
50.65
46.24
44.20
46.22
52.70
62.38
73.05
82.83
90.82
96.94
100.69
100.12
91.99
73.04
42.50
3.18
-38.89
-76.59
-104.60
-121.65
-130.63
-136.32
-142.39
-148.58
-150.87
-143.69
-123.06
-88.89
-45.25
1.16
43.14
74.56
91.53
91.53
73.19
36.56
-15.78
-77.60
-139.11
-188.71
-216.26
-215.93
-188.67
-141.86
-86.48
-33.66
9.17
39.92
61.93
79.07
96.52
118.16
145.67
179.22
218.08
260.62
303.30
339.99
362.89
365.70
346.18
308.13
260.20
212.11
170.35
135.68
104.14
70.66
33.28
-5.42
-39.60
-63.55
-74.98
-76.30
-73.16
-71.37
-73.83
-79.19
-82.97
-80.00
-67.08
-44.81
-17.41
8.92
28.29
37.17
34.51
20.95
-1.91
-31.52
-64.52
-97.11
-125.93
-149.35
-167.77
-184.69
-205.62
-235.36
-274.64
-318.77
-358.42
-382.86
-383.87
-357.54
-306.97
-241.21
-171.48
-106.56
-50.84
-4.08
36.60
75.05
116.14
162.51
212.78
262.19
304.44
332.75
342.50
332.64
297.20
239.14
169.44
101.38
43.91
-0.29
-33.48
-58.41
-77.22
-91.68
-101.08
-104.59
-102.32
-93.84
-77.15
-51.61
-18.25
18.31
49.93
72.06
88.72
102.25
106.82
102.64
86.50
56.22
10.56
-43.65
-93.07
-124.91
-134.39
-126.42
-111.54
-100.15
-96.49
-97.12
-93.03
-75.19
-40.79
4.78
52.17
95.21
134.20
173.15
214.65
256.12
289.64
305.04
294.66
257.52
193.17
113.53
36.96
-21.03
-55.48
-71.70
-79.07
-85.18
-93.82
-105.63
-116.71
-123.87
-125.90
-122.99
-115.82
-105.60
-90.54
-73.72
-59.34
-48.29
-38.70
-27.25
-11.48
8.57
30.29
49.83
64.10
72.22
75.77
76.38
74.71
70.49
63.49
54.27
44.29
34.88
27.27
22.44
20.61
20.99
22.23
23.09
22.88
21.69
19.49
16.07
11.28
4.88
-3.29
-13.21
-24.51
-36.28
-46.95
-55.56
-62.47
-69.05
-76.78
-86.47
-97.80
-109.24
-118.28
-121.72
-117.99
-108.71
-98.33
-92.28
-95.15
-108.76
-130.84
-154.60
-169.43
-165.24
-136.60
-84.43
-15.28
60.47
131.01
184.23
205.89
191.66
151.92
104.25
62.94
34.54
18.65
10.73
5.07
-2.39
-11.82
-20.85
-26.47
-26.10
-18.21
-3.36
15.21
32.31
42.89
44.73
37.94
23.76
4.04
-18.53
-40.24
-56.48
-62.60
-55.63
-35.82
-8.23
18.37
35.40
38.80
30.80
18.11
8.01
4.51
7.93
15.64
24.10
30.86
35.33
38.16
40.02
41.31
42.47
44.67
49.31
56.77
65.57
72.40
73.73
67.67
55.21
39.79
25.80
16.35
12.06
11.30
11.32
9.91
6.21
0.82
-5.27
-11.23
-16.84
-22.35
-27.83
-32.91
-36.84
-39.03
-38.31
-35.15
-31.04
-27.78
-26.65
-27.87
-30.44
-32.65
-32.89
-30.33
-25.47
-19.68
-14.58
-11.44
-10.61
-11.58
-13.30
-14.72
-15.30
-15.38
-15.71
-17.02
-19.59
-22.99
-26.42
-29.06
-30.57
-31.15
-31.42
-31.84
-32.36
-32.48
-31.60
-29.43
-26.22
-22.61
-19.31
-16.80
-15.10
-13.96
-13.21
-12.95
-13.57
-15.43
-18.59
-22.71
-27.14
-31.12
-33.99
-35.33
-34.96
-32.92
-29.43
-24.91
-19.99
-15.40
-11.75
-9.16
-7.43
-6.21
-5.39
-5.28
-6.51
-9.72
-15.21
-22.56
-30.37
-37.24
-42.38
-45.92
-48.50
-50.68
-52.29
-52.45
-49.90
-42.81
-30.49
-14.02
4.00
20.37
32.31
38.29
38.18
33.26
27.37
24.64
28.39
40.40
61.01
89.38
123.78
161.85
201.11
241.06
280.87
318.40
349.79
370.38
376.11
364.94
337.53
286.45
212.45
124.14
35.43
-40.51
-96.18
-130.20
-144.99
-144.90
-135.17
-119.84
-102.81
-87.59
-77.11
-72.84
-74.25
-79.47
-86.38
-93.36
-98.68
-101.08
-100.52
-98.01
-95.02
-92.95
-93.14
-97.06
-105.17
-116.02
-126.94
-135.05
-138.23
-135.82
-128.96
-120.30
-113.39
-110.43
-112.22
-117.46
-123.03
-124.87
-119.00
-102.42
-73.56
-32.44
19.34
78.28
138.97
194.37
237.26
262.45
268.72
259.42
240.98
219.89
199.55
179.22
155.15
123.48
83.30
37.70
-7.40
-45.88
-73.91
-90.80
-98.04
-97.52
-90.41
-77.04
-58.04
-35.43
-12.72
6.26
19.34
27.76
36.35
51.64
78.67
117.73
162.75
202.69
225.01
220.15
184.61
121.79
40.31
-48.87
-135.06
-209.69
-266.72
-302.81
-317.40
-312.62
-292.45
-261.52
-223.89
-182.31
-139.01
-95.91
-55.17
-18.69
11.93
36.12
54.48
68.85
82.64
97.76
115.68
135.63
153.58
162.56
156.34
132.90
95.77
53.40
14.13
-16.57
-37.62
-51.53
-62.34
-72.77
-84.31
-98.28
-116.00
-140.44
-173.97
-216.22
-256.83
-283.77
-286.56
-261.07
-216.76
-162.29
-107.76
-61.41
-26.76
-0.75
22.28
46.14
72.11
98.90
125.02
148.98
171.04
193.20
219.42
251.41
287.25
322.00
349.50
365.23
366.43
352.51
314.99
252.12
169.25
78.71
-3.40
-62.82
-91.31
-89.31
-66.12
-36.30
-12.67
-0.96
-0.81
-7.36
-14.31
-16.98
-14.49
-9.99
-7.75
-11.51
-22.19
-39.32
-62.21
-90.97
-126.02
-166.62
-211.15
-256.19
-296.10
-324.39
-335.50
-325.75
-294.58
-248.41
-192.20
-133.79
-81.62
-41.99
-18.02
-9.82
-15.22
-30.47
-50.89
-71.48
-89.07
-101.88
-109.26
-111.38
-109.19
-104.04
-98.38
-94.30
-91.93
-89.64
-83.18
-67.03
-36.66
9.17
67.69
133.35
200.32
264.47
322.85
372.87
411.11
433.31
436.21
419.34
386.04
342.79
297.20
255.52
221.49
196.30
179.67
171.02
169.94
175.92
187.83
203.27
218.52
229.30
231.86
223.97
205.54
178.37
145.62
110.96
77.61
47.70
21.90
-0.70
-22.13
-44.82
-70.55
-99.60
-130.57
-161.01
-188.20
-209.95
-225.00
-233.00
-234.14
-228.95
-218.20
-203.08
-185.51
-167.71
-151.72
-138.93
-129.84
-123.96
-120.02
-116.07
-109.91
-100.30
-86.57
-68.99
-48.79
-28.21
-9.70
5.11
16.59
26.97
38.19
52.40
71.16
94.63
120.92
146.09
165.01
173.18
167.38
144.31
103.90
49.63
-12.26
-74.97
-133.44
-185.39
-230.71
-271.94
-316.07
-369.31
-434.26
-508.00
-582.05
-645.11
-686.46
-699.05
-662.60
-573.04
-444.18
-302.89
-174.92
-72.78
4.18
60.04
104.40
141.91
170.48
188.41
197.40
202.96
211.42
227.60
253.28
287.76
328.18
369.50
408.53
444.40
469.56
476.67
459.67
417.38
355.69
284.69
213.66
149.62
96.33
54.63
24.42
4.75
-6.01
-9.90
-10.04
-10.53
-14.50
-22.95
-34.51
-45.28
-50.97
-48.78
-38.65
-23.61
-8.76
0.89
2.39
-4.44
-16.69
-30.17
-41.59
-49.96
-56.57
-63.37
-71.46
-79.55
-84.65
-83.38
-73.55
-55.69
-32.98
-9.58
10.98
26.76
37.34
43.15
45.31
45.89
46.84
49.42
53.28
56.03
53.80
43.37
24.54
1.70
-16.45
-21.44
-9.30
17.23
49.54
76.67
89.93
85.77
62.72
27.41
-9.55
-39.29
-58.24
-67.86
-71.75
-72.38
-70.39
-65.18
-55.91
-43.71
-31.64
-23.05
-19.47
-20.00
-21.59
-20.95
-16.06
-6.62
5.36
16.51
23.87
26.24
23.91
19.41
14.98
11.66
9.16
5.73
-0.78
-11.74
-25.54
-40.68
-54.63
-65.19
-71.20
-72.86
-71.81
-70.75
-72.54
-78.77
-88.80
-98.82
-102.95
-95.30
-72.66
-36.24
8.27
52.44
87.66
108.45
112.27
99.93
75.21
43.91
12.58
-12.30
-26.51
-29.21
-22.66
-10.83
2.36
14.25
23.69
30.29
34.07
35.03
33.61
30.87
28.25
27.07
28.02
30.87
34.51
37.71
39.47
39.66
38.96
38.39
38.89
40.91
44.19
47.80
50.58
51.39
49.76
45.75
39.75
32.37
24.15
15.50
6.50
-2.36
-11.16
-19.60
-27.23
-33.57
-38.26
-41.16
-42.28
-42.04
-40.86
-39.31
-37.65
-36.10
-34.70
-33.44
-32.62
-31.88
-31.22
-30.66
-30.29
-30.02
-29.75
-29.22
-28.15
-26.65
-24.07
-20.23
-15.12
-9.03
-2.35
4.42
10.77
16.31
20.65
23.82
25.87
26.97
27.34
27.26
27.01
26.79
26.81
26.94
27.24
27.48
27.22
25.97
23.24
18.77
12.63
6.40
0.04
-5.85
-10.87
-14.96
-18.44
-21.86
-25.67
-29.96
-34.25
-38.00
-40.41
-41.15
-40.58
-39.66
-39.51
-40.96
-44.16
-48.39
-52.64
-55.91
-57.55
-57.75
-57.28
-57.16
-58.26
-61.89
-68.43
-78.20
-90.08
-101.02
-106.33
-101.31
-83.56
-54.78
-20.81
10.53
32.38
41.83
40.55
33.31
25.38
19.90
17.53
17.04
17.23
17.89
20.23
25.67
34.72
45.83
56.19
63.39
67.00
68.70
70.80
74.25
77.55
77.56
71.58
59.88
46.22
36.60
35.74
44.60
60.21
77.62
92.77
103.86
111.40
116.85
121.02
123.52
123.80
121.48
116.66
110.00
102.12
92.92
81.94
68.27
51.31
31.06
8.25
-15.74
-38.55
-58.97
-76.32
-90.27
-100.98
-108.47
-112.44
-112.59
-109.90
-104.07
-96.38
-88.77
-83.00
-80.39
-80.78
-83.05
-85.70
-87.79
-88.99
-90.68
-94.53
-101.50
-111.47
-122.44
-131.62
-137.05
-138.43
-137.22
-137.10
-141.79
-151.74
-167.77
-188.42
-210.56
-230.18
-243.90
-244.76
-227.01
-188.05
-130.82
-64.74
-2.38
45.49
74.87
89.60
100.36
117.20
143.71
175.49
203.36
219.64
222.25
215.04
204.40
195.41
188.60
181.26
170.08
154.05
135.43
118.19
105.66
98.88
96.68
95.66
92.57
85.54
74.82
62.64
51.87
45.22
42.74
43.28
44.47
44.21
41.19
35.51
28.52
22.00
17.18
14.01
12.26
10.13
6.50
0.92
-5.84
-12.11
-16.01
-16.26
-12.95
-6.88
-0.73
4.61
8.22
10.11
11.11
12.32
15.19
18.49
20.82
20.26
15.57
6.42
-6.15
-20.19
-33.53
-44.68
-53.34
-59.16
-62.02
-61.81
-59.71
-58.09
-59.81
-66.25
-75.68
-83.23
-82.05
-67.71
-40.23
-5.54
27.69
52.26
65.49
70.45
70.21
67.67
63.47
56.61
45.89
31.79
16.63
3.53
-5.45
-10.06
-11.18
-10.42
-8.84
-6.62
-3.05
2.72
11.21
21.43
30.96
37.29
38.64
34.72
26.78
17.09
8.04
1.75
-1.32
-1.98
-1.27
0.25
2.69
6.48
12.04
19.57
29.79
42.58
57.06
71.47
82.77
86.67
78.89
57.08
19.30
-26.67
-68.98
-97.52
-108.19
-103.26
-88.75
-70.68
-52.95
-37.50
-24.91
-16.95
-15.57
-21.44
-32.10
-42.77
-48.00
-43.88
-30.22
-10.77
6.38
12.56
2.43
-23.20
-57.39
-89.95
-112.14
-120.52
-114.83
-100.17
-82.49
-64.62
-45.00
-19.92
12.59
50.01
85.63
111.81
122.78
117.11
96.95
65.48
24.65
-24.88
-81.76
-141.67
-196.55
-237.03
-255.60
-249.67
-222.37
-181.05
-134.40
-89.96
-53.32
-28.35
-17.89
-22.92
-41.47
-67.96
-94.03
-111.43
-115.39
-107.02
-93.11
-83.43
-86.42
-105.48
-137.67
-175.05
-208.16
-229.51
-235.87
-228.43
-211.07
-187.79
-160.67
-129.81
-94.58
-55.90
-17.50
14.70
34.63
38.60
26.88
3.66
-24.90
-52.77
-75.85
-92.44
-102.62
-107.18
-106.81
-101.97
-93.26
-81.91
-69.93
-59.66
-53.08
-50.95
-52.42
-55.05
-55.70
-51.69
-41.92
-27.23
-9.96
7.19
22.22
34.55
45.09
55.65
68.17
84.21
104.68
129.53
157.49
185.95
211.41
230.64
242.16
247.28
249.89
254.73
265.29
282.17
302.93
323.56
340.64
353.03
362.24
371.40
383.63
400.58
421.84
445.18
467.30
484.72
494.64
495.59
487.66
471.85
449.15
419.65
382.25
335.12
277.01
208.69
133.74
58.29
-10.30
-65.43
-102.62
-120.19
-119.43
-104.47
-81.97
-60.10
-46.05
-43.37
-50.17
-59.27
-60.74
-46.82
-15.70
27.36
71.88
107.52
127.86
132.12
124.27
111.10
98.57
89.52
83.10
74.59
59.38
34.27
-1.53
-45.66
-92.28
-135.01
-169.31
-194.25
-213.90
-231.94
-250.24
-268.32
-283.31
-290.23
-285.01
-265.82
-233.70
-193.71
-149.21
-102.23
-54.59
-19.11
-7.07
-24.65
-69.09
-116.41
-156.05
-183.05
-194.85
-194.64
-183.38
-160.40
-125.36
-78.85
-22.67
38.33
101.27
164.29
225.26
281.62
330.69
369.23
394.43
404.92
400.19
384.22
363.35
343.30
327.10
314.20
300.75
281.88
254.12
216.16
171.06
124.19
80.53
43.12
12.47
-12.88
-35.02
-55.81
-77.14
-99.92
-124.75
-152.42
-183.43
-217.86
-255.01
-293.24
-330.46
-365.32
-397.75
-429.34
-462.49
-498.25
-534.44
-565.06
-581.72
-576.74
-546.33
-492.07
-420.33
-340.00
-259.80
-187.04
-127.79
-87.54
-71.24
-81.87
-117.78
-171.54
-230.93
-282.60
-316.81
-330.36
-326.46
-311.82
-292.24
-269.17
-240.01
-200.62
-148.70
-86.07
-18.52
46.37
101.52
142.22
167.49
179.17
180.97
177.44
172.59
169.11
168.18
169.55
172.52
178.01
187.96
204.83
230.22
263.88
304.06
348.62
396.43
440.19
473.10
489.25
486.25
466.55
435.76
399.15
358.99
314.19
261.88
201.00
133.42
64.17
-0.22
-54.34
-95.81
-125.55
-146.62
-162.26
-173.56
-179.96
-180.24
-174.19
-163.47
-151.26
-140.86
-134.42
-132.33
-132.94
-133.59
-131.87
-126.70
-118.68
-109.57
-101.34
-95.22
-91.46
-89.47
-88.72
-88.99
-89.86
-89.86
-86.20
-75.35
-54.97
-25.58
9.11
43.38
71.84
91.52
102.52
107.05
108.03
107.57
106.73
106.27
107.12
110.22
115.41
121.08
122.47
114.77
95.05
63.84
25.63
-12.51
-43.50
-62.65
-69.05
-65.23
-55.28
-43.15
-31.42
-21.11
-12.39
-5.20
0.41
4.46
7.24
9.62
12.45
16.11
20.31
23.77
25.17
23.76
19.57
13.33
6.18
-0.38
-4.52
-4.10
2.37
15.19
32.70
51.14
65.77
72.73
70.54
60.86
47.76
35.35
26.76
23.13
23.83
27.43
32.71
39.12
46.70
55.60
65.02
73.81
80.56
83.80
82.76
77.28
67.50
53.35
38.06
22.40
6.14
-11.47
-31.02
-52.50
-75.20
-98.11
-120.27
-141.05
-161.02
-180.70
-199.98
-217.82
-232.77
-244.02
-251.94
-257.47
-261.30
-264.02
-265.44
-264.80
-261.27
-254.67
-245.83
-235.77
-223.94
-208.01
-185.90
-157.64
-125.90
-94.93
-68.73
-49.29
-35.08
-20.50
1.78
37.00
85.66
144.17
206.73
267.16
319.38
352.90
357.39
330.82
282.12
224.48
168.45
120.24
83.19
58.09
44.88
43.86
53.39
72.39
97.98
126.15
153.98
180.15
201.98
216.48
222.31
220.51
213.64
201.28
182.26
155.20
118.69
69.14
4.59
-72.19
-154.05
-232.10
-298.58
-350.93
-389.59
-401.13
-378.16
-323.76
-250.67
-174.42
-115.60
-74.42
-48.70
-35.61
-31.19
-30.18
-29.22
-25.60
-17.79
-5.47
11.29
30.71
52.02
76.49
99.60
114.20
116.68
105.88
83.49
52.98
16.72
-23.06
-63.90
-104.92
-145.09
-182.25
-213.02
-226.45
-215.60
-183.16
-139.74
-96.37
-59.86
-30.73
-5.45
20.66
49.60
78.08
99.08
106.41
99.08
80.70
60.37
42.21
28.07
17.43
7.99
-1.44
-9.27
-10.86
-2.52
16.15
41.64
69.25
95.10
117.44
138.30
156.50
175.20
198.27
229.13
269.80
320.92
380.10
440.67
492.69
525.34
531.12
507.39
457.40
389.15
313.30
239.88
175.91
124.80
86.67
60.24
42.85
31.40
23.18
16.63
11.45
8.23
7.75
10.04
14.71
20.17
24.11
23.99
17.60
3.45
-18.80
-48.34
-83.63
-122.56
-163.24
-204.19
-244.14
-281.76
-315.43
-343.30
-363.67
-375.42
-378.30
-373.15
-361.78
-346.40
-328.93
-310.42
-290.79
-269.11
-244.40
-216.34
-185.76
-154.62
-125.44
-100.69
-82.20
-70.76
-65.78
-65.30
-66.17
-64.73
-57.66
-42.77
-19.55
10.69
45.03
79.37
109.30
131.09
142.50
143.51
136.04
123.07
107.33
90.22
71.59
50.43
25.84
-2.46
-34.66
-71.69
-115.17
-166.01
-222.42
-278.62
-325.70
-354.38
-358.71
-338.56
-300.13
-252.70
-204.56
-159.86
-117.97
-75.07
-26.64
30.14
94.66
161.36
221.52
265.88
287.52
283.88
257.06
212.78
158.20
100.11
42.58
-10.81
-55.12
-84.04
-92.27
-78.93
-48.91
-11.47
22.98
44.32
46.93
30.90
0.74
-37.37
-78.61
-120.24
-161.08
-187.47
-189.25
-165.36
-125.15
-80.63
-38.61
-0.51
34.60
67.71
98.98
126.07
146.86
161.99
172.79
180.51
184.76
184.16
177.73
166.13
150.08
131.36
112.74
95.16
80.74
70.42
64.07
61.31
61.76
63.84
65.58
65.32
62.24
56.62
49.00
40.11
30.93
22.38
14.59
7.40
0.77
-5.13
-10.21
-15.28
-21.81
-31.06
-43.35
-57.88
-72.77
-85.56
-92.95
-92.11
-83.09
-69.09
-54.30
-41.85
-33.16
-28.60
-27.85
-30.01
-33.86
-37.24
-39.39
-39.76
-37.74
-32.50
-23.43
-10.12
7.68
30.05
57.02
89.49
125.87
160.63
189.11
207.67
214.05
207.05
186.27
152.64
109.62
63.25
20.74
-11.64
-30.85
-37.60
-35.05
-25.77
-13.18
0.12
11.75
19.55
22.18
19.81
14.15
8.12
4.74
5.73
11.24
19.83
29.62
37.08
40.70
40.43
37.40
33.39
30.00
28.46
29.07
31.25
33.66
34.80
33.01
26.98
16.18
0.99
-17.24
-36.56
-54.64
-69.18
-77.96
-79.60
-73.80
-61.51
-44.66
-25.51
-6.00
12.88
31.17
49.66
68.97
89.02
108.75
126.55
140.85
150.83
156.57
158.98
159.45
159.07
158.77
159.29
161.13
164.39
168.61
172.94
176.22
177.33
175.26
169.66
160.94
149.95
137.39
123.44
107.92
90.62
71.85
52.15
33.11
16.94
5.45
-1.27
-5.36
-10.41
-19.87
-35.57
-58.73
-87.69
-118.45
-146.36
-168.23
-182.92
-190.50
-191.20
-185.37
-177.78
-173.24
-175.13
-185.00
-203.48
-230.34
-263.89
-301.06
-338.40
-379.03
-424.67
-473.06
-518.51
-555.45
-580.89
-594.23
-596.26
-588.58
-580.75
-579.14
-583.73
-589.34
-590.73
-585.58
-573.90
-556.66
-487.73
-351.63
-170.60
9.41
152.48
248.07
304.17
335.48
355.72
373.49
384.22
382.65
368.35
346.63
324.26
305.96
293.68
287.82
286.25
279.94
262.48
233.47
198.06
162.91
133.12
111.53
99.83
97.90
100.76
104.22
106.94
110.39
116.64
127.09
138.89
149.98
158.93
163.64
163.68
160.60
156.97
154.57
153.50
152.50
150.45
146.54
140.23
132.09
123.42
115.69
109.60
104.78
100.22
95.35
89.90
84.07
78.26
72.55
66.77
60.45
53.20
44.98
36.43
28.33
21.34
15.64
10.98
6.96
3.17
-0.59
-4.27
-7.67
-10.63
-13.19
-15.54
-17.89
-20.30
-22.65
-24.73
-26.34
-27.48
-28.37
-29.41
-31.03
-33.52
-36.95
-41.20
-46.06
-51.22
-56.30
-60.76
-63.91
-65.01
-63.49
-59.17
-52.39
-43.92
-34.67
-25.50
-17.03
-9.66
-3.60
1.09
4.48
6.85
8.67
10.56
13.05
16.43
20.61
25.08
29.12
31.90
32.75
31.39
28.00
23.16
17.55
11.70
5.72
-0.62
-7.62
-15.39
-23.66
-31.93
-39.66
-46.50
-52.20
-56.70
-59.71
-60.70
-59.37
-55.83
-50.53
-43.99
-36.63
-28.53
-19.62
-9.80
1.01
12.36
23.36
33.04
40.70
46.17
49.97
52.90
56.24
61.66
69.97
80.99
93.99
108.04
122.36
136.34
148.60
157.95
164.24
166.18
161.78
149.63
129.37
101.83
69.13
32.74
-4.15
-35.31
-57.15
-69.44
-73.94
-74.15
-74.20
-77.50
-88.29
-106.88
-126.88
-144.01
-157.32
-167.28
-175.91
-186.02
-200.01
-222.04
-251.65
-279.48
-298.18
-303.63
-293.06
-266.62
-228.20
-163.61
-78.37
-16.95
7.22
1.64
-26.52
-66.47
-105.87
-133.41
-141.36
-130.35
-103.43
-59.81
-2.93
61.00
126.50
187.60
236.80
265.46
263.25
225.76
160.73
79.77
-4.47
-79.77
-137.64
-174.51
-190.80
-190.21
-175.20
-144.02
-97.92
-43.08
11.41
56.07
84.50
95.56
92.79
83.77
78.97
84.37
99.51
119.40
137.79
150.20
155.12
153.67
149.25
148.01
154.31
168.51
187.27
205.17
216.62
217.10
204.31
168.87
111.21
43.53
-17.50
-61.82
-89.18
-104.45
-112.64
-116.32
-115.92
-109.55
-97.43
-81.39
-65.13
-51.91
-42.86
-36.89
-31.20
-23.15
-10.58
6.44
22.28
31.69
32.59
27.36
20.93
18.07
22.55
32.77
45.37
56.90
65.85
73.55
83.77
98.30
119.54
148.84
186.27
230.41
277.32
320.72
352.94
366.83
357.80
325.56
273.47
207.04
132.17
53.18
-27.05
-106.03
-180.32
-245.22
-295.74
-328.92
-345.63
-350.21
-348.95
-347.28
-347.71
-349.32
-348.98
-343.29
-330.84
-313.10
-293.93
-278.43
-271.41
-275.88
-292.00
-316.67
-343.85
-366.14
-376.70
-371.07
-348.12
-309.91
-260.45
-204.27
-145.30
-86.44
-29.69
23.79
73.67
120.73
166.68
213.70
263.19
314.68
365.12
409.36
441.61
457.31
454.89
436.35
406.60
371.70
336.90
305.16
277.02
251.40
227.07
203.54
181.12
159.83
138.15
112.57
78.44
32.11
-26.86
-94.56
-163.66
-225.91
-275.36
-310.26
-333.11
-348.69
-361.53
-373.84
-385.25
-393.76
-397.19
-394.32
-384.99
-369.66
-348.88
-323.11
-293.02
-259.89
-225.71
-192.81
-163.15
-137.65
-116.11
-97.44
-80.32
-63.67
-46.99
-30.31
-14.00
1.48
15.89
29.37
42.41
55.68
69.90
85.67
103.46
123.62
146.41
172.10
200.97
233.40
269.84
310.46
354.65
400.51
444.71
482.99
511.30
527.20
530.65
524.03
510.99
495.01
478.17
460.88
442.45
422.18
400.15
377.36
355.32
335.28
317.83
302.89
290.14
279.30
270.42
263.52
258.14
252.97
245.91
234.63
217.45
194.13
166.09
136.02
107.08
81.92
61.92
47.04
35.99
26.77
17.27
5.69
-9.13
-27.65
-49.58
-73.87
-98.69
-121.64
-140.45
-153.70
-161.76
-166.99
-173.29
-184.90
-204.64
-232.71
-266.41
-301.25
-332.74
-358.08
-376.83
-390.24
-399.66
-405.03
-404.29
-394.33
-372.61
-338.86
-295.74
-248.21
-202.07
-162.44
-132.63
-113.95
-105.86
-106.41
-112.49
-120.38
-126.55
-128.41
-125.13
-117.64
-108.14
-99.03
-91.99
-87.47
-84.97
-83.61
-82.72
-82.16
-82.01
-82.32
-82.77
-82.71
-81.35
-77.91
-71.51
-61.02
-45.07
-22.52
6.89
41.65
78.14
111.08
134.66
143.99
136.32
111.68
72.77
24.36
-27.68
-77.49
-120.24
-152.88
-174.37
-185.24
-186.75
-179.97
-165.17
-141.88
-109.54
-68.28
-19.59
33.61
87.38
137.49
179.95
211.42
229.35
232.41
220.93
197.24
165.49
130.67
97.20
67.73
42.78
21.39
2.43
-14.29
-27.98
-37.63
-43.10
-45.78
-48.02
-51.96
-58.35
-66.27
-73.80
-79.17
-81.51
-80.92
-77.91
-72.79
-65.59
-56.45
-46.13
-36.23
-28.77
-25.42
-26.88
-32.79
-42.11
-53.75
-66.90
-81.12
-96.04
-111.21
-126.09
-140.39
-154.25
-168.23
-183.01
-199.00
-216.08
-233.50
-249.99
-263.82
-273.03
-275.59
-269.88
-255.16
-231.98
-202.23
-168.63
-133.94
-100.18
-68.14
-37.51
-7.25
23.90
57.24
93.71
133.62
176.17
219.17
259.30
292.93
317.25
331.12
335.38
332.36
325.08
316.27
307.92
301.12
296.18
292.86
290.55
288.54
286.19
283.01
278.58
272.48
264.31
253.93
241.87
229.37
218.03
209.02
202.42
197.08
191.22
183.41
173.54
162.88
153.56
147.43
145.29
146.59
149.90
153.63
156.61
158.33
158.65
157.48
154.47
149.19
141.32
131.00
118.73
105.17
90.67
75.04
57.62
37.75
15.32
-9.03
-34.02
-58.40
-81.61
-104.03
-126.59
-149.98
-173.77
-196.16
-214.50
-226.44
-231.06
-229.43
-224.19
-218.36
-214.08
-211.84
-210.63
-208.75
-204.72
-197.85
-188.16
-175.86
-160.93
-143.03
-122.00
-98.43
-73.89
-50.74
-31.33
-17.27
-8.98
-5.73
-6.27
-9.26
-13.74
-19.21
-25.45
-32.29
-39.38
-45.90
-50.53
-51.62
-47.66
-37.92
-22.81
-3.91
16.53
36.37
54.02
68.59
79.54
86.35
88.56
85.99
79.24
69.70
59.11
48.84
39.25
29.70
19.08
6.69
-7.17
-21.19
-33.59
-42.95
-48.84
-51.96
-53.76
-55.71
-58.64
-62.43
-66.16
-68.61
-68.82
-66.57
-62.35
-57.15
-51.98
-47.55
-44.14
-41.69
-39.95
-38.70
-37.72
-36.77
-35.45
-33.27
-29.78
-24.81
-18.48
-11.36
-4.32
1.68
5.78
7.49
6.75
3.83
-0.77
-6.47
-12.60
-18.40
-23.04
-25.70
-25.82
-23.23
-18.22
-11.37
-3.30
5.44
14.53
23.64
32.38
40.16
46.36
50.43
52.11
51.44
48.68
44.17
38.23
31.10
23.03
14.33
5.44
-3.26
-11.47
-19.15
-26.51
-33.88
-41.64
-50.02
-59.03
-68.52
-78.16
-87.54
-96.21
-103.66
-109.34
-112.76
-113.59
-111.94
-108.40
-103.99
-99.83
-96.64
-94.40
-92.31
-89.17
-83.95
-76.37
-67.06
-57.17
-47.83
-39.68
-32.64
-26.25
-20.01
-13.77
-7.79
-2.45
2.01
5.82
9.60
14.22
20.53
29.18
40.59
54.98
72.32
92.38
114.63
138.29
162.39
185.90
207.86
227.41
243.80
256.49
265.32
270.54
272.74
272.54
270.13
265.19
257.01
244.95
228.82
209.16
187.13
164.21
141.69
120.43
100.73
82.45
65.26
48.89
33.26
18.36
3.99
-10.40
-25.80
-43.26
-63.41
-85.96
-109.62
-132.55
-153.00
-169.92
-183.09
-192.92
-199.98
-204.71
-207.23
-207.47
-205.34
-200.94
-194.52
-186.44
-177.10
-166.86
-155.99
-144.75
-133.39
-122.22
-111.68
-102.23
-94.30
-88.11
-83.59
-80.25
-77.37
-74.11
-69.77
-63.97
-56.69
-48.22
-38.99
-29.44
-19.94
-10.72
-2.00
5.99
13.00
18.75
23.04
25.81
27.18
27.40
26.79
25.68
24.31
22.84
21.30
19.71
18.19
16.94
16.31
16.56
17.79
19.76
21.95
23.73
24.67
24.71
24.28
24.14
25.15
28.05
33.21
40.40
48.78
56.96
63.41
66.79
66.39
62.41
55.88
48.45
41.93
37.85
37.09
39.69
44.90
51.47
57.93
62.98
65.52
64.74
59.99
50.85
37.28
19.86
-0.18
-21.04
-40.70
-57.25
-69.13
-75.32
-75.58
-70.54
-61.70
-51.13
-40.89
-32.38
-26.05
-21.58
-18.41
-16.47
-16.36
-19.14
-25.76
-36.57
-51.15
-68.66
-88.15
-108.76
-129.56
-149.34
-166.52
-179.29
-186.06
-185.84
-178.46
-164.61
-145.65
-123.50
-100.43
-78.78
-60.63
-47.25
-38.77
-34.10
-31.27
-28.03
-22.49
-13.53
-0.95
14.59
31.85
49.20
65.06
78.19
88.01
94.67
98.86
101.44
103.00
103.49
102.31
98.65
92.16
83.42
73.94
65.87
61.38
61.93
67.88
78.43
91.87
106.03
118.80
128.55
134.46
136.55
135.60
132.85
129.55
126.66
124.54
123.04
121.53
119.20
115.21
108.90
100.06
89.07
76.99
65.36
55.80
49.47
46.73
46.94
48.82
50.92
52.15
52.10
51.02
49.40
47.54
45.14
41.26
34.72
24.62
10.96
-5.04
-21.12
-34.58
-43.09
-45.45
-42.04
-34.69
-26.08
-18.76
-14.41
-13.37
-14.90
-17.78
-21.18
-25.10
-30.39
-38.20
-49.30
-63.44
-79.32
-94.83
-107.71
-115.98
-118.47
-115.05
-106.72
-95.49
-83.64
-72.97
-64.07
-56.24
-48.01
-38.14
-26.49
-14.18
-3.21
4.61
8.30
8.00
4.64
-0.62
-6.79
-13.20
-19.28
-24.41
-27.84
-28.72
-26.37
-20.50
-11.56
-0.86
9.56
17.59
21.66
21.44
17.92
13.00
8.70
6.37
6.38
8.25
11.06
13.99
16.53
18.51
19.85
20.50
20.27
19.06
16.88
14.02
10.98
8.37
6.63
5.77
5.39
4.82
3.48
1.20
-1.68
-4.43
-6.37
-7.12
-6.82
-6.15
-6.05
-7.43
-10.87
-16.32
-23.08
-29.92
-35.38
-38.26
-38.01
-34.86
-29.70
-23.65
-17.69
-12.38
-7.90
-4.36
-1.94
-1.06
-2.16
-5.43
-10.67
-17.20
-24.15
-30.65
-36.09
-40.26
-43.30
-45.50
-47.07
-47.75
-46.72
-42.55
-33.63
-18.75
2.33
28.53
57.46
85.86
110.25
127.70
136.44
136.07
127.43
112.18
92.19
69.19
44.77
20.78
-0.26
-15.08
-20.46
-14.58
1.81
25.04
49.40
69.11
80.24
81.77
75.39
64.17
51.02
37.77
24.97
12.59
0.74
-10.01
-18.69
-24.37
-26.69
-26.10
-23.77
-21.25
-19.88
-20.29
-22.14
-24.33
-25.63
-25.37
-23.88
-22.25
-21.72
-22.90
-25.47
-28.36
-30.44
-31.16
-30.63
-29.22
-27.09
-24.01
-19.57
-13.76
-7.16
-0.75
4.80
9.70
15.04
22.30
32.47
45.52
60.34
75.17
88.24
98.19
104.29
106.33
104.60
99.78
92.74
84.40
75.49
66.38
57.32
48.77
41.52
36.55
34.50
35.13
37.24
39.22
39.84
39.00
37.72
37.57
39.72
44.38
50.73
57.41
63.10
66.70
67.19
63.55
55.02
41.72
25.11
7.78
-7.65
-19.84
-29.69
-40.04
-54.38
-75.18
-102.71
-135.00
-168.78
-200.77
-228.58
-251.06
-267.98
-279.59
-286.16
-287.97
-285.39
-279.14
-270.38
-260.38
-249.94
-238.71
-225.11
-206.88
-182.28
-151.10
-115.08
-77.06
-39.65
-4.09
29.78
62.53
93.87
122.24
145.45
161.92
171.63
175.87
176.24
173.49
167.19
156.40
140.80
121.35
100.03
78.86
58.95
40.28
22.23
4.51
-12.21
-26.38
-36.29
-40.79
-39.85
-34.44
-26.15
-16.72
-7.72
-0.44
3.95
4.51
0.69
-7.29
-18.20
-29.84
-39.61
-45.29
-45.77
-41.42
-33.82
-25.19
-17.64
-12.61
-10.58
-11.14
-13.30
-15.99
-18.48
-20.58
-22.59
-25.07
-28.41
-32.62
-37.21
-41.39
-44.21
-44.92
-43.12
-39.01
-33.45
-27.83
-23.79
-22.73
-25.30
-31.23
-39.44
-48.56
-57.56
-66.19
-74.97
-84.84
-96.70
-111.03
-127.81
-146.57
-166.43
-185.95
-203.18
-215.73
-221.38
-218.70
-207.54
-188.92
-164.39
-135.36
-102.56
-66.22
-26.34
17.01
63.84
114.42
169.14
227.72
288.19
346.34
396.45
433.11
453.25
457.41
449.34
434.28
416.88
399.77
383.33
366.51
347.83
326.12
300.72
271.32
237.88
200.87
161.56
122.09
85.23
53.79
29.85
14.35
6.88
6.00
9.73
16.13
23.56
30.80
36.93
41.19
43.10
42.55
39.99
36.26
32.28
28.61
25.21
21.59
17.21
11.94
6.23
0.99
-2.79
-4.50
-4.03
-1.88
1.13
4.03
6.07
6.85
6.50
5.65
5.30
6.49
9.82
15.14
21.36
26.56
28.60
25.66
16.93
3.05
-13.85
-30.50
-43.27
-49.05
-46.22
-35.26
-18.93
-1.88
10.31
12.22
-0.02
-27.95
-70.58
-125.03
-187.61
-254.92
-324.35
-393.62
-459.88
-518.97
-565.63
-594.73
-603.04
-590.41
-559.85
-516.11
-463.93
-406.80
-346.82
-285.63
-225.34
-168.86
-119.10
-77.94
-45.09
-18.04
6.74
32.23
59.63
88.24
116.23
141.64
163.04
179.94
192.64
201.66
207.45
210.55
211.93
213.33
217.01
224.70
237.37
254.90
275.88
297.67
316.91
330.47
336.41
334.51
324.90
309.28
290.60
271.92
254.82
238.94
222.70
204.41
182.88
154.66
117.51
71.85
20.94
-30.53
-77.53
-115.01
-138.67
-146.05
-141.49
-130.30
-115.95
-99.72
-83.39
-70.88
-67.26
-76.99
-102.38
-148.58
-216.30
-299.92
-388.95
-472.95
-544.46
-598.78
-633.51
-614.06
-526.67
-389.38
-241.60
-114.92
-20.68
43.44
83.91
106.65
116.54
111.84
94.79
71.86
52.03
41.35
40.44
46.68
57.42
71.76
86.06
98.90
110.16
120.68
129.48
133.02
127.20
109.87
82.27
46.27
6.90
-28.58
-52.82
-62.31
-59.15
-49.68
-41.50
-40.48
-50.11
-69.21
-92.30
-111.16
-117.96
-107.81
-79.85
-37.16
14.37
66.93
112.84
146.08
163.46
164.63
151.83
129.31
102.31
75.52
51.34
29.28
6.68
-19.20
-49.12
-80.89
-109.93
-131.00
-139.72
-134.55
-116.85
-90.06
-58.13
-24.35
9.22
41.96
74.35
108.36
144.43
179.72
208.17
222.65
217.99
193.04
151.37
100.00
49.85
9.40
-18.00
-33.79
-41.14
-42.33
-38.16
-28.63
-13.97
9.04
41.22
79.43
117.89
151.96
180.40
204.67
227.18
249.65
277.95
314.64
356.81
397.69
431.54
456.39
473.33
484.44
456.06
372.59
246.39
110.06
-8.33
-97.19
-157.03
-193.09
-211.57
-218.52
-213.50
-197.76
-176.15
-155.87
-142.23
-136.49
-137.30
-143.12
-153.83
-167.23
-182.58
-200.45
-220.64
-240.24
-255.51
-264.75
-268.96
-270.20
-272.24
-270.34
-261.16
-244.77
-223.80
-202.19
-184.17
-173.07
-166.92
-163.03
-157.32
-147.40
-133.06
-115.45
-96.65
-78.85
-63.25
-48.57
-32.10
-10.10
18.67
52.15
86.71
117.76
141.10
154.31
158.24
154.41
144.63
129.78
110.04
88.40
68.77
54.34
46.90
48.16
57.31
71.83
88.10
101.79
113.09
123.21
132.61
141.08
150.33
161.20
173.51
186.44
197.67
209.88
226.09
247.47
255.16
235.76
188.47
125.88
76.03
39.11
13.02
-3.67
-16.22
-26.13
-31.46
-31.12
-25.96
-18.86
-20.12
-34.07
-61.33
-99.63
-143.91
-185.65
-216.65
-235.19
-240.54
-236.02
-224.01
-207.97
-191.91
-178.54
-164.04
-146.59
-125.43
-100.89
-75.78
-51.05
-26.99
-3.45
20.20
44.62
68.66
89.97
105.90
113.71
113.43
106.92
96.95
86.17
76.21
66.72
56.54
44.71
30.77
15.81
1.62
-10.16
-18.70
-24.26
-28.11
-31.44
-34.97
-39.00
-43.62
-48.93
-55.07
-62.11
-69.77
-77.63
-85.17
-92.18
-99.05
-106.47
-114.76
-123.37
-130.87
-135.46
-135.87
-131.93
-124.67
-115.80
-106.78
-98.06
-88.69
-76.53
-58.87
-33.33
1.28
44.31
93.03
143.00
188.81
225.31
248.57
256.66
249.65
229.32
198.59
161.02
120.47
80.81
45.59
17.55
-1.80
-12.51
-16.07
-14.87
-11.45
-7.66
-4.35
-1.28
2.38
7.39
13.82
20.85
26.97
30.58
30.67
27.30
21.69
15.87
12.09
12.21
17.34
27.67
42.51
60.29
78.61
94.48
104.81
107.14
100.42
85.29
63.94
39.31
14.23
-9.34
-30.52
-49.33
-66.21
-81.60
-95.63
-108.05
-118.30
-125.66
-129.51
-129.50
-125.79
-118.98
-110.03
-99.92
-89.35
-78.67
-67.96
-57.19
-46.44
-35.91
-25.85
-16.50
-8.03
-0.66
5.34
9.68
12.19
13.03
12.70
11.95
11.50
11.72
12.46
13.15
13.01
11.23
7.27
0.87
-7.83
-18.40
-30.08
-41.86
-52.43
-60.27
-63.90
-62.28
-55.11
-43.02
-27.43
-10.19
6.79
21.86
33.69
41.26
44.02
41.96
35.78
26.74
16.27
5.60
-4.61
-14.01
-22.34
-29.03
-33.35
-34.69
-33.03
-28.93
-23.15
-16.16
-7.88
1.90
13.03
24.43
34.35
41.15
44.16
44.18
42.96
42.16
42.36
42.65
41.29
36.86
29.34
20.35
12.50
8.22
8.72
13.56
21.20
29.80
38.18
46.24
54.66
64.19
74.96
86.31
97.09
106.29
113.33
118.01
120.08
118.90
113.55
103.43
88.87
71.23
52.45
34.02
16.35
-1.17
-19.43
-38.64
-57.96
-75.80
-90.77
-102.40
-111.30
-118.67
-125.48
-131.97
-137.54
-141.34
-142.81
-142.08
-139.85
-136.87
-133.40
-128.83
-122.02
-111.85
-97.98
-81.08
-62.58
-44.06
-26.67
-10.92
3.09
15.27
25.37
33.15
38.70
42.66
46.11
50.08
55.13
61.15
67.56
73.64
78.81
82.68
84.99
85.55
84.18
80.94
76.09
70.11
63.60
57.08
50.88
45.12
39.81
34.83
29.93
24.76
18.93
12.18
4.63
-3.08
-9.89
-14.76
-17.12
-17.35
-16.64
-16.49
-17.99
-21.33
-25.89
-30.79
-35.43
-39.77
-44.01
-48.06
-51.31
-52.77
-51.79
-48.62
-44.56
-41.36
-40.24
-41.08
-42.29
-41.49
-36.68
-27.23
-14.30
-0.35
11.92
20.64
25.46
27.37
27.88
28.13
28.25
27.57
25.29
21.30
16.53
12.58
10.77
11.35
13.20
14.31
12.73
7.41
-1.43
-12.60
-24.58
-35.93
-45.43
-51.77
-53.47
-49.04
-37.67
-19.89
2.13
25.13
45.82
61.97
73.00
79.74
83.60
85.81
86.92
87.12
86.64
86.04
86.00
86.76
87.71
87.46
84.42
77.52
66.72
52.90
37.37
21.40
5.90
-8.47
-21.23
-32.12
-41.41
-50.12
-59.92
-72.57
-89.12
-109.21
-130.94
-151.37
-167.40
-176.65
-178.19
-172.59
-161.72
-148.05
-133.88
-120.68
-108.89
-98.16
-88.00
-78.31
-69.65
-62.96
-59.03
-57.97
-59.10
-61.33
-63.71
-65.81
-67.83
-70.25
-73.16
-75.76
-76.18
-71.70
-59.48
-37.23
-3.94
39.84
92.06
149.46
207.82
262.16
307.16
337.87
350.91
345.45
323.78
290.78
252.61
215.01
181.86
154.69
133.09
115.60
100.49
86.38
72.37
58.00
43.24
28.45
14.43
2.18
-7.39
-13.79
-17.23
-18.53
-18.81
-19.01
-19.56
-20.29
-20.83
-20.97
-20.92
-21.26
-22.64
-25.41
-29.43
-34.30
-39.50
-44.70
-49.70
-54.35
-58.42
-61.63
-63.77
-64.82
-64.94
-64.37
-63.36
-62.15
-61.10
-60.69
-61.51
-64.01
-68.31
-74.17
-81.09
-88.67
-96.72
-105.23
-114.07
-122.67
-129.96
-134.56
-135.34
-131.87
-124.75
-115.47
-106.07
-98.58
-94.38
-93.54
-94.38
-93.53
-86.45
-68.51
-36.38
10.50
69.10
132.95
193.51
242.43
273.69
285.10
278.47
258.56
231.43
202.79
176.91
156.11
140.85
130.08
121.71
113.21
102.15
86.82
66.73
42.72
16.84
-8.12
-29.14
-43.65
-50.12
-48.56
-40.58
-29.00
-17.05
-7.54
-2.29
-1.96
-6.33
-14.58
-25.68
-38.49
-51.93
-64.94
-76.57
-86.01
-92.66
-96.20
-96.61
-94.30
-90.00
-84.67
-79.14
-73.84
-68.67
-63.10
-56.66
-49.20
-41.17
-33.40
-26.71
-21.63
-18.20
-16.09
-14.82
-13.95
-13.05
-11.72
-9.67
-6.94
-4.26
-2.95
-4.59
-10.19
-19.57
-31.06
-42.10
-50.14
-53.68
-52.69
-48.39
-42.57
-36.79
-32.06
-28.79
-26.97
-26.41
-26.81
-27.68
-28.37
-28.15
-26.39
-22.61
-16.63
-8.44
1.63
13.09
25.20
37.20
48.46
58.65
67.70
75.63
82.37
87.67
91.16
92.65
92.20
90.18
87.16
83.64
79.89
75.97
71.74
67.01
61.63
55.57
48.91
41.96
35.13
28.93
23.78
19.85
17.02
15.02
13.54
12.53
12.12
12.55
13.86
15.75
17.57
18.53
17.99
15.63
11.53
6.06
-0.27
-6.98
-13.71
-20.21
-26.32
-31.88
-36.65
-40.33
-42.51
-42.79
-41.01
-37.39
-32.78
-28.52
-26.14
-26.82
-31.00
-38.20
-47.19
-56.40
-64.25
-69.47
-71.22
-69.10
-63.24
-54.39
-43.77
-32.90
-23.25
-15.80
-10.94
-8.47
-7.89
-8.82
-11.07
-14.58
-19.07
-23.68
-26.97
-27.23
-23.20
-14.68
-2.74
10.48
22.57
31.61
36.75
38.20
36.83
33.59
29.16
23.92
18.17
12.39
7.19
3.13
0.38
-1.43
-3.19
-5.90
-10.23
-16.16
-22.98
-29.64
-35.11
-38.70
-40.04
-38.97
-35.40
-29.34
-20.99
-10.80
0.58
12.56
24.68
36.59
47.88
57.88
65.71
70.58
72.16
70.74
67.25
62.80
58.32
54.30
50.73
47.32
43.74
39.84
35.65
31.39
27.29
23.46
19.85
16.25
12.51
8.56
4.50
0.56
-3.03
-6.15
-8.74
-10.81
-12.41
-13.61
-14.57
-15.55
-16.74
-18.18
-19.62
-20.56
-20.49
-19.04
-16.18
-12.17
-7.43
-2.49
2.10
5.77
7.96
8.24
6.40
2.61
-2.62
-8.48
-14.01
-18.22
-20.36
-20.02
-17.36
-13.01
-7.94
-3.11
0.81
3.55
5.16
5.79
5.52
4.34
2.29
-0.47
-3.76
-7.40
-11.41
-16.02
-21.49
-28.06
-35.74
-44.19
-52.76
-60.43
-65.92
-67.85
-65.02
-56.78
-43.31
-25.61
-5.36
15.59
35.60
53.53
68.79
81.25
91.01
98.31
103.36
106.31
107.21
106.05
102.72
97.15
89.42
79.88
69.21
58.34
48.24
39.79
33.67
30.36
30.16
33.09
38.81
46.47
54.72
61.88
66.30
66.71
62.60
54.35
43.12
30.51
18.16
7.25
-1.71
-8.87
-14.79
-20.03
-24.86
-29.20
-32.77
-35.18
-35.98
-34.61
-30.46
-23.06
-12.45
0.51
14.12
26.40
35.73
41.50
44.28
45.39
46.28
47.87
50.39
53.43
56.37
58.55
59.47
58.71
55.99
51.22
44.54
36.29
26.88
16.58
5.31
-7.36
-22.17
-40.11
-62.16
-89.06
-120.65
-155.32
-189.70
-218.94
-237.84
-242.32
-230.89
-205.31
-170.20
-131.79
-96.17
-67.83
-48.91
-39.19
-36.75
-38.91
-42.95
-46.74
-48.98
-49.21
-47.72
-45.32
-43.04
-41.74
-41.76
-42.70
-43.55
-42.99
-39.75
-33.14
-23.33
-11.71
-0.77
6.52
7.96
3.28
-5.21
-13.28
-16.56
-12.68
-2.48
10.30
20.91
25.89
24.61
19.09
12.58
7.64
5.10
4.15
3.51
2.55
1.68
2.04
4.61
9.51
15.90
22.49
28.37
33.46
38.33
43.65
49.63
55.80
61.29
65.43
68.09
69.63
70.46
70.55
69.36
65.99
59.72
50.34
38.21
24.21
9.43
-5.05
-18.20
-29.20
-37.67
-43.75
-48.18
-52.04
-56.36
-61.69
-67.77
-73.54
-77.56
-78.55
-76.01
-70.51
-63.55
-56.99
-52.31
-50.15
-50.19
-51.74
-54.30
-57.97
-63.40
-71.25
-81.57
-93.44
-105.00
-113.86
-117.62
-114.42
-103.46
-85.26
-61.83
-36.37
-12.64
5.99
17.50
21.77
20.56
17.01
14.88
17.60
27.41
44.60
67.11
90.71
110.07
120.40
119.09
106.66
86.40
63.05
41.05
23.36
11.23
4.66
3.27
6.69
14.49
25.78
39.03
52.27
