1698574885.00
64.000000
-0.00
-0.00
-0.00
-0.00
-0.00
-0.00
-0.00
-0.00
-0.00
-0.00
0.00
0.01
0.01
-0.00
-0.03
-0.05
-0.05
0.00
0.13
0.36
0.66
1.01
1.37
1.72
2.06
2.40
2.79
3.24
3.80
4.42
5.06
5.66
6.20
6.68
7.15
7.68
8.31
9.14
10.09
11.04
11.88
12.56
13.14
13.76
14.65
15.96
17.91
20.32
22.90
25.38
27.58
29.57
31.68
34.32
37.81
42.54
48.15
54.10
59.83
64.97
69.58
74.14
79.34
85.71
93.76
103.00
112.62
121.73
129.77
136.75
143.30
150.75
157.77
166.64
177.95
191.79
206.97
220.57
228.25
225.36
208.53
176.87
132.76
80.05
23.07
-34.94
-92.44
-149.16
-205.23
-260.37
-313.74
-363.87
-409.83
-450.91
-486.50
-515.74
-537.23
-549.22
-549.97
-538.37
-514.21
-478.66
-433.84
-382.40
-326.99
-269.87
-212.76
-156.90
-103.31
-52.82
-6.38
35.12
71.00
100.96
125.10
143.91
158.10
168.42
175.52
179.85
181.69
181.24
178.71
174.36
168.58
161.79
154.42
146.83
139.25
131.76
124.28
116.70
108.89
100.85
92.70
84.72
77.21
70.38
64.25
58.62
53.13
47.42
41.30
34.90
28.62
23.01
18.48
15.13
12.60
10.23
7.32
3.45
-1.29
-6.27
-10.67
-13.71
-15.07
-15.05
-14.43
-14.23
-15.54
-19.10
-24.95
-32.03
-38.05
-40.00
-35.29
-23.16
-5.21
14.73
32.11
43.54
47.88
46.24
41.02
34.74
29.32
25.96
25.12
26.63
29.63
32.64
34.28
33.96
32.40
31.25
31.94
34.71
38.14
39.86
37.76
31.12
20.90
9.18
-1.85
-10.65
-16.67
-20.08
-21.45
-21.50
-20.59
-18.87
-16.32
-13.04
-9.41
-6.14
-4.03
-3.66
-4.98
-7.31
-9.66
-11.18
-11.57
-11.14
-10.47
-10.00
-9.66
-8.80
-6.55
-2.32
3.78
10.80
17.30
21.90
23.86
23.32
21.16
18.55
16.37
14.89
13.87
12.86
11.57
10.27
9.54
9.99
11.83
14.68
17.65
19.70
20.18
18.80
15.89
12.12
8.16
4.41
0.96
-2.29
-5.42
-8.32
-10.77
-12.40
-12.96
-12.44
-11.09
-9.44
-8.12
-7.69
-8.56
-10.76
-13.94
-17.43
-20.46
-22.36
-22.80
-21.81
-19.76
-17.25
-14.94
-13.32
-12.65
-12.78
-13.16
-13.00
-11.53
-8.41
-3.91
1.11
5.53
8.44
9.41
8.53
6.26
3.08
-0.71
-4.91
-9.30
-13.49
-16.95
-19.12
-19.72
-18.87
-17.00
-14.76
-12.66
-10.97
-9.67
-8.64
-7.77
-7.07
-6.66
-6.64
-7.00
-7.56
-8.11
-8.39
-8.23
-7.69
-6.97
-6.28
-5.70
-5.07
-4.00
-2.04
1.22
5.81
11.28
16.65
20.67
22.15
20.33
15.13
7.09
-2.92
-14.02
-25.67
-37.61
-49.75
-61.80
-73.16
-82.95
-90.29
-94.72
-96.49
-96.47
-95.85
-95.60
-95.97
-96.37
-95.50
-91.74
-83.48
-69.30
-48.07
-19.15
17.28
59.79
105.59
151.04
192.71
228.64
258.88
285.09
309.14
331.39
349.86
360.60
359.42
344.06
315.52
277.99
237.31
198.78
165.49
137.89
114.55
93.63
74.00
55.49
38.41
22.64
7.31
-9.03
-27.45
-47.93
-69.06
-88.70
-105.05
-117.52
-126.97
-135.12
-143.47
-152.29
-160.38
-165.47
-165.33
-158.78
-146.30
-129.88
-112.33
-96.36
-83.81
-75.32
-70.47
-68.21
-67.45
-67.32
-67.32
-67.15
-66.56
-65.29
-63.07
-59.84
-55.84
-51.56
-47.63
-44.53
-42.48
-41.37
-40.92
-40.87
-41.13
-41.80
-43.12
-45.29
-48.32
-51.89
-55.35
-57.79
-58.25
-55.96
-50.58
-42.38
-32.15
-21.02
-10.18
-0.64
6.94
12.22
15.12
15.75
14.37
11.40
7.43
3.18
-0.59
-3.27
-4.53
-4.38
-3.18
-1.48
0.14
1.20
1.49
1.03
0.01
-1.30
-2.70
-4.14
-5.80
-7.99
-11.02
-15.02
-19.81
-24.87
-29.45
-32.71
-34.00
-32.95
-29.58
-24.28
-17.72
-10.76
-4.36
0.54
3.15
3.01
0.06
-5.28
-12.23
-19.77
-27.02
-33.33
-38.50
-42.62
-45.94
-48.69
-50.98
-52.80
-54.12
-54.94
-55.32
-55.33
-55.00
-54.31
-53.13
-51.24
-48.27
-43.66
-36.72
-26.79
-13.64
2.35
20.12
38.17
55.02
69.65
81.57
90.71
97.06
100.44
100.56
97.28
90.91
82.39
73.01
64.01
56.20
49.83
44.73
40.59
37.25
34.71
33.02
32.06
31.51
30.93
29.96
28.40
26.32
23.87
21.17
18.22
14.91
11.12
6.86
2.31
-2.08
-5.66
-7.63
-7.25
-4.04
1.99
10.27
19.84
29.54
38.42
45.83
51.48
55.26
57.12
57.03
55.02
51.36
46.61
41.53
36.81
32.84
29.49
26.25
22.47
17.67
11.79
5.14
-1.75
-8.39
-14.56
-20.36
-26.13
-32.21
-38.84
-46.00
-53.39
-60.45
-66.39
-70.37
-71.64
-69.76
-64.69
-56.81
-46.77
-35.41
-23.62
-12.27
-2.17
5.93
11.53
14.44
14.89
13.54
11.26
8.94
7.33
6.84
7.59
9.39
11.82
14.31
16.21
17.05
16.58
14.90
12.37
9.41
6.33
3.15
-0.34
-4.47
-9.59
-15.81
-23.01
-30.75
-38.37
-45.15
-50.53
-54.25
-56.48
-57.71
-58.47
-59.12
-59.64
-59.68
-58.63
-55.92
-51.08
-43.88
-34.32
-22.69
-9.50
4.54
18.59
31.84
43.62
53.48
61.24
66.91
70.59
72.32
72.10
69.93
65.94
60.59
54.62
48.88
43.98
40.07
36.81
33.62
30.06
26.11
22.26
19.24
17.69
17.86
19.55
22.17
24.97
27.27
28.58
28.60
27.26
24.63
20.88
16.26
11.06
5.54
-0.02
-5.35
-10.13
-14.00
-16.62
-17.75
-17.37
-15.70
-13.13
-10.13
-7.09
-4.32
-1.99
-0.27
0.70
0.80
0.01
-1.55
-3.56
-5.57
-7.02
-7.40
-6.29
-3.56
0.66
5.87
11.42
16.64
21.01
24.27
26.37
27.33
27.13
25.67
22.86
18.79
13.75
8.25
2.86
-1.93
-5.84
-8.78
-10.82
-12.09
-12.81
-13.25
-13.70
-14.43
-15.59
-17.18
-19.12
-21.26
-23.53
-25.85
-28.12
-30.12
-31.48
-31.80
-30.75
-28.24
-24.51
-20.03
-15.46
-11.40
-8.32
-6.43
-5.73
-6.03
-7.12
-8.75
-10.71
-12.76
-14.63
-16.07
-16.88
-17.04
-16.68
-16.00
-15.13
-14.03
-12.48
-10.19
-7.06
-3.35
0.34
3.19
4.57
4.24
2.60
0.59
-0.60
0.13
3.41
9.24
16.97
25.52
33.70
40.53
45.49
48.56
50.12
50.72
50.85
50.86
50.81
50.53
49.59
47.37
43.25
36.82
28.14
17.88
7.13
-2.91
-11.28
-17.54
-21.79
-24.42
-25.87
-26.46
-26.33
-25.57
-24.44
-23.36
-22.90
-23.49
-25.25
-27.81
-30.40
-32.10
-32.15
-30.20
-26.31
-20.89
-14.45
-7.49
-0.48
6.12
11.79
15.99
18.29
18.51
16.82
13.80
10.26
7.07
4.93
4.17
4.64
5.76
6.75
6.95
6.05
4.19
1.89
-0.24
-1.78
-2.61
-2.95
-3.18
-3.65
-4.58
-6.01
-7.77
-9.53
-10.86
-11.24
-10.26
-7.78
-4.00
0.57
5.20
9.24
12.22
13.90
14.28
13.41
11.44
8.56
5.07
1.37
-2.07
-4.86
-6.74
-7.69
-7.86
-7.51
-6.92
-6.33
-5.86
-5.50
-5.19
-4.85
-4.49
-4.23
-4.25
-4.76
-5.83
-7.43
-9.34
-11.28
-12.92
-13.99
-14.28
-13.70
-12.26
-10.11
-7.50
-4.76
-2.28
-0.36
0.75
0.95
0.29
-1.07
-2.88
-4.83
-6.53
-7.52
-7.36
-5.72
-2.63
1.43
5.66
9.11
11.06
11.24
9.86
7.38
4.26
0.78
-2.94
-6.80
-10.55
-13.78
-16.08
-17.15
-16.96
-15.67
-13.46
-10.52
-6.94
-2.85
1.56
5.99
10.02
13.23
15.18
15.52
14.07
10.95
6.63
1.91
-2.34
-5.44
-7.13
-7.65
-7.53
-7.32
-7.34
-7.53
-7.64
-7.38
-6.66
-5.63
-4.61
-3.89
-3.65
-3.92
-4.63
-5.67
-6.85
-7.83
-8.11
-7.13
-4.36
0.30
6.48
13.31
19.67
24.53
27.17
27.22
24.73
20.10
14.04
7.57
1.90
-1.88
-3.06
-1.69
1.42
4.86
7.10
6.98
4.10
-1.06
-7.32
-13.28
-17.75
-20.14
-20.59
-19.82
-18.83
-18.46
-19.16
-20.86
-23.04
-24.92
-25.73
-24.90
-22.16
-17.61
-11.64
-4.85
2.02
8.20
12.99
15.83
16.47
15.02
12.01
8.24
4.60
1.77
0.10
-0.46
-0.21
0.41
1.07
1.52
1.67
1.53
1.17
0.67
0.07
-0.67
-1.68
-3.16
-5.30
-8.10
-11.34
-14.51
-16.89
-17.74
-16.56
-13.22
-8.02
-1.63
5.07
11.25
16.22
19.59
21.21
21.17
19.68
17.01
13.50
9.54
5.60
2.16
-0.39
-1.86
-2.32
-2.11
-1.67
-1.36
-1.38
-1.71
-2.26
-2.99
-3.98
-5.40
-7.37
-9.86
-12.62
-15.23
-17.15
-17.91
-17.16
-14.79
-10.87
-5.67
0.35
6.67
12.67
17.71
21.20
22.72
22.14
19.77
16.29
12.66
9.83
8.48
8.85
10.72
13.46
16.28
18.41
19.30
18.67
16.54
13.17
8.93
4.23
-0.66
-5.55
-10.42
-15.25
-19.95
-24.26
-27.75
-29.88
-30.13
-28.20
-24.09
-18.16
-11.03
-3.51
3.51
9.24
13.02
14.46
13.57
10.68
6.44
1.65
-2.90
-6.63
-9.25
-10.83
-11.70
-12.30
-12.98
-13.89
-14.84
-15.45
-15.27
-13.92
-11.29
-7.46
-2.72
2.58
8.15
13.76
19.27
24.58
29.62
34.30
38.53
42.18
45.06
47.03
47.98
47.85
46.60
44.17
40.52
35.68
29.82
23.33
16.76
10.73
5.74
2.02
-0.51
-2.15
-3.29
-4.24
-5.20
-6.25
-7.36
-8.54
-9.87
-11.54
-13.82
-16.89
-20.71
-24.92
-28.86
-31.71
-32.81
-31.80
-28.76
-24.12
-18.40
-12.11
-5.66
0.59
6.20
10.69
13.61
14.70
14.04
12.00
9.14
5.98
2.93
0.21
-2.03
-3.65
-4.53
-4.68
-4.31
-3.77
-3.45
-3.58
-4.16
-4.98
-5.81
-6.51
-7.12
-7.73
-8.28
-8.49
-7.81
-5.71
-1.85
3.61
10.12
16.85
22.99
27.95
31.49
33.63
34.60
34.75
34.44
34.06
33.92
34.21
34.94
35.91
36.83
37.45
37.58
37.14
36.00
33.98
30.76
26.05
19.79
12.14
3.63
-5.16
-13.71
-21.77
-29.34
-36.52
-43.21
-49.03
-53.33
-55.42
-54.92
-52.02
-47.55
-42.68
-38.63
-36.36
-36.42
-39.02
-44.07
-51.27
-59.92
-68.88
-76.57
-81.37
-82.16
-78.77
-72.14
-63.96
-56.02
-49.55
-44.88
-41.54
-38.69
-35.58
-31.89
-27.65
-23.19
-18.90
-15.12
-12.14
-10.12
-8.99
-8.41
-7.73
-6.21
-3.28
1.26
7.12
13.68
20.25
26.27
31.40
35.52
38.58
40.59
41.64
41.91
41.70
41.38
41.28
41.58
42.27
43.24
44.32
45.36
46.21
46.68
46.59
45.73
44.08
41.72
38.86
35.72
32.38
28.76
24.70
20.07
15.04
10.09
5.92
3.32
2.87
4.79
8.88
14.52
20.84
26.82
31.55
34.35
34.90
33.33
30.09
25.81
21.07
16.35
11.93
8.01
4.78
2.35
0.80
-0.01
-0.31
-0.42
-0.57
-0.78
-0.88
-0.62
0.22
1.66
3.49
5.41
7.12
8.45
9.39
10.02
10.44
10.66
10.65
10.40
9.97
9.53
9.32
9.50
10.07
10.81
11.43
11.66
11.35
10.50
9.12
7.17
4.48
0.90
-3.58
-8.65
-13.71
-18.02
-20.96
-22.27
-22.16
-21.19
-20.00
-19.08
-18.61
-18.59
-18.97
-19.84
-21.39
-23.81
-26.94
-30.31
-33.17
-34.89
-35.27
-34.60
-33.36
-31.86
-29.94
-26.99
-22.33
-15.69
-7.47
1.35
9.64
16.53
21.71
25.38
27.92
29.66
30.68
30.89
30.26
28.92
27.29
25.94
25.37
25.74
26.78
27.86
28.28
27.56
25.63
22.77
19.37
15.68
11.70
7.20
1.97
-4.01
-10.50
-17.03
-23.00
-27.85
-31.10
-32.44
-31.80
-29.41
-25.78
-21.68
-17.98
-15.53
-14.94
-16.52
-20.10
-25.05
-30.39
-35.06
-38.29
-39.78
-39.74
-38.72
-37.24
-35.63
-33.97
-32.21
-30.35
-28.51
-26.88
-25.63
-24.81
-24.39
-24.32
-24.65
-25.44
-26.73
-28.46
-30.42
-32.36
-34.05
-35.30
-35.97
-35.84
-34.62
-31.99
-27.83
-22.29
-15.93
-9.57
-4.07
-0.12
1.92
2.08
0.55
-2.31
-6.14
-10.52
-14.92
-18.75
-21.45
-22.61
-22.14
-20.20
-17.18
-13.51
-9.57
-5.53
-1.45
2.70
6.93
11.12
15.04
18.34
20.71
21.93
22.02
21.21
19.94
18.74
18.09
18.35
19.71
22.15
25.49
29.40
33.40
36.95
39.51
40.60
39.97
37.64
33.90
29.27
24.35
19.72
15.81
12.83
10.78
9.50
8.69
8.06
7.33
6.33
4.99
3.34
1.44
-0.60
-2.67
-4.70
-6.68
-8.66
-10.74
-12.99
-15.39
-17.75
-19.73
-20.87
-20.74
-19.04
-15.71
-10.96
-5.26
0.81
6.60
11.53
15.16
17.23
17.67
16.58
14.26
11.16
7.84
4.83
2.50
0.99
0.17
-0.24
-0.51
-0.82
-1.21
-1.62
-2.04
-2.55
-3.35
-4.67
-6.73
-9.65
-13.44
-18.03
-23.21
-28.68
-34.00
-38.68
-42.17
-43.97
-43.75
-41.42
-37.22
-31.69
-25.62
-19.85
-15.13
-11.90
-10.28
-10.09
-10.93
-12.34
-13.85
-14.96
-15.24
-14.27
-11.79
-7.73
-2.25
4.26
11.29
18.28
24.75
30.40
35.06
38.71
41.37
43.07
43.76
43.36
41.84
39.24
35.84
32.15
28.84
26.61
26.04
27.39
30.51
34.94
39.96
44.74
48.51
50.64
50.71
48.61
44.53
39.01
32.78
26.65
21.21
16.79
13.38
10.82
8.91
7.50
6.51
5.88
5.43
4.89
3.99
2.54
0.57
-1.72
-4.06
-6.25
-8.29
-10.32
-12.53
-14.97
-17.43
-19.47
-20.52
-20.09
-17.95
-14.22
-9.32
-3.85
1.56
6.37
10.22
12.85
14.14
14.07
12.66
10.09
6.67
2.87
-0.76
-3.72
-5.71
-6.77
-7.23
-7.59
-8.30
-9.60
-11.45
-13.65
-15.94
-18.19
-20.46
-23.03
-26.21
-30.26
-35.23
-40.89
-46.72
-52.04
-56.20
-58.79
-59.71
-59.17
-57.51
-55.04
-51.92
-48.26
-44.19
-39.99
-35.99
-32.40
-29.15
-25.85
-21.99
-17.07
-10.76
-2.79
7.13
19.25
33.57
49.67
66.59
83.08
98.03
110.87
121.69
130.90
138.78
145.05
148.79
148.74
143.82
133.70
119.01
101.29
82.63
65.12
50.35
39.13
31.48
26.82
24.38
23.36
23.05
22.72
21.56
18.80
13.85
6.66
-2.20
-11.61
-20.36
-27.48
-32.59
-35.91
-38.03
-39.59
-40.96
-42.18
-43.01
-43.11
-42.27
-40.43
-37.77
-34.59
-31.25
-28.09
-25.35
-23.19
-21.72
-20.99
-21.01
-21.78
-23.12
-24.75
-26.22
-27.06
-26.91
-25.58
-23.19
-20.03
-16.57
-13.19
-10.19
-7.69
-5.69
-4.16
-3.07
-2.44
-2.24
-2.29
-2.22
-1.63
-0.18
2.19
5.24
8.53
11.56
13.97
15.56
16.33
16.31
15.63
14.41
12.83
11.10
9.38
7.68
5.87
3.71
1.06
-1.97
-5.00
-7.47
-8.80
-8.66
-7.05
-4.33
-1.14
1.85
4.06
5.13
5.01
3.81
1.81
-0.69
-3.45
-6.20
-8.72
-10.83
-12.40
-13.51
-14.45
-15.69
-17.58
-20.22
-23.25
-25.97
-27.70
-27.98
-26.92
-25.06
-23.17
-21.91
-21.64
-22.34
-23.68
-25.28
-26.72
-27.64
-27.74
-26.74
-24.50
-21.03
-16.55
-11.46
-6.27
-1.43
2.72
6.05
8.50
10.09
10.83
10.68
9.72
8.14
6.30
4.64
3.60
3.39
3.99
5.12
6.42
7.58
8.44
9.00
9.36
9.58
9.69
9.64
9.40
8.94
8.29
7.47
6.51
5.47
4.46
3.70
3.46
4.01
5.53
8.06
11.50
15.65
20.17
24.64
28.59
31.59
33.35
33.79
33.06
31.48
29.37
27.12
25.12
23.79
23.48
24.37
26.30
28.79
31.10
32.54
32.66
31.35
28.82
25.39
21.37
16.94
12.17
7.08
1.62
-4.29
-10.82
-18.24
-26.84
-36.65
-47.36
-58.14
-67.76
-74.92
-78.64
-78.60
-75.22
-69.46
-62.49
-55.35
-48.72
-42.99
-38.34
-34.98
-33.10
-32.75
-33.74
-35.45
-37.07
-37.83
-37.32
-35.67
-33.41
-31.14
-29.22
-27.54
-25.77
-23.61
-21.11
-18.69
-17.00
-16.44
-17.03
-18.36
-19.83
-21.02
-21.89
-22.77
-24.09
-26.05
-28.34
-30.27
-30.98
-29.85
-26.86
-22.67
-18.36
-15.08
-13.62
-14.12
-16.12
-18.81
-21.39
-23.40
-24.74
-25.55
-25.89
-25.56
-24.08
-20.97
-15.99
-9.42
-1.91
5.74
12.89
19.26
24.84
29.65
33.57
36.26
37.42
36.98
35.35
33.38
32.03
32.12
33.95
37.32
41.56
45.88
49.55
52.05
53.18
52.95
51.46
48.84
45.18
40.54
35.10
29.19
23.27
17.86
13.41
10.10
7.82
6.26
5.02
3.81
2.51
1.17
-0.08
-1.15
-2.06
-2.97
-4.05
-5.43
-7.13
-8.99
-10.74
-12.05
-12.58
-12.08
-10.37
-7.35
-3.04
2.37
8.51
14.71
20.17
24.17
26.20
26.26
24.76
22.39
19.82
17.41
15.17
12.88
10.36
7.64
5.02
2.90
1.54
0.88
0.63
0.41
-0.01
-0.61
-1.27
-2.01
-3.16
-5.33
-9.10
-14.60
-21.30
-27.97
-33.11
-35.42
-34.21
-29.64
-22.52
-13.95
-5.05
3.31
10.57
16.35
20.48
22.88
23.66
23.14
21.78
20.10
18.52
17.28
16.38
15.66
14.97
14.22
13.42
12.67
12.05
11.53
11.01
10.29
9.21
7.74
5.95
4.05
2.13
0.23
-1.72
-3.75
-5.67
-7.08
-7.45
-6.37
-3.76
0.14
4.83
9.75
14.46
18.59
21.86
23.98
24.73
24.04
22.09
19.34
16.38
13.81
12.02
11.19
11.15
11.57
12.00
11.98
11.20
9.51
6.99
3.94
0.74
-2.26
-4.87
-7.17
-9.44
-12.02
-15.13
-18.68
-22.23
-25.16
-26.81
-26.75
-24.89
-21.43
-16.76
-11.35
-5.66
-0.12
4.85
8.80
11.38
12.31
11.55
9.33
6.13
2.59
-0.64
-3.02
-4.31
-4.53
-3.97
-3.07
-2.34
-2.29
-3.36
-5.85
-9.86
-15.22
-21.49
-28.05
-34.23
-39.52
-43.65
-46.66
-48.66
-49.78
-49.98
-49.06
-46.82
-43.22
-38.53
-33.35
-28.43
-24.44
-21.80
-20.67
-20.97
-22.52
-25.08
-28.32
-31.83
-35.08
-37.55
-38.85
-38.82
-37.52
-35.19
-32.13
-28.53
-24.51
-20.02
-14.88
-8.89
-1.83
6.34
15.42
24.88
33.99
41.99
48.36
53.04
56.40
59.20
62.20
65.92
70.44
75.42
80.23
84.14
86.56
87.06
85.41
81.53
75.53
67.75
58.81
49.53
40.80
33.31
27.36
22.82
19.28
16.30
13.56
10.99
8.67
6.66
4.97
3.46
1.96
0.35
-1.46
-3.47
-5.70
-8.16
-10.82
-13.52
-15.91
-17.49
-17.69
-16.10
-12.60
-7.50
-1.43
4.81
10.45
14.98
18.11
19.82
20.18
19.28
17.22
14.19
10.50
6.60
3.01
0.18
-1.64
-2.50
-2.69
-2.63
-2.66
-2.99
-3.60
-4.40
-5.26
-6.16
-7.13
-8.31
-9.80
-11.70
-14.04
-16.75
-19.59
-22.18
-24.00
-24.53
-23.39
-20.50
-16.08
-10.60
-4.62
1.29
6.61
10.90
13.77
14.96
14.44
12.39
9.27
5.65
2.15
-0.75
-2.74
-3.81
-4.13
-4.01
-3.78
-3.71
-3.93
-4.41
-5.08
-5.81
-6.58
-7.41
-8.41
-9.71
-11.43
-13.62
-16.21
-18.99
-21.53
-23.28
-23.64
-22.16
-18.67
-13.35
-6.73
0.46
7.35
13.18
17.36
19.60
19.91
18.58
16.09
13.00
9.82
6.99
4.82
3.48
3.00
3.27
4.02
4.90
5.59
5.89
5.74
5.16
4.18
2.75
0.77
-1.81
-4.87
-8.10
-10.97
-12.90
-13.39
-12.14
-9.14
-4.62
1.01
7.28
13.68
19.65
24.60
27.92
29.06
27.68
23.81
17.91
10.72
3.06
-4.44
-11.50
-18.22
-24.90
-31.94
-39.69
-48.42
-58.23
-68.99
-80.22
-91.18
-101.04
-109.31
-116.11
-122.25
-128.82
-136.58
-145.48
-154.46
-161.83
-165.87
-165.36
-159.77
-149.28
-134.61
-116.89
-97.61
-78.45
-60.93
-46.02
-33.92
-24.09
-15.64
-7.72
0.31
8.80
17.94
27.78
38.10
48.32
57.53
64.77
69.37
71.37
71.23
69.65
67.18
64.15
60.71
56.98
53.23
49.90
47.67
47.16
48.87
53.07
59.80
68.87
79.87
92.20
105.15
118.28
131.15
143.32
154.25
163.38
170.12
173.91
174.41
171.75
167.24
162.26
157.72
153.73
149.89
145.51
139.91
132.62
123.48
113.89
104.59
95.08
83.93
69.99
53.19
34.71
16.55
0.95
-8.28
-9.38
-3.43
6.37
16.96
26.83
36.25
46.54
59.10
76.92
100.02
124.76
144.91
155.19
153.16
139.46
116.87
72.94
7.15
-68.62
-135.67
-180.89
-201.38
-202.30
-192.49
-180.91
-174.01
-171.60
-170.70
-166.54
-157.97
-145.18
-129.36
-112.35
-95.97
-80.94
-64.42
-46.60
-27.65
-9.69
4.36
11.85
11.59
4.35
-7.58
-20.15
-30.60
-37.68
-41.85
-43.58
-43.25
-41.62
-40.29
-41.16
-44.57
-49.40
-52.95
-52.68
-47.33
-37.63
-25.87
-14.46
-4.72
3.71
11.02
16.45
17.94
13.12
0.85
-17.41
-37.68
-54.56
-63.38
-62.08
-51.29
-33.67
-12.84
7.85
25.98
39.76
48.33
51.89
51.57
47.88
41.63
33.87
25.64
17.80
10.67
3.77
-4.37
-16.11
-32.95
-54.20
-76.70
-95.69
-106.59
-107.07
-98.09
-80.28
-58.04
-36.37
-18.75
-6.41
1.10
4.62
4.32
-0.21
-8.88
-19.99
-29.82
-33.89
-28.91
-14.03
8.70
34.92
59.38
77.53
87.10
87.55
79.32
63.49
41.96
17.48
-6.81
-27.74
-42.13
-46.05
-36.70
-13.87
19.38
57.30
92.63
118.26
129.31
119.23
89.08
48.28
8.73
-23.33
-48.62
-70.10
-88.31
-100.26
-103.80
-95.69
-76.79
-52.57
-30.33
-15.18
-7.94
-5.91
-5.20
-3.69
-0.09
4.61
8.22
9.12
7.69
5.82
5.28
6.35
7.70
8.16
6.64
2.71
-3.28
-10.43
-17.77
-24.73
-31.31
-37.68
-43.44
-48.04
-50.79
-50.85
-47.34
-39.75
-28.53
-15.46
-3.28
5.47
9.21
7.95
3.04
-3.72
-11.23
-19.46
-29.15
-40.78
-53.87
-67.24
-79.65
-90.34
-98.88
-104.49
-105.54
-100.08
-87.25
-68.83
-49.34
-34.24
-27.04
-26.82
-27.97
-22.68
-4.70
27.65
70.97
118.82
164.77
204.79
237.62
263.71
283.74
297.70
305.02
305.21
298.40
285.43
267.46
245.56
220.66
193.60
165.23
136.34
107.56
79.33
52.18
26.99
5.09
-12.41
-25.21
-34.03
-40.45
-46.04
-51.59
-56.83
-60.92
-63.32
-64.67
-66.75
-71.69
-80.68
-93.09
-106.55
-118.00
-125.10
-126.98
-124.23
-118.04
-109.34
-98.58
-86.10
-72.69
-59.82
-49.08
-41.16
-35.12
-28.68
-19.50
-6.72
8.40
22.94
33.97
40.08
41.90
41.45
40.76
40.74
41.06
40.91
39.85
38.28
37.00
36.51
36.51
35.96
33.63
28.64
20.67
9.92
-3.04
-17.28
-31.61
-44.85
-56.16
-65.29
-72.58
-78.49
-83.25
-86.82
-89.32
-91.43
-94.18
-98.21
-102.97
-106.71
-107.53
-104.85
-100.36
-97.59
-100.12
-109.52
-124.32
-140.55
-153.60
-160.13
-159.17
-151.74
-139.58
-123.88
-104.78
-81.80
-54.94
-25.50
3.70
29.05
47.42
57.36
59.48
55.99
49.42
41.46
32.40
21.60
8.59
-6.00
-20.20
-31.32
-37.15
-36.88
-31.45
-23.02
-14.08
-6.62
-1.61
0.85
1.28
0.38
-1.15
-2.70
-3.78
-4.00
-3.17
-1.32
1.35
4.60
8.27
12.33
16.85
21.93
27.62
33.96
40.95
48.59
56.77
65.17
73.27
80.36
85.73
88.91
89.72
88.31
85.03
80.31
74.55
68.11
61.26
54.28
47.48
41.09
35.26
30.05
25.35
21.03
16.97
13.09
9.33
5.62
1.81
-2.34
-7.05
-12.45
-18.48
-24.82
-31.07
-36.80
-41.66
-45.41
-47.79
-48.53
-47.37
-44.16
-39.05
-32.50
-25.20
-17.91
-11.21
-5.45
-0.84
2.58
4.78
5.83
5.92
5.32
4.29
2.94
1.24
-0.85
-3.15
-5.14
-6.13
-5.60
-3.63
-1.04
0.81
0.48
-2.99
-9.50
-17.60
-24.50
-26.64
-20.67
-4.73
20.71
52.74
86.83
118.19
143.10
159.58
167.36
167.19
160.20
147.50
130.29
110.09
88.82
68.55
51.05
37.38
27.67
21.19
16.68
12.78
8.48
3.35
-2.40
-8.22
-13.53
-18.03
-21.70
-24.66
-26.92
-28.22
-28.11
-26.13
-22.06
-16.09
-8.75
-0.70
7.46
15.35
22.79
29.60
35.47
39.96
42.62
43.22
41.94
39.33
36.12
32.92
29.97
27.08
23.80
19.66
14.41
8.16
1.30
-5.73
-12.62
-19.38
-26.27
-33.66
-41.77
-50.49
-59.32
-67.49
-74.19
-78.78
-80.99
-80.87
-78.79
-75.31
-71.05
-66.67
-62.77
-59.85
-58.21
-57.91
-58.75
-60.31
-62.06
-63.46
-64.03
-63.38
-61.27
-57.75
-53.15
-48.16
-43.67
-40.55
-39.29
-39.73
-40.96
-41.56
-39.99
-35.09
-26.41
-14.24
0.69
17.42
35.12
53.09
70.68
87.10
101.28
112.03
118.36
119.75
116.38
109.12
99.57
89.75
81.79
77.39
77.39
81.58
88.65
96.45
102.70
105.88
105.62
102.63
98.23
93.64
89.82
86.91
84.14
80.20
74.16
65.72
55.16
42.83
28.89
13.98
-1.22
-16.11
-30.09
-41.99
-50.47
-54.78
-55.39
-54.03
-51.89
-49.90
-48.67
-48.48
-48.45
-46.86
-41.94
-32.71
-19.31
-1.38
20.72
45.36
65.51
73.31
65.24
44.84
22.27
-0.24
-22.03
-42.87
-61.57
-76.35
-85.39
-87.78
-84.44
-78.22
-73.25
-71.94
-75.15
-82.42
-92.54
-103.35
-112.34
-117.27
-116.91
-111.44
-101.09
-86.77
-70.02
-52.62
-35.62
-19.08
-2.45
14.91
33.06
52.21
72.19
92.36
111.79
129.63
145.27
158.16
167.61
172.72
172.97
168.18
158.70
145.41
129.70
113.16
97.17
82.52
69.34
57.37
46.22
35.47
24.76
13.80
2.40
-9.42
-21.23
-32.17
-41.02
-46.66
-48.46
-46.70
-42.42
-36.98
-31.54
-26.62
-22.14
-17.77
-13.48
-9.73
-7.43
-7.49
-10.38
-15.88
-23.16
-31.13
-38.92
-46.13
-52.91
-59.69
-66.83
-74.40
-81.99
-88.86
-94.11
-97.05
-97.38
-95.34
-91.68
-87.57
-84.30
-83.05
-84.66
-89.43
-97.08
-106.75
-117.16
-126.90
-134.75
-139.92
-142.25
-142.17
-140.53
-138.25
-136.07
-134.31
-132.84
-131.30
-129.40
-127.19
-125.28
-124.61
-126.06
-129.99
-135.91
-142.63
-148.68
-152.85
-154.52
-153.66
-150.60
-145.70
-139.13
-130.87
-120.86
-109.25
-96.38
-82.60
-67.95
-52.02
-34.15
-13.94
8.10
30.48
51.09
68.11
80.88
90.13
97.60
105.02
113.23
121.84
129.72
135.80
139.76
142.14
143.92
145.89
148.20
150.33
151.29
150.14
146.42
140.42
133.19
126.27
121.13
118.70
119.20
122.25
127.21
133.43
140.14
146.21
149.85
148.78
140.91
125.25
102.50
74.97
45.77
17.78
-7.19
-28.53
-46.31
-60.70
-71.52
-78.43
-81.38
-80.95
-78.37
-75.10
-72.24
-70.17
-68.52
-66.56
-63.80
-60.36
-56.99
-54.74
-54.34
-55.74
-57.91
-59.27
-58.28
-54.13
-47.04
-38.11
-28.79
-20.29
-13.29
-7.90
-4.02
-1.53
-0.43
-0.69
-2.08
-4.03
-5.75
-6.45
-5.62
-3.20
0.46
4.69
8.88
12.63
16.04
19.55
23.83
29.37
36.25
43.95
51.43
57.46
60.92
61.27
58.72
54.30
49.60
46.28
45.60
47.97
52.95
59.42
66.06
71.76
75.75
77.66
77.26
74.35
68.79
60.67
50.42
38.92
27.32
16.82
8.27
2.02
-2.15
-4.85
-6.87
-8.87
-11.26
-14.17
-17.57
-21.37
-25.52
-30.08
-35.17
-40.96
-47.58
-55.07
-63.22
-71.45
-78.80
-84.21
-86.80
-86.27
-82.95
-77.66
-71.32
-64.66
-58.09
-51.76
-45.71
-39.75
-33.42
-25.92
-16.34
-4.09
10.59
26.59
42.26
56.15
67.55
76.52
83.62
89.33
93.79
96.99
99.01
100.33
101.65
103.54
106.07
108.79
111.09
112.56
113.37
114.13
115.62
118.43
122.73
128.29
134.54
140.72
146.01
149.61
150.94
149.68
145.75
139.31
130.54
119.60
106.61
91.82
75.79
59.39
43.67
29.58
17.64
7.83
-0.35
-7.56
-14.27
-20.61
-26.45
-31.62
-36.21
-40.61
-45.37
-50.90
-57.22
-63.88
-70.10
-75.07
-78.09
-78.73
-76.77
-72.10
-64.70
-54.71
-42.52
-28.77
-14.34
-0.18
12.79
23.71
31.82
36.40
36.90
33.00
24.84
13.15
-0.74
-15.15
-28.47
-39.63
-48.40
-55.34
-61.50
-67.86
-74.97
-82.87
-91.17
-99.45
-107.43
-115.03
-122.23
-128.95
-134.98
-140.04
-143.89
-146.32
-147.16
-146.11
-142.80
-136.85
-128.05
-116.48
-102.57
-86.96
-70.34
-53.27
-36.16
-19.30
-2.86
12.92
27.71
41.01
52.17
60.57
65.80
67.93
67.53
65.61
63.31
61.57
60.79
60.88
61.31
61.45
60.80
59.09
56.28
52.48
47.85
42.53
36.74
30.67
24.60
18.79
13.56
9.17
5.82
3.66
2.75
3.11
4.61
7.01
9.98
13.12
15.94
18.00
18.96
18.68
17.33
15.29
13.12
11.41
10.67
11.12
12.70
15.12
18.05
21.16
24.13
26.72
28.79
30.47
31.82
32.85
33.63
34.40
35.32
36.35
37.16
37.32
36.86
35.83
34.43
33.28
33.32
35.23
38.93
43.50
47.55
50.29
50.81
48.50
43.47
36.76
29.72
23.50
18.85
16.11
15.93
17.78
19.88
19.97
16.16
7.17
-7.30
-26.25
-51.63
-78.98
-100.83
-112.57
-115.42
-113.77
-111.62
-110.54
-109.94
-108.28
-104.08
-98.03
-92.37
-89.39
-88.74
-88.40
-85.82
-79.18
-67.95
-52.63
-35.27
-18.49
-4.22
7.06
15.88
23.29
29.03
33.47
37.68
42.67
49.23
57.94
69.12
82.41
96.70
110.19
121.00
127.38
127.87
121.69
109.17
91.92
72.29
52.73
35.02
20.09
7.94
-1.97
-10.20
-16.91
-21.90
-25.07
-26.70
-27.43
-27.82
-28.01
-27.54
-25.74
-22.25
-17.60
-13.18
-10.64
-11.16
-14.82
-20.63
-27.14
-33.12
-38.05
-42.04
-45.45
-48.46
-50.93
-52.45
-52.74
-51.86
-50.25
-48.51
-47.18
-46.56
-46.64
-47.20
-47.91
-48.47
-48.73
-48.69
-48.47
-48.26
-48.11
-47.85
-47.09
-45.33
-42.18
-37.60
-31.96
-26.04
-20.72
-16.71
-14.30
-13.31
-13.23
-13.44
-13.47
-13.15
-12.54
-11.83
-11.19
-10.61
-9.92
-8.87
-7.27
-5.11
-2.53
0.18
2.76
5.04
7.00
8.75
10.36
11.92
13.36
14.51
15.15
15.05
14.03
12.03
9.23
5.98
2.85
0.50
-0.45
0.40
3.09
7.32
12.48
17.82
22.57
26.17
28.25
28.71
27.61
25.14
21.56
17.21
12.55
8.08
4.24
1.33
-0.65
-1.95
-2.94
-3.96
-5.19
-6.56
-7.88
-8.95
-9.70
-10.20
-10.66
-11.28
-12.22
-13.56
-15.29
-17.35
-19.59
-21.75
-23.41
-24.03
-23.12
-20.33
-15.61
-9.27
-1.85
6.04
13.86
21.20
27.80
33.42
37.81
40.69
41.88
41.38
39.48
36.74
33.87
31.52
30.08
29.51
29.32
28.73
26.99
23.62
18.65
12.62
6.30
0.37
-4.88
-9.59
-14.22
-19.19
-24.67
-30.43
-35.95
-40.63
-43.92
-45.40
-44.81
-42.07
-37.36
-31.15
-24.18
-17.29
-11.24
-6.53
-3.41
-1.94
-2.03
-3.53
-6.11
-9.26
-12.37
-14.93
-16.68
-17.74
-18.42
-18.92
-19.22
-19.16
-18.59
-17.64
-16.78
-16.57
-17.40
-19.29
-21.82
-24.32
-26.11
-26.64
-25.40
-21.96
-16.07
-7.89
1.97
12.47
22.41
30.72
36.76
40.42
42.02
42.15
41.43
40.33
39.13
37.79
35.84
32.59
27.34
19.77
10.09
-0.99
-12.40
-22.58
-30.10
-34.16
-34.85
-32.94
-29.43
-25.13
-20.48
-15.51
-9.35
-1.48
7.51
15.86
21.74
24.54
25.14
25.24
26.10
28.87
33.11
36.95
38.24
36.26
32.58
30.26
32.00
38.67
50.59
66.81
85.52
104.78
123.39
141.04
157.47
171.43
171.28
149.19
107.14
57.40
13.28
-19.32
-42.40
-60.88
-77.64
-91.44
-96.57
-88.29
-67.01
-38.73
-12.46
4.28
9.04
4.54
-3.71
-9.17
-7.78
0.73
12.28
21.53
23.44
15.27
-2.66
-27.08
-51.81
-70.17
-77.85
-72.70
-58.03
-42.76
-35.35
-37.66
-45.02
-50.55
-50.44
-45.69
-40.39
-38.51
-41.10
-45.48
-47.60
-45.07
-38.49
-30.85
-25.56
-25.03
-28.86
-34.61
-38.59
-37.49
-29.86
-16.55
-0.33
15.18
26.56
31.32
28.49
19.23
6.41
-6.28
-15.42
-18.90
-16.37
-8.64
2.24
13.96
24.96
34.13
40.90
45.44
48.47
50.56
51.80
51.98
50.97
49.03
46.48
43.37
39.59
34.92
29.49
23.97
19.34
16.27
14.62
13.63
11.88
8.54
3.76
-1.36
-5.31
-6.87
-5.69
-2.38
1.88
5.85
8.90
10.92
12.12
12.63
12.29
10.71
7.52
2.96
-2.18
-6.62
-9.19
-9.45
-8.02
-6.42
-6.36
-8.92
-13.98
-20.45
-26.81
-32.06
-36.09
-39.58
-43.35
-47.73
-52.41
-56.70
-60.03
-62.23
-63.52
-64.14
-64.10
-63.10
-60.90
-57.57
-53.65
-49.97
-47.30
-45.99
-45.86
-46.34
-46.63
-46.02
-43.88
-39.80
-33.54
-25.05
-14.47
-2.12
11.54
25.93
40.39
54.21
66.65
77.06
84.92
89.93
92.01
91.31
88.09
82.72
75.56
66.87
56.83
45.54
33.15
20.02
6.78
-5.68
-16.40
-24.58
-29.82
-32.13
-31.95
-29.89
-26.60
-22.59
-18.26
-13.79
-9.26
-4.66
0.02
4.74
9.42
13.96
18.33
22.61
27.02
31.77
36.92
42.31
47.52
52.10
55.69
58.16
59.61
60.09
59.58
57.83
54.58
49.67
43.31
35.98
28.33
20.99
14.36
8.65
3.99
0.51
-1.58
-2.09
-0.96
1.63
5.26
9.30
13.10
16.11
17.97
18.59
18.12
16.87
15.28
13.78
12.70
12.23
12.35
12.90
13.66
14.41
15.06
15.62
16.14
16.57
16.73
16.24
14.71
11.91
7.89
3.06
-2.01
-6.75
-10.81
-14.11
-16.64
-18.27
-18.63
-17.14
-13.30
-6.94
1.56
11.38
21.47
30.89
38.94
45.29
49.76
52.23
52.53
50.46
45.87
38.78
29.43
18.30
6.01
-6.76
-19.43
-31.56
-42.83
-53.11
-62.39
-70.82
-78.60
-85.96
-92.98
-99.55
-105.40
-110.14
-113.54
-115.70
-117.17
-118.80
-121.46
-125.67
-131.39
-138.01
-144.69
-150.55
-154.94
-157.34
-157.26
-154.16
-147.49
-136.90
-122.45
-104.67
-84.45
-62.74
-40.42
-18.17
3.40
23.69
42.05
57.87
70.77
80.65
87.77
92.54
95.47
96.96
97.29
96.68
95.30
93.33
90.89
87.95
84.28
79.59
73.68
66.67
59.07
51.57
44.78
38.93
33.79
28.79
23.32
17.07
10.14
3.04
-3.46
-8.56
-11.63
-12.33
-10.64
-6.91
-1.75
4.14
10.03
15.35
19.64
22.61
24.10
24.08
22.65
20.06
16.67
12.89
9.16
5.81
3.04
0.93
-0.58
-1.60
-2.27
-2.71
-3.00
-3.21
-3.45
-3.84
-4.51
-5.58
-7.10
-9.04
-11.41
-14.26
-17.70
-21.83
-26.53
-31.38
-35.59
-38.20
-38.33
-35.45
-29.65
-21.62
-12.42
-3.26
4.87
11.33
15.90
18.65
19.76
19.37
17.60
14.61
10.64
6.13
1.63
-2.33
-5.36
-7.33
-8.35
-8.60
-8.34
-7.72
-6.87
-5.93
-5.10
-4.61
-4.65
-5.34
-6.70
-8.74
-11.51
-15.09
-19.54
-24.67
-29.94
-34.45
-37.07
-36.81
-33.05
-25.84
-15.85
-4.28
7.53
18.37
27.36
34.11
38.55
40.87
41.30
40.06
37.33
33.39
28.61
23.49
18.56
14.32
11.05
8.84
7.53
6.83
6.42
5.97
5.26
4.16
2.65
0.74
-1.48
-3.93
-6.52
-9.18
-11.92
-14.84
-18.11
-21.95
-26.36
-31.04
-35.26
-37.93
-37.92
-34.41
-27.21
-16.90
-4.68
8.00
19.81
29.79
37.44
42.65
45.52
46.26
45.13
42.42
38.52
33.85
28.87
24.04
19.73
16.21
13.64
12.03
11.26
11.17
11.59
12.33
13.13
13.67
13.59
12.61
10.71
8.16
5.41
2.81
0.42
-2.07
-5.08
-8.75
-12.62
-15.61
-16.43
-14.09
-8.41
-0.08
9.62
19.33
28.01
35.07
40.31
43.59
44.82
43.88
40.84
36.03
30.05
23.60
17.34
11.69
6.86
2.81
-0.61
-3.60
-6.36
-8.95
-11.36
-13.47
-15.15
-16.39
-17.30
-18.14
-19.18
-20.65
-22.65
-25.24
-28.45
-32.31
-36.67
-41.10
-44.82
-46.83
-46.17
-42.28
-35.25
-25.75
-14.87
-3.79
6.57
15.58
22.88
28.23
31.43
32.40
31.21
28.25
24.22
19.96
16.22
13.48
11.83
10.98
10.45
9.78
8.68
7.18
5.52
4.07
3.11
2.65
2.40
1.98
0.95
-0.92
-3.67
-7.15
-11.15
-15.32
-19.22
-22.23
-23.59
-22.61
-18.90
-12.61
-4.49
4.31
12.53
19.19
23.79
26.29
26.99
26.26
24.36
21.44
17.57
12.97
8.01
3.24
-0.81
-3.80
-5.73
-6.84
-7.53
-8.14
-8.87
-9.72
-10.57
-11.29
-11.86
-12.34
-12.84
-13.50
-14.43
-15.71
-17.38
-19.38
-21.47
-23.17
-23.81
-22.67
-19.21
-13.30
-5.30
3.96
13.41
22.01
29.09
34.39
38.00
40.19
41.19
41.07
39.81
37.35
33.80
29.42
24.70
20.14
16.22
13.19
11.09
9.73
8.78
7.91
6.88
5.63
4.22
2.73
1.12
-0.79
-3.25
-6.44
-10.40
-14.95
-19.82
-24.65
-29.11
-32.85
-35.39
-36.23
-34.92
-31.26
-25.44
-18.10
-10.19
-2.75
3.36
7.61
9.89
10.39
9.51
7.70
5.36
2.76
0.11
-2.43
-4.73
-6.63
-7.95
-8.60
-8.61
-8.14
-7.47
-6.87
-6.54
-6.51
-6.71
-7.05
-7.47
-8.05
-8.91
-10.20
-11.96
-14.11
-16.51
-18.97
-21.25
-23.06
-23.96
-23.44
-21.01
-16.44
-9.93
-2.17
5.83
13.02
18.60
22.16
23.71
23.51
21.89
19.14
15.51
11.20
6.47
1.70
-2.65
-6.09
-8.26
-9.08
-8.81
-7.97
-7.17
-6.85
-7.17
-7.96
-8.95
-9.91
-10.79
-11.76
-13.00
-14.60
-16.51
-18.58
-20.64
-22.51
-24.01
-24.87
-24.70
-23.05
-19.56
-14.20
-7.24
0.62
8.50
15.52
21.00
24.59
26.19
25.92
24.01
20.79
16.65
12.04
7.47
3.40
0.19
-2.01
-3.22
-3.65
-3.56
-3.27
-3.08
-3.19
-3.66
-4.45
-5.41
-6.36
-7.24
-8.08
-9.07
-10.39
-12.22
-14.64
-17.58
-20.80
-23.89
-26.28
-27.33
-26.47
-23.30
-17.83
-10.51
-2.15
6.19
13.45
18.81
21.84
22.52
21.22
18.46
14.85
10.82
6.72
2.76
-0.85
-3.90
-6.18
-7.60
-8.22
-8.31
-8.24
-8.34
-8.79
-9.52
-10.37
-11.13
-11.75
-12.36
-13.25
-14.76
-17.09
-20.25
-24.00
-27.88
-31.28
-33.56
-34.12
-32.53
-28.59
-22.48
-14.71
-6.07
2.53
10.20
16.30
20.46
22.60
22.87
21.53
18.90
15.35
11.32
7.33
3.86
1.29
-0.26
-0.95
-1.11
-1.06
-1.04
-1.05
-1.02
-0.85
-0.63
-0.59
-1.04
-2.26
-4.41
-7.56
-11.61
-16.36
-21.41
-26.10
-29.60
-31.06
-29.89
-25.99
-19.77
-12.08
-3.91
3.85
10.54
15.69
19.01
20.28
19.46
16.74
12.65
7.88
3.20
-0.81
-3.86
-5.95
-7.21
-7.80
-7.83
-7.36
-6.49
-5.41
-4.41
-3.76
-3.61
-3.96
-4.71
-5.75
-7.08
-8.84
-11.26
-14.42
-18.16
-21.91
-24.78
-25.79
-24.14
-19.54
-12.25
-3.00
7.23
17.44
26.84
34.84
41.03
45.14
47.07
46.89
44.95
41.81
38.16
34.67
31.74
29.53
27.88
26.54
25.27
24.00
22.80
21.80
21.00
20.21
19.11
17.42
15.03
12.14
9.12
6.36
4.09
2.32
0.90
-0.36
-1.62
-3.01
-4.64
-6.48
-8.28
-9.38
-8.84
-5.80
0.16
8.62
18.43
28.08
36.21
42.03
45.34
46.30
45.16
42.07
37.28
31.28
24.88
19.06
14.57
11.69
10.16
9.41
8.88
8.24
7.43
6.52
5.52
4.33
2.77
0.72
-1.82
-4.68
-7.69
-10.74
-13.85
-17.16
-20.83
-25.02
-29.77
-34.96
-40.23
-45.01
-48.52
-49.99
-48.78
-44.62
-37.70
-28.64
-18.44
-8.16
1.17
8.79
14.26
17.51
18.75
18.40
16.94
14.79
12.33
9.81
7.48
5.62
4.43
4.04
4.38
5.21
6.16
6.86
7.03
6.52
5.29
3.38
0.89
-2.00
-5.08
-8.10
-10.93
-13.59
-16.27
-19.23
-22.58
-26.16
-29.46
-31.68
-31.88
-29.20
-23.07
-13.42
-0.85
13.41
27.65
40.13
49.46
54.97
56.79
55.55
52.17
47.44
41.93
36.06
30.21
24.83
20.35
17.03
14.79
13.23
11.77
9.92
7.50
4.72
2.04
-0.12
-1.59
-2.62
-3.85
-6.05
-9.81
-15.27
-22.03
-29.16
-35.53
-40.06
-42.09
-41.48
-38.56
-33.96
-28.38
-22.37
-16.32
-10.50
-5.16
-0.60
2.79
4.59
4.35
1.67
-3.72
-11.76
-21.75
-32.26
-41.25
-46.65
-47.03
-42.28
-33.69
-23.58
-14.35
-7.66
-3.99
-2.77
-2.89
-3.37
-3.71
-3.86
-4.05
-4.46
-5.18
-6.15
-7.31
-8.57
-9.70
-10.30
-9.82
-7.66
-3.41
2.94
11.01
20.04
29.09
37.19
43.49
47.42
48.71
47.46
44.15
39.50
34.32
29.31
24.93
21.36
18.56
16.38
14.65
13.26
12.13
11.18
10.27
9.26
8.00
6.36
4.31
1.85
-0.93
-3.96
-7.22
-10.72
-14.47
-18.36
-22.04
-24.93
-26.29
-25.47
-22.11
-16.33
-8.74
-0.26
8.11
15.51
21.38
25.42
27.55
27.80
26.38
23.57
19.84
15.74
11.82
8.51
6.02
4.33
3.31
2.77
2.57
2.59
2.72
2.77
2.52
1.78
0.51
-1.20
-3.20
-5.30
-7.46
-9.76
-12.39
-15.47
-18.89
-22.29
-25.00
-26.28
-25.49
-22.34
-17.00
-10.09
-2.46
5.04
11.69
17.06
20.92
23.17
23.79
22.81
20.40
16.92
12.87
8.80
5.23
2.48
0.69
-0.23
-0.50
-0.39
-0.19
-0.14
-0.38
-0.99
-1.92
-3.11
-4.50
-6.03
-7.71
-9.62
-11.83
-14.45
-17.50
-20.80
-23.94
-26.27
-27.06
-25.69
-21.89
-15.90
-8.36
-0.21
7.62
14.37
19.56
23.01
24.73
24.85
23.59
21.20
17.98
14.31
10.59
7.25
4.65
2.99
2.25
2.17
2.37
2.48
2.28
1.72
0.93
-0.00
-1.08
-2.40
-4.12
-6.34
-9.04
-12.11
-15.37
-18.61
-21.63
-24.14
-25.75
-25.97
-24.34
-20.60
-14.86
-7.61
0.33
8.02
14.66
19.72
23.02
24.65
24.84
23.88
22.02
19.48
16.51
13.38
10.42
7.93
6.13
5.08
4.63
4.53
4.49
4.31
3.92
3.33
2.57
1.64
0.45
-1.10
-3.02
-5.22
-7.57
-9.95
-12.36
-14.93
-17.74
-20.75
-23.67
-25.93
-26.87
-25.88
-22.64
-17.28
-10.36
-2.72
4.74
11.31
16.58
20.47
23.03
24.35
24.41
23.21
20.84
17.66
14.25
11.26
9.18
8.22
8.19
8.66
9.17
9.40
9.29
8.99
8.71
8.53
8.33
7.79
6.57
4.51
1.78
-1.20
-3.96
-6.16
-7.81
-9.17
-10.62
-12.43
-14.66
-17.20
-19.80
-22.23
-24.24
-25.54
-25.76
-24.51
-21.47
-16.56
-9.97
-2.21
5.98
13.82
20.59
25.72
28.93
30.19
29.75
28.06
25.70
23.26
21.23
19.95
19.56
20.02
21.14
22.61
24.09
25.26
25.95
26.20
26.19
26.17
26.23
26.20
25.62
23.93
20.75
16.08
10.39
4.41
-1.17
-6.03
-10.35
-14.61
-19.28
-24.45
-29.67
-33.96
-36.26
-35.77
-32.40
-26.75
-19.97
-13.24
-7.44
-2.92
0.42
2.79
4.29
4.77
4.02
2.01
-0.99
-4.42
-7.65
-10.25
-12.14
-13.52
-14.68
-15.79
-16.78
-17.48
-17.68
-17.36
-16.71
-16.09
-15.85
-16.19
-17.08
-18.29
-19.53
-20.57
-21.39
-22.13
-23.04
-24.32
-25.96
-27.74
-29.24
-29.95
-29.42
-27.43
-23.94
-19.20
-13.52
-7.32
-1.04
4.85
9.85
13.53
15.58
16.00
15.05
13.17
10.87
8.50
6.23
4.11
2.20
0.65
-0.33
-0.57
-0.08
0.91
2.03
2.86
3.11
2.70
1.74
0.46
-0.92
-2.21
-3.39
-4.57
-5.93
-7.63
-9.70
-11.93
-13.88
-14.98
-14.64
-12.47
-8.33
-2.43
4.77
12.63
20.42
27.45
33.14
37.13
39.33
39.95
39.52
38.71
38.21
38.53
39.74
41.43
42.74
42.57
40.05
34.80
27.16
17.98
8.27
-1.11
-9.67
-17.17
-23.44
-28.23
-31.23
-32.33
-31.83
-30.50
-29.38
-29.35
-30.79
-33.36
-36.18
-38.08
-38.07
-35.63
-30.81
-24.13
-16.27
-7.87
0.56
8.57
15.68
21.30
24.83
25.95
24.70
21.60
17.43
12.98
8.73
4.86
1.26
-2.19
-5.52
-8.54
-11.01
-12.73
-13.73
-14.25
-14.71
-15.53
-17.01
-19.23
-22.07
-25.19
-28.16
-30.54
-31.92
-32.00
-30.65
-27.95
-24.30
-20.35
-16.79
-14.09
-12.19
-10.45
-7.87
-3.60
2.64
10.28
18.07
24.64
29.01
30.96
30.94
29.68
27.65
24.94
21.33
16.67
11.26
5.93
1.72
-0.48
-0.45
1.35
3.87
5.97
6.88
6.40
4.90
2.97
1.11
-0.53
-2.17
-4.23
-6.99
-10.52
-14.59
-18.90
-23.21
-27.42
-31.46
-35.08
-37.74
-38.66
-37.12
-32.78
-25.89
-17.17
-7.54
2.21
11.50
19.87
26.86
31.89
34.43
34.23
31.48
26.83
21.15
15.29
9.87
5.22
1.52
-1.12
-2.65
-3.16
-2.90
-2.26
-1.64
-1.36
-1.54
-2.15
-3.07
-4.20
-5.52
-7.09
-9.03
-11.53
-14.78
-18.91
-23.89
-29.34
-34.49
-38.18
-39.20
-36.68
-30.46
-21.23
-10.29
0.88
11.04
19.41
25.68
29.74
31.54
31.00
28.19
23.48
17.66
11.77
6.83
3.47
1.79
1.38
1.53
1.65
1.41
0.86
0.23
-0.30
-0.75
-1.37
-2.44
-4.20
-6.71
-9.87
-13.55
-17.65
-22.08
-26.63
-30.96
-34.49
-36.52
-36.42
-33.82
-28.83
-22.02
-14.34
-6.86
-0.46
4.38
7.61
9.44
10.16
9.91
8.73
6.67
3.91
0.87
-1.91
-3.93
-4.91
-4.85
-3.96
-2.58
-1.04
0.42
1.68
2.70
3.51
4.09
4.36
4.16
3.30
1.59
-0.99
-4.32
-8.05
-11.73
-14.78
-16.64
-16.78
-14.78
-10.45
-3.92
4.36
13.64
22.98
31.46
38.33
43.11
45.60
45.88
44.26
41.16
37.09
32.52
27.89
23.58
19.89
17.05
15.16
14.18
13.88
13.88
13.79
13.31
12.31
10.84
9.01
6.92
4.62
2.07
-0.81
-4.05
-7.69
-11.72
-16.06
-20.43
-24.35
-27.09
-27.88
-26.10
-21.54
-14.47
-5.58
4.16
13.79
22.41
29.33
34.07
36.41
36.42
34.45
31.08
26.96
22.67
18.69
15.28
12.61
10.75
9.71
9.42
9.66
10.11
10.39
10.16
9.22
7.58
5.39
2.93
0.44
-1.95
-4.24
-6.56
-9.10
-12.00
-15.31
-18.86
-22.23
-24.79
-25.82
-24.67
-20.96
-14.75
-6.54
2.82
12.29
20.92
27.97
32.98
35.85
36.70
35.84
33.70
30.77
27.51
24.31
21.48
19.23
17.62
16.57
15.89
15.30
14.58
13.58
12.34
11.00
9.73
8.60
7.53
6.28
4.51
1.93
-1.62
-6.09
-11.28
-16.78
-22.06
-26.46
-29.24
-29.75
-27.56
-22.70
-15.65
-7.32
1.20
8.90
14.99
19.01
20.78
20.42
18.32
15.05
11.32
7.79
4.88
2.74
1.32
0.47
0.11
0.19
0.62
1.19
1.56
1.42
0.69
-0.48
-1.76
-2.84
-3.61
-4.20
-4.88
-5.96
-7.63
-9.93
-12.71
-15.57
-17.89
-18.89
-17.77
-14.04
-7.65
0.86
10.55
20.25
28.88
35.56
39.63
40.72
38.72
33.83
26.61
17.92
8.67
-0.31
-8.51
-15.76
-22.10
-27.62
-32.32
-36.13
-38.92
-40.65
-41.44
-41.52
-41.16
-40.63
-40.09
-39.61
-39.22
-38.89
-38.60
-38.32
-38.04
-37.83
-37.86
-38.29
-39.19
-40.43
-41.52
-41.76
-40.34
-36.62
-30.35
-21.78
-11.63
-0.96
9.06
17.42
23.48
27.09
28.52
28.36
27.30
25.89
24.48
23.26
22.29
21.67
21.55
22.04
23.19
24.90
26.98
29.13
31.12
32.74
33.92
34.65
35.02
35.14
35.17
35.18
35.22
35.18
34.77
33.58
31.12
27.06
21.37
14.50
7.27
0.74
-4.14
-6.82
-7.34
-6.28
-4.58
-3.18
-2.83
-3.93
-6.51
-10.46
-15.55
-21.61
-28.41
-35.63
-42.72
-49.00
-53.75
-56.48
-57.05
-55.74
-53.16
-50.05
-47.04
-44.53
-42.60
-40.98
-39.08
-36.18
-31.59
-24.99
-16.64
-7.38
1.50
8.72
13.35
15.10
14.24
11.40
7.34
2.80
-1.44
-4.60
-5.81
-4.41
-0.15
6.54
14.66
22.91
30.13
35.52
38.84
40.21
39.93
38.28
35.53
31.92
27.77
23.44
19.32
15.71
12.79
10.55
8.84
7.40
5.97
4.34
2.41
0.24
-2.06
-4.33
-6.48
-8.57
-10.74
-13.22
-16.21
-19.87
-24.26
-29.29
-34.65
-39.76
-43.78
-45.83
-45.21
-41.66
-35.48
-27.45
-18.56
-9.69
-1.50
5.62
11.36
15.43
17.51
17.42
15.26
11.51
6.83
1.92
-2.73
-6.87
-10.44
-13.39
-15.56
-16.70
-16.60
-15.20
-12.68
-9.47
-6.12
-3.25
-1.37
-0.83
-1.78
-4.16
-7.74
-12.14
-16.87
-21.33
-24.79
-26.53
-25.94
-22.72
-17.01
-9.42
-0.89
7.52
14.92
20.78
24.88
27.30
28.17
27.60
25.66
22.44
18.18
13.35
8.55
4.39
1.35
-0.43
-1.13
-1.20
-1.20
-1.68
-3.05
-5.52
-9.16
-13.91
-19.69
-26.41
-33.96
-42.11
-50.48
-58.49
-65.44
-70.62
-73.49
-73.79
-71.53
-66.96
-60.43
-52.28
-42.76
-32.03
-20.23
-7.64
5.18
17.45
28.26
36.84
42.70
45.68
45.89
43.71
39.72
34.68
29.55
25.39
23.12
23.20
25.42
28.94
32.74
35.80
37.45
37.46
36.08
33.78
31.08
28.27
25.47
22.95
20.82
19.14
18.05
17.93
19.29
22.49
27.46
33.70
41.13
49.39
57.90
66.06
73.45
79.82
84.86
88.20
89.53
89.92
90.35
91.27
92.63
94.25
95.90
97.23
97.75
96.98
95.96
95.26
94.55
92.87
89.46
84.14
77.38
69.96
54.21
28.15
-4.64
-37.90
-67.31
-91.63
-110.79
-124.39
-131.82
-133.04
-127.93
-118.19
-106.82
-96.60
-88.85
-83.27
-78.81
-74.84
-71.23
-67.19
-62.30
-56.56
-50.09
-43.11
-36.00
-29.43
-24.23
-20.94
-18.72
-16.24
-12.95
-8.30
-2.58
3.04
6.99
8.07
6.05
2.05
-2.50
-6.50
-9.39
-11.09
-11.60
-10.88
-8.89
-6.20
-3.70
-2.57
-3.87
-7.95
-14.35
-21.92
-29.21
-35.05
-38.81
-40.47
-40.41
-39.15
-36.99
-34.06
-30.22
-25.20
-19.05
-11.99
-4.33
3.63
11.58
19.09
25.47
29.89
31.63
30.49
27.02
22.47
18.41
16.18
16.42
18.91
22.97
27.91
33.33
39.12
45.36
52.05
59.08
65.99
72.05
76.62
79.39
80.52
80.32
79.26
77.86
76.52
75.13
72.86
68.67
61.76
52.00
39.83
26.38
13.38
2.92
-3.18
-4.06
0.28
8.77
19.20
27.98
30.80
24.36
9.71
-7.53
-21.27
-27.91
-27.32
-21.56
-13.63
-5.53
2.39
11.02
21.15
31.79
41.35
47.06
48.96
47.77
44.93
42.32
41.54
43.28
46.08
48.01
47.29
43.00
34.73
22.64
6.97
-13.04
-33.32
-53.51
-74.43
-97.48
-123.99
-155.09
-190.75
-229.33
-267.53
-300.93
-326.19
-340.96
-344.80
-339.26
-327.50
-313.13
-299.23
-287.55
-278.24
-270.67
-262.94
-252.74
-238.14
-218.59
-195.15
-170.22
-146.62
-126.37
-110.49
-98.38
-88.49
-79.06
-68.77
-56.85
-42.86
-26.52
-7.58
13.74
36.85
60.69
83.95
105.36
124.07
139.80
152.87
163.99
173.96
183.54
193.18
202.93
212.35
220.58
226.66
229.76
229.49
225.87
219.30
210.28
199.29
186.66
172.73
157.92
142.81
128.08
114.32
101.89
90.79
80.84
71.78
63.42
55.73
48.78
42.64
37.22
32.25
27.30
21.96
15.91
9.15
1.97
-5.06
-11.15
-15.50
-17.48
-16.77
-13.49
-8.11
-1.40
5.82
12.78
18.89
23.69
26.84
28.08
27.28
24.50
20.06
14.53
8.59
2.86
-2.26
-6.73
-10.82
-14.94
-19.45
-24.45
-29.80
-35.12
-40.06
-44.52
-48.74
-53.35
-59.21
-67.15
-77.63
-90.37
-104.13
-116.84
-125.86
-128.69
-123.62
-110.32
-89.90
-64.67
-37.49
-11.14
12.17
31.00
44.64
53.06
56.74
56.67
54.20
50.85
48.05
46.88
47.93
51.31
56.66
63.47
71.05
78.64
85.45
90.81
94.28
95.83
95.75
94.50
92.47
89.83
86.51
82.31
77.24
71.34
64.70
57.43
49.74
42.11
35.28
30.07
27.24
27.25
29.94
34.52
39.79
44.53
47.75
48.79
47.39
43.62
38.16
31.76
25.05
18.44
12.25
6.72
2.03
-1.77
-4.74
-6.17
-5.84
-4.20
-2.15
-0.42
0.73
1.32
1.35
0.70
0.89
2.60
5.23
7.36
8.14
7.83
7.55
8.58
11.93
20.75
36.26
56.85
79.06
99.73
117.31
131.48
142.46
150.47
159.24
170.63
183.47
194.51
201.04
202.51
200.08
195.67
168.24
110.58
31.93
-48.95
-118.35
-172.35
-212.43
-241.16
-260.56
-272.29
-274.46
-267.68
-254.84
-240.31
-227.61
-218.09
-211.46
-206.73
-202.69
-195.36
-182.14
-162.97
-139.69
-115.04
-91.25
-69.91
-52.08
-38.28
-26.81
-16.35
-6.81
0.85
5.81
8.12
8.49
7.76
6.59
6.15
6.96
8.76
10.79
12.34
13.21
13.46
13.26
12.74
12.29
12.15
12.30
12.45
12.22
11.36
9.67
7.05
3.56
-0.56
-4.79
-8.48
-11.04
-12.07
-11.51
-9.60
-6.81
-3.65
-0.60
1.95
3.64
4.26
3.72
2.15
-0.10
-2.54
-4.70
-6.25
-7.02
-6.90
-5.78
-3.43
0.38
5.74
12.55
20.49
29.14
38.18
47.44
56.86
66.35
75.64
84.23
91.42
96.53
99.03
98.70
95.66
90.35
83.49
75.94
68.56
62.07
56.93
53.24
50.64
48.39
45.60
41.52
35.75
28.37
19.85
10.80
1.79
-6.72
-14.47
-21.15
-26.47
-30.16
-32.19
-32.81
-32.46
-31.60
-30.44
-29.03
-27.36
-25.45
-23.56
-22.09
-21.43
-21.76
-23.02
-24.94
-27.33
-29.93
-32.31
-33.95
-34.37
-33.31
-30.89
-27.59
-24.15
-21.69
-21.03
-22.48
-25.89
-30.94
-37.30
-44.62
-52.51
-60.50
-68.61
-76.68
-84.29
-90.94
-96.30
-100.33
-103.07
-104.40
-104.03
-102.35
-99.55
-95.70
-90.76
-84.79
-77.99
-70.48
-62.12
-48.22
-26.96
0.24
29.30
56.03
77.85
93.59
103.13
107.12
106.85
103.15
97.03
89.30
80.56
71.12
61.26
51.44
42.29
34.75
28.15
22.05
16.29
11.19
7.32
5.33
5.81
8.97
14.39
20.45
25.27
27.21
25.53
20.73
14.23
8.43
5.67
7.34
13.43
23.18
35.28
48.15
60.31
70.63
78.11
82.09
82.50
79.55
73.48
64.13
51.19
34.68
15.24
-4.99
-23.08
-36.56
-44.49
-47.87
-49.33
-51.85
-57.39
-66.24
-77.20
-88.53
-98.67
-106.69
-111.98
-114.52
-114.28
-111.27
-105.61
-97.68
-87.96
-76.56
-62.94
-46.29
-27.07
-6.74
12.69
29.57
43.16
53.75
62.39
70.16
77.44
82.35
82.45
76.34
64.59
49.34
33.25
18.70
7.26
-0.69
-7.49
-16.10
-28.46
-44.77
-64.17
-85.83
-109.32
-134.34
-150.84
-150.81
-132.86
-102.69
-67.52
-32.46
-0.89
24.64
42.85
54.16
58.94
58.34
54.36
48.49
41.50
33.28
23.41
12.24
1.00
-9.72
-19.30
-26.97
-32.04
-34.44
-33.63
-30.23
-24.97
-18.35
-11.33
-4.38
2.46
9.48
17.07
25.62
35.89
48.50
63.17
77.65
89.13
94.95
93.60
85.32
72.02
56.96
43.05
31.69
22.26
14.21
7.44
2.40
-0.13
0.67
5.85
15.36
27.68
39.91
50.21
57.59
61.52
61.53
52.50
32.62
4.99
-21.26
-44.84
-66.31
-86.13
-103.57
-117.84
-128.28
-133.81
-134.10
-129.96
-123.31
-114.75
-104.07
-90.85
-75.00
-56.91
-36.86
-15.61
5.45
24.32
39.91
51.52
58.61
61.04
59.52
56.15
53.39
52.96
54.99
58.63
62.34
64.79
65.59
65.56
66.26
68.85
73.17
77.72
80.50
79.86
75.03
66.31
54.78
41.80
28.51
15.54
3.04
-9.14
-21.17
-32.79
-43.16
-51.11
-55.74
-56.94
-55.60
-52.88
-50.32
-49.01
-48.90
-48.87
-47.57
-44.28
-39.20
-33.35
-27.39
-22.73
-20.82
-21.70
-23.39
-22.67
-16.57
-3.84
14.15
34.82
53.30
64.97
68.62
67.39
66.80
71.81
84.97
105.69
132.30
159.88
181.54
191.34
185.99
164.73
129.14
83.43
24.69
-35.57
-78.98
-94.53
-85.28
-62.92
-40.59
-28.13
-29.05
-40.43
-53.73
-62.11
-64.33
-63.87
-64.91
-70.12
-78.92
-86.76
-87.86
-77.69
-57.55
-33.78
-13.24
0.77
8.88
12.82
16.01
21.55
30.23
38.36
40.20
32.92
19.02
5.78
-1.17
1.02
10.64
22.60
30.71
30.44
21.09
5.45
-9.86
-17.26
-11.44
7.66
35.57
66.23
94.37
119.05
140.96
161.47
181.37
200.55
217.79
227.81
226.80
212.43
184.65
145.65
99.88
52.20
6.58
-35.09
-72.98
-107.90
-140.97
-173.11
-205.57
-239.41
-275.76
-314.80
-354.53
-390.55
-416.84
-428.61
-424.45
-407.30
-382.24
-354.99
-329.74
-307.72
-287.36
-265.43
-239.02
-206.28
-166.42
-118.00
-60.47
4.47
72.53
137.80
194.68
239.28
270.60
290.14
302.06
309.79
313.80
312.52
304.81
291.87
277.22
264.99
247.37
220.00
182.73
137.96
88.51
37.36
-11.96
-56.18
-93.12
-121.72
-142.72
-153.09
-149.51
-130.53
-97.33
-54.01
-6.79
37.93
75.77
101.60
112.41
108.61
93.85
73.85
54.37
39.63
31.21
27.77
26.14
23.20
18.04
10.15
1.07
-6.81
-11.82
-14.05
-15.07
-17.07
-21.26
-27.84
-36.47
-46.00
-54.71
-60.65
-63.44
-61.75
-55.02
-43.75
-29.76
-15.28
-1.65
11.56
25.22
38.97
51.25
59.24
60.30
53.41
39.77
22.22
3.90
-12.73
-25.73
-33.00
-32.25
-22.24
-5.26
14.02
28.11
29.31
13.21
-18.80
-59.65
-98.86
-126.58
-137.14
-130.36
-110.62
-84.26
-56.97
-30.38
-7.16
11.19
24.06
31.39
33.81
32.67
30.19
29.08
31.50
37.89
47.24
57.29
65.36
69.46
68.76
63.71
55.75
46.79
38.55
32.83
31.04
33.87
41.19
51.93
64.34
76.20
84.91
87.59
82.02
67.34
44.54
16.36
-13.62
-41.96
-66.22
-85.35
-99.29
-108.01
-111.27
-109.07
-102.36
-93.22
-83.60
-74.08
-63.47
-49.81
-31.92
-10.54
11.37
29.73
41.33
45.68
45.23
43.53
43.13
44.54
46.89
48.60
48.24
44.64
37.22
25.78
9.85
-11.42
-38.54
-70.34
-100.70
-120.09
-122.58
-110.16
-89.74
-67.99
-49.13
-36.21
-27.62
-22.30
-20.27
-22.33
-28.38
-37.01
-45.38
-50.38
-49.56
-41.65
-27.51
-9.62
8.70
25.32
38.94
48.80
54.34
55.30
52.19
46.07
38.73
32.14
28.87
29.72
33.68
39.17
45.73
54.59
67.57
85.77
108.17
132.76
155.11
170.02
174.02
166.42
148.74
123.19
92.09
50.80
4.43
-35.67
-59.99
-66.68
-60.56
-49.53
-41.30
-40.95
-49.48
-62.87
-76.33
-86.45
-91.12
-89.35
-81.52
-69.32
-55.34
-42.50
-32.39
-26.49
-25.13
-26.59
-26.70
-20.50
-5.21
17.44
40.95
56.77
56.63
36.05
-3.40
-54.19
-105.51
-146.64
-169.28
-168.83
-144.55
-100.21
-43.51
15.47
67.05
104.20
124.11
128.48
122.26
111.38
100.36
91.21
83.69
77.29
71.82
67.55
65.18
66.05
71.51
82.13
96.84
112.29
124.09
127.31
117.19
90.30
45.66
-15.02
-87.45
-164.64
-237.17
-293.06
-321.00
-314.45
-274.23
-208.27
-129.29
-51.11
17.98
65.86
84.60
76.21
50.21
17.94
-10.31
-26.10
-24.32
-6.32
23.31
57.85
89.76
112.52
122.85
121.54
112.31
99.55
83.72
66.50
49.04
31.26
11.90
-10.39
-35.61
-62.02
-87.10
-108.98
-126.99
-141.53
-152.77
-159.57
-159.04
-147.69
-123.68
-89.12
-50.43
-15.89
7.56
17.74
18.14
16.13
19.43
32.31
53.78
78.40
99.50
112.09
115.20
111.82
106.84
104.45
106.13
110.17
113.02
111.31
103.13
88.75
69.96
48.77
26.84
5.08
-16.40
-37.65
-58.12
-76.38
-90.03
-96.81
-95.96
-88.21
-75.75
-62.02
-50.43
-43.16
-40.52
-40.46
-40.07
-37.34
-30.99
-20.81
-7.99
5.57
18.05
28.29
36.45
43.05
47.68
50.37
51.59
51.65
50.87
49.56
44.49
34.55
25.33
17.82
9.51
-0.96
-14.22
-29.79
-46.07
-60.81
-71.31
-75.94
-75.47
-71.31
-65.01
-58.18
-51.99
-46.93
-42.87
-38.92
-34.38
-29.74
-25.39
-21.59
-18.60
-16.54
-15.20
-14.06
-12.19
-8.98
-4.87
-0.56
3.20
5.79
7.07
7.50
7.90
9.09
11.35
14.00
16.08
16.79
15.79
13.36
10.23
7.19
4.54
1.93
-1.66
-7.19
-15.03
-24.63
-34.46
-42.62
-47.40
-48.03
-44.91
-39.44
-33.45
-28.56
-25.74
-25.16
-26.37
-28.57
-30.78
-31.96
-31.11
-27.44
-20.66
-11.20
-0.22
10.71
20.26
27.90
34.07
39.94
46.64
54.61
63.11
70.61
75.47
76.83
75.05
71.55
68.19
66.42
66.84
69.17
72.68
76.63
80.49
83.82
86.04
86.31
83.72
77.84
69.02
58.38
47.44
37.54
29.47
23.46
19.32
16.65
14.85
13.19
10.85
7.18
2.09
-3.80
-9.38
-13.59
-16.02
-17.21
-18.43
-21.15
-26.35
-34.17
-43.99
-54.83
-65.74
-76.19
-86.08
-95.44
-104.16
-111.79
-117.56
-120.54
-119.88
-114.91
-105.20
-90.49
-70.87
-47.01
-20.36
6.84
31.98
52.72
67.73
77.06
81.99
84.49
86.40
88.78
91.74
94.55
96.16
95.67
92.74
87.64
81.11
74.15
67.69
62.44
58.80
56.83
56.31
56.83
57.87
58.88
59.36
58.89
57.19
54.12
49.60
43.74
36.85
29.51
22.41
16.35
11.97
9.61
9.19
10.19
11.91
13.75
15.37
16.48
16.80
15.98
13.71
9.83
4.21
-2.89
-10.83
-18.71
-25.74
-31.50
-35.95
-39.34
-42.04
-44.79
-48.04
-51.65
-54.92
-57.05
-57.62
-56.72
-54.91
-52.99
-52.11
-52.96
-55.46
-58.87
-62.44
-65.95
-69.52
-73.45
-74.85
-71.52
-63.61
-53.67
-44.24
-36.32
-29.54
-22.79
-15.12
-6.51
1.93
8.69
12.66
13.45
11.63
7.83
2.77
-2.90
-8.88
-15.00
-20.82
-25.52
-28.18
-28.42
-26.56
-23.41
-17.82
-10.82
-4.63
-1.37
-2.04
-6.09
-12.18
-19.38
-26.43
-32.34
-36.75
-39.38
-39.92
-38.08
-32.60
-23.57
-11.89
1.12
13.90
24.73
32.48
36.97
38.79
39.04
38.58
37.92
37.28
36.48
34.88
31.95
27.55
22.00
15.95
10.02
4.87
1.56
0.85
2.80
6.55
10.66
13.44
13.52
9.90
2.33
-7.98
-19.28
-29.76
-38.11
-43.42
-45.13
-43.00
-37.46
-29.50
-19.19
-6.48
8.46
24.69
40.93
55.92
69.14
80.53
86.54
85.43
77.98
67.55
56.82
46.36
35.09
22.61
9.49
-2.65
-9.70
-8.70
2.11
21.95
48.62
78.93
109.91
137.99
153.25
149.70
126.81
89.67
45.31
1.47
-40.77
-80.52
-116.65
-147.56
-170.31
-182.90
-180.08
-161.82
-131.79
-96.12
-60.82
-31.22
-11.08
-1.08
0.18
-4.64
-13.61
-25.51
-39.72
-54.86
-68.70
-78.11
-79.33
-69.99
-50.71
-26.31
-4.05
9.36
10.86
1.80
-13.49
-29.87
-43.79
-54.15
-58.94
-56.64
-47.03
-31.29
-11.46
10.23
31.33
49.29
62.20
69.49
71.80
70.82
68.56
66.54
65.42
65.18
65.75
67.26
69.85
72.89
74.65
73.01
66.72
56.28
44.19
33.95
28.54
28.14
30.90
33.66
33.61
29.63
22.61
14.68
7.99
3.48
1.00
-0.19
-0.80
-0.88
0.15
3.13
8.41
15.47
22.61
28.05
30.75
30.73
28.78
25.95
22.96
19.69
16.50
12.39
6.91
0.59
-5.32
-9.74
-12.46
-14.30
-16.86
-21.72
-31.05
-45.31
-63.14
-82.14
-100.11
-115.73
-128.52
-138.62
-146.18
-152.46
-157.64
-160.67
-160.03
-154.97
-145.75
-133.14
-118.04
-92.32
-54.23
-9.09
33.62
66.48
86.83
96.02
98.18
96.97
94.19
88.77
79.44
65.93
49.10
30.46
12.01
-3.07
-11.97
-13.94
-11.57
-7.48
-2.50
4.07
12.68
22.36
30.90
35.77
35.58
30.21
21.41
11.84
3.75
-1.92
-5.37
-7.52
-8.94
-9.96
-10.91
-11.69
-11.81
-10.41
-6.55
0.58
10.85
23.09
35.20
44.66
49.72
50.05
46.82
42.05
37.67
34.79
33.36
32.32
30.35
26.67
21.30
14.97
9.06
3.96
-0.10
-2.98
-4.68
-5.22
-4.67
-3.32
-1.76
-0.84
-1.48
-4.27
-9.17
-15.46
-21.84
-26.48
-27.53
-23.51
-13.93
0.39
16.52
30.41
38.18
37.57
29.11
16.12
3.48
-4.41
-5.50
-0.81
6.47
12.54
14.72
12.61
7.73
2.45
-1.27
-2.49
-1.58
0.59
2.93
4.26
3.77
0.94
-4.23
-11.17
-18.68
-25.13
-28.81
-27.73
-22.06
-13.37
-4.29
2.27
4.08
0.54
-7.06
-16.08
-23.69
-28.22
-29.34
-28.03
-25.64
-23.15
-20.80
-18.36
-15.64
-12.82
-10.75
-9.59
-9.04
-8.25
-6.30
-2.64
2.54
8.40
13.71
17.41
19.05
18.75
17.07
14.60
11.84
9.13
6.68
4.71
3.58
3.92
6.33
11.04
17.29
23.41
27.36
27.48
23.15
15.27
5.91
-2.83
-8.21
-9.03
-5.77
0.11
7.13
14.09
20.17
24.61
26.71
26.23
23.41
19.25
15.28
12.95
12.64
14.09
16.55
19.15
21.32
22.79
23.60
23.97
24.08
23.88
23.32
22.41
21.28
20.19
19.19
18.17
16.78
15.16
13.36
11.57
10.07
9.11
8.60
7.97
6.23
2.33
-4.27
-13.47
-24.35
-35.57
-45.87
-54.34
-60.61
-64.61
-66.40
-66.12
-64.05
-60.62
-56.40
-51.87
-47.33
-42.73
-37.88
-32.63
-27.04
-21.38
-15.91
-10.76
-5.83
-1.02
3.56
7.40
9.64
9.41
6.15
0.06
-7.87
-16.13
-23.09
-27.57
-29.07
-27.79
-24.36
-19.58
-14.12
-8.50
-3.05
2.00
6.43
9.91
12.14
13.03
12.72
11.66
10.47
9.91
10.66
12.98
16.52
20.58
24.59
28.40
32.31
36.82
42.21
48.27
54.29
59.05
61.66
61.97
60.52
58.14
55.64
53.72
52.94
53.59
54.66
55.03
54.01
51.43
47.52
43.07
39.68
39.79
45.67
56.68
71.02
86.42
100.37
110.14
113.53
110.06
101.25
89.17
72.39
49.38
20.11
-13.69
-49.92
-86.92
-123.52
-158.95
-193.52
-231.59
-275.35
-322.46
-367.17
-403.90
-429.60
-443.60
-446.58
-415.25
-341.42
-237.92
-130.42
-38.68
30.84
80.15
112.52
134.19
147.57
149.66
139.31
119.92
98.09
79.67
68.29
65.06
69.72
79.26
86.04
84.15
73.09
57.53
43.96
36.18
35.18
39.90
47.53
53.73
55.58
53.26
49.20
45.83
43.98
42.95
41.54
38.69
33.85
28.16
23.96
23.30
26.32
31.26
35.63
37.65
36.90
34.07
30.72
28.41
27.94
29.02
30.78
32.56
34.24
36.04
38.15
40.23
41.53
41.20
38.87
35.04
30.84
27.43
25.41
24.54
23.93
22.54
19.70
15.36
9.98
4.06
-2.26
-9.06
-16.37
-23.76
-30.32
-34.88
-36.30
-34.07
-28.69
-21.81
-15.32
-10.66
-8.26
-7.52
-7.44
-6.73
-4.31
0.20
5.32
9.09
10.33
9.26
6.78
3.33
-0.46
-3.50
-4.52
-3.09
0.86
6.79
13.31
17.93
16.93
7.34
-11.31
-35.96
-61.73
-82.73
-94.64
-96.41
-87.08
-71.00
-55.12
-46.64
-42.85
-39.34
-31.92
-19.92
-5.09
9.70
22.34
32.84
42.11
51.77
61.67
70.38
75.44
77.06
74.77
69.21
62.39
56.75
54.37
54.00
53.94
52.06
46.74
37.08
23.46
7.56
-8.25
-21.58
-31.41
-37.59
-40.91
-42.44
-43.34
-44.41
-46.09
-48.70
-52.44
-57.73
-64.33
-71.71
-79.01
-85.46
-90.38
-93.37
-94.24
-92.64
-87.93
-78.61
-63.49
-42.52
-17.23
9.67
34.99
55.89
70.79
79.56
83.77
85.25
85.26
84.30
82.39
79.31
74.73
68.38
56.93
39.77
19.22
-0.89
-17.54
-29.28
-35.58
-36.62
-33.11
-26.93
-20.36
-16.22
-16.84
-22.89
-32.78
-43.49
-52.15
-56.59
-56.55
-53.07
-48.11
-43.63
-40.70
-39.12
-37.74
-34.96
-28.47
-17.13
-0.13
22.22
48.01
73.91
96.22
112.34
117.70
111.81
97.31
79.04
61.98
49.40
41.80
37.17
32.36
24.52
12.77
-1.95
-16.81
-27.85
-31.10
-24.01
-6.48
19.03
47.65
73.51
90.69
94.88
84.53
61.09
28.23
-9.11
-45.29
-75.24
-95.10
-103.20
-99.90
-87.15
-67.83
-43.68
-18.74
2.31
16.47
23.71
25.91
25.50
24.51
25.35
27.53
29.53
29.87
27.23
20.71
10.22
-3.17
-17.51
-29.41
-35.75
-34.62
-25.91
-11.96
3.17
15.41
22.20
23.23
19.99
14.52
8.71
3.94
0.29
-2.97
-6.82
-11.96
-18.91
-28.11
-40.02
-54.52
-67.47
-73.93
-71.18
-60.73
-46.33
-31.30
-17.62
-6.27
2.21
7.56
9.02
6.18
-0.38
-8.79
-16.52
-21.43
-22.46
-20.25
-15.23
-8.74
-2.17
3.36
7.32
9.66
10.70
11.27
12.54
15.94
21.91
29.87
38.12
44.60
47.81
47.31
43.93
38.92
33.94
28.81
23.13
16.66
9.63
2.64
-3.83
-9.71
-15.80
-22.59
-30.48
-38.70
-45.52
-49.02
-48.11
-43.98
-37.45
-29.92
-22.68
-16.54
-11.55
-7.47
-4.13
-1.56
0.06
0.85
1.05
1.22
1.86
3.43
5.77
8.40
10.64
11.88
11.92
10.74
8.66
6.13
3.68
1.72
0.47
-0.04
0.10
0.74
1.53
1.95
1.40
-0.63
-4.33
-9.31
-14.58
-18.68
-20.12
-17.95
-12.06
-3.29
6.80
16.51
24.39
29.65
32.16
32.35
30.86
28.38
25.45
22.52
19.94
18.01
16.86
16.41
16.41
16.50
16.38
15.88
15.03
14.02
13.03
12.13
11.26
10.27
8.95
7.15
4.78
1.89
-1.37
-4.74
-7.88
-10.44
-12.11
-12.64
-11.89
-9.96
-7.03
-3.42
0.56
4.53
8.13
11.12
13.47
15.31
16.67
17.51
17.77
17.41
16.39
14.75
12.72
10.75
9.25
8.23
7.51
6.92
6.38
5.87
5.30
4.51
3.44
1.85
-0.86
-5.19
-11.30
-18.86
-27.28
-35.97
-44.49
-52.45
-57.51
-57.97
-53.70
-46.36
-37.88
-29.45
-21.60
-15.52
-10.60
-6.57
-3.79
-2.72
-3.77
-7.21
-12.71
-19.63
-26.83
-32.55
-35.50
-35.26
-32.16
-27.13
-21.32
-15.83
-11.36
-8.04
-5.35
-2.70
0.07
3.17
6.74
10.66
13.95
15.22
13.31
8.03
0.89
-6.21
-10.58
-9.62
-1.78
12.30
30.15
48.24
63.49
71.72
70.80
61.43
46.41
29.51
13.80
1.49
-6.22
-8.68
-6.01
0.53
9.06
17.18
24.79
30.81
34.58
34.99
32.88
30.07
28.90
31.38
38.35
49.13
61.58
73.41
82.85
89.18
92.20
92.25
89.93
85.72
79.70
71.82
62.55
52.81
43.75
35.76
28.55
21.30
12.86
1.77
-12.62
-29.49
-46.98
-63.01
-76.81
-88.48
-98.46
-107.16
-115.43
-123.21
-129.27
-131.89
-129.61
-122.95
-113.30
-102.24
-91.73
-84.69
-83.04
-86.63
-93.44
-100.17
-104.81
-106.13
-104.05
-92.76
-72.32
-49.27
-31.85
-26.97
-28.46
-29.08
-24.28
-10.83
9.58
30.50
45.11
50.01
46.54
40.02
35.52
36.41
42.95
51.84
56.81
53.21
41.51
27.43
18.90
21.35
36.28
61.06
89.60
113.41
125.30
122.07
104.32
75.00
37.31
-4.78
-47.01
-79.44
-94.36
-93.09
-84.37
-77.27
-76.09
-79.80
-84.29
-85.14
-80.39
-71.70
-62.26
-53.83
-45.60
-35.07
-20.95
-3.85
13.90
29.16
38.61
40.68
37.21
32.81
32.82
41.09
58.88
84.82
115.68
146.99
174.44
195.20
207.76
211.78
208.05
198.08
183.48
165.04
142.00
112.83
77.08
36.48
-4.61
-40.37
-66.26
-81.33
-88.86
-94.87
-105.16
-120.67
-137.92
-150.59
-152.89
-143.17
-124.03
-100.57
-78.35
-62.72
-55.43
-57.13
-67.35
-83.11
-99.89
-112.90
-118.69
-114.34
-98.95
-73.08
-39.07
-0.92
37.69
73.65
104.56
129.45
149.37
167.27
187.09
211.51
232.22
240.25
230.32
204.33
169.35
132.47
97.98
67.29
39.84
14.96
-8.90
-31.15
-50.56
-66.47
-79.24
-89.43
-97.67
-99.08
-93.40
-83.94
-73.94
-63.53
-49.78
-30.26
-5.81
18.62
35.91
40.22
31.39
14.19
-4.44
-18.98
-28.36
-35.26
-43.96
-57.66
-77.03
-101.91
-127.89
-151.67
-166.18
-167.63
-157.15
-140.88
-134.01
-139.21
-153.99
-172.97
-184.67
-181.03
-159.24
-122.30
-77.94
-35.05
0.06
23.51
34.87
36.00
29.33
17.33
3.83
-5.37
-2.24
21.08
66.82
129.97
198.54
256.61
289.45
289.09
256.46
201.75
140.01
84.34
42.12
14.18
-2.88
-12.70
-16.27
-14.94
-8.19
2.79
13.43
17.80
12.03
-3.13
-23.22
-40.68
-54.71
-67.35
-82.20
-102.10
-127.43
-155.95
-183.06
-201.56
-202.02
-180.08
-138.99
-89.58
-43.73
-5.70
24.72
51.14
73.62
92.77
107.46
116.50
119.47
117.86
114.53
111.58
109.43
106.47
100.54
89.28
72.33
51.50
29.92
10.52
-5.07
-15.65
-19.85
-15.63
-2.17
19.60
46.79
75.50
102.04
123.60
138.62
146.40
146.96
140.32
127.04
108.32
85.73
60.74
34.39
8.08
-15.92
-34.50
-45.17
-47.28
-42.86
-35.74
-29.72
-26.82
-26.56
-26.78
-25.37
-22.02
-18.36
-17.04
-19.92
-26.85
-35.61
-42.90
-45.82
-43.25
-37.62
-32.63
-32.28
-38.28
-48.74
-59.61
-67.24
-70.17
-69.68
-69.27
-71.85
-78.30
-87.08
-94.85
-98.15
-94.84
-84.51
-68.39
-47.88
-25.44
-3.43
16.69
34.66
50.71
64.99
77.71
88.84
98.06
104.94
109.19
110.64
109.35
104.96
96.75
84.67
69.68
53.49
38.07
25.18
14.13
4.85
-1.50
-6.38
-11.92
-19.20
-28.44
-39.18
-50.41
-60.80
-68.80
-73.47
-74.98
-73.94
-71.20
-67.78
-64.52
-61.86
-59.70
-57.42
-54.58
-51.32
-47.90
-44.55
-41.41
-38.50
-35.65
-32.44
-28.18
-22.39
-15.13
-6.62
2.93
13.31
24.40
35.02
43.37
48.20
49.57
48.54
46.29
43.67
41.04
38.47
35.94
33.70
32.26
32.12
33.38
35.52
37.67
38.64
37.46
33.78
28.24
22.17
17.00
13.84
12.11
10.89
9.32
6.98
4.14
1.60
0.19
0.31
1.63
3.36
4.82
5.80
6.62
8.01
10.69
15.02
20.94
28.07
35.89
44.01
51.94
58.44
62.09
61.69
56.79
48.00
36.70
24.38
12.05
0.05
-11.67
-22.89
-32.84
-40.54
-45.43
-47.98
-49.73
-52.63
-58.08
-66.33
-76.32
-86.37
-95.06
-101.78
-106.87
-111.28
-115.96
-121.55
-128.20
-135.52
-142.83
-149.26
-153.96
-156.27
-155.91
-153.03
-148.32
-142.84
-137.75
-133.94
-131.59
-129.74
-126.20
-118.02
-102.30
-77.43
-44.00
-4.85
35.71
73.45
105.61
131.66
152.94
171.58
189.26
206.54
222.83
236.96
247.84
254.75
257.42
255.82
250.07
240.39
227.24
211.28
193.38
174.42
155.22
136.45
118.62
102.18
87.39
74.47
63.59
54.65
47.26
40.74
34.32
27.32
19.37
10.30
0.25
-10.34
-20.90
-30.88
-39.75
-47.08
-52.50
-55.81
-57.18
-56.86
-55.04
-51.86
-47.60
-42.69
-37.58
-32.69
-28.35
-25.37
-23.87
-23.03
-21.53
-18.31
-13.18
-6.72
-0.23
4.95
6.54
3.90
-1.50
-7.18
-11.36
-13.88
-15.83
-19.08
-25.21
-37.26
-56.02
-79.49
-104.50
-128.58
-150.70
-170.53
-188.11
-203.30
-218.81
-235.90
-253.04
-267.07
-274.64
-273.28
-261.23
-238.60
-189.88
-115.73
-33.36
34.76
76.32
92.98
91.73
82.26
69.73
55.95
38.16
14.91
-8.98
-27.94
-37.89
-37.94
-29.71
-16.70
-2.50
8.03
12.67
12.53
10.06
6.98
3.22
-2.15
-10.17
-20.82
-34.25
-48.99
-62.08
-70.63
-73.09
-69.76
-62.08
-51.96
-40.92
-30.59
-21.63
-13.65
-5.74
2.92
12.66
23.65
35.92
49.52
64.15
79.34
94.57
109.48
123.36
135.22
144.29
150.42
154.24
156.73
158.84
161.20
164.70
169.40
174.53
179.07
182.34
183.94
183.51
180.52
174.55
166.77
158.10
148.90
139.32
129.75
120.77
112.69
105.39
98.47
93.10
89.31
85.78
80.54
72.28
60.65
46.06
29.24
1.01
-38.85
-82.42
-119.57
-144.96
-158.95
-164.62
-165.40
-164.42
-163.24
-160.70
-156.13
-150.08
-143.72
-137.81
-132.35
-126.45
-119.62
-111.73
-101.75
-89.76
-76.97
-65.03
-55.01
-47.19
-41.34
-37.14
-34.12
-30.96
-26.89
-21.93
-16.57
-11.34
-6.54
-2.31
1.12
3.68
5.89
8.29
11.39
15.72
21.80
30.14
40.99
54.02
68.49
83.68
98.77
113.00
125.69
136.20
144.19
149.50
151.83
150.76
146.03
137.66
126.03
111.75
95.19
76.83
56.97
35.56
12.31
-12.63
-38.46
-63.88
-87.40
-107.88
-123.86
-133.57
-135.52
-128.98
-114.30
-93.40
-69.93
-46.23
-27.58
-18.56
-19.44
-26.34
-35.05
-42.56
-47.86
-51.48
-54.86
-58.03
-60.71
-62.16
-61.98
-60.41
-57.98
-55.66
-54.56
-55.61
-59.09
-64.02
-68.53
-70.86
-69.69
-63.70
-51.96
-33.95
-9.93
19.02
51.26
84.67
114.31
133.12
137.41
129.82
117.07
104.60
93.98
84.24
73.83
62.04
49.42
38.76
30.88
25.49
20.83
14.52
5.16
-6.88
-20.02
-32.63
-43.18
-51.13
-55.73
-58.05
-60.55
-65.12
-72.06
-80.03
-87.02
-90.24
-86.81
-74.95
-51.71
-19.68
13.95
41.16
61.49
76.77
87.32
92.91
92.84
85.87
70.99
49.16
23.42
-2.10
-24.11
-40.45
-50.11
-53.15
-50.72
-44.27
-34.46
-21.60
-6.18
10.39
26.57
41.12
53.39
62.64
68.29
70.31
68.54
62.50
51.69
36.30
17.34
-3.32
-24.03
-43.13
-55.58
-57.02
-47.68
-32.62
-17.94
-9.66
-7.45
-10.06
-16.16
-24.59
-33.15
-40.68
-46.18
-48.85
-48.48
-45.41
-41.08
-36.93
-33.79
-32.02
-31.41
-30.76
-28.25
-22.36
-12.45
0.35
13.83
25.40
32.75
34.52
31.08
24.20
16.20
9.22
4.25
1.29
-0.26
-1.12
-1.70
-1.90
-1.45
-0.36
1.02
1.99
1.74
-0.22
-3.69
-7.82
-11.43
-13.72
-14.59
-14.56
-14.46
-15.54
-18.77
-24.49
-32.07
-40.09
-46.94
-51.00
-50.77
-44.89
-30.27
-6.39
22.85
51.09
73.42
87.76
94.28
94.12
91.34
85.86
77.27
65.73
52.52
39.91
30.02
24.56
23.42
26.11
30.64
34.64
35.70
32.35
24.48
11.92
-3.25
-17.17
-26.29
-29.89
-29.29
-26.96
-26.20
-27.03
-28.68
-30.03
-30.46
-30.17
-30.48
-31.28
-32.73
-34.47
-35.55
-35.29
-33.31
-29.95
-26.20
-23.32
-21.88
-21.78
-22.15
-21.72
-19.73
-15.76
-10.09
-3.70
2.02
5.87
7.00
5.19
0.94
-4.88
-10.60
-14.70
-16.54
-16.63
-16.30
-17.16
-20.39
-26.12
-33.37
-39.41
-41.27
-37.27
-27.71
-14.42
0.11
13.90
26.05
36.83
48.09
61.47
76.88
92.66
106.84
118.30
127.06
133.55
131.86
117.02
88.77
52.89
17.94
-9.15
-25.09
-30.66
-30.21
-29.70
-32.87
-40.09
-49.08
-57.10
-61.80
-62.99
-62.79
-64.35
-69.58
-76.75
-78.76
-70.67
-50.47
-20.56
12.82
42.43
63.30
74.39
78.49
79.03
76.87
70.23
56.35
34.02
5.16
-25.54
-52.70
-72.13
-82.18
-83.98
-79.81
-71.90
-61.88
-50.78
-39.46
-28.64
-18.87
-10.48
-4.13
-0.45
0.02
-2.72
-7.72
-13.15
-17.18
-18.83
-18.16
-16.21
-13.87
-10.94
-6.06
2.35
14.45
27.91
38.53
42.33
37.87
27.38
15.74
8.06
7.07
12.08
19.87
26.79
30.77
31.94
31.88
32.12
33.06
33.83
33.02
29.85
24.68
18.86
13.95
10.90
9.60
9.10
8.21
6.15
3.00
-0.46
-3.08
-3.93
-2.65
0.42
4.47
8.55
11.60
12.79
11.65
8.24
3.15
-2.53
-7.59
-11.04
-12.50
-12.25
-11.04
-9.55
-8.06
-6.27
-3.63
0.10
4.52
8.57
10.94
10.86
8.52
4.99
1.92
0.33
0.11
0.05
-1.44
-5.39
-11.70
-19.14
-26.05
-30.81
-32.60
-31.38
-27.83
-22.99
-17.92
-13.47
-10.09
-7.92
-6.81
-6.59
-6.89
-7.23
-7.09
-6.04
-4.03
-1.56
0.62
1.96
2.49
2.90
4.03
6.18
8.76
10.57
10.58
8.49
4.89
0.70
-3.30
-6.87
-10.24
-13.60
-16.72
-18.80
-18.92
-16.07
-10.58
-3.58
3.34
8.31
9.92
7.86
2.88
-3.47
-9.32
-13.10
-13.94
-11.56
-6.47
0.38
7.82
14.69
20.00
23.38
25.07
24.84
23.83
22.85
21.92
20.60
18.66
16.56
15.46
16.26
18.89
22.43
25.06
25.01
21.27
14.25
4.21
-7.91
-20.73
-32.54
-41.31
-45.45
-44.49
-39.27
-31.76
-24.35
-18.71
-15.01
-12.82
-10.50
-6.37
0.69
10.95
23.83
37.81
50.57
59.21
61.06
54.90
41.49
23.76
5.83
-8.47
-17.05
-19.96
-19.08
-17.05
-15.88
-16.64
-19.30
-23.05
-26.87
-29.99
-31.86
-32.12
-30.75
-27.33
-21.80
-14.61
-6.82
0.11
4.76
6.27
4.59
0.71
-3.95
-8.18
-11.30
-13.03
-13.04
-10.83
-5.79
2.43
13.38
25.88
38.01
47.76
53.57
54.66
51.02
43.21
32.22
19.34
6.08
-6.12
-16.07
-23.13
-27.24
-28.81
-28.39
-26.43
-23.21
-18.97
-14.20
-9.50
-5.50
-2.54
-0.62
0.53
1.24
1.71
1.99
2.03
1.89
1.84
2.23
3.17
4.44
5.50
5.77
4.94
2.89
-0.12
-3.81
-7.57
-10.72
-12.68
-12.84
-10.69
-5.86
1.47
10.53
20.11
28.95
35.98
40.65
42.96
43.25
41.95
38.93
33.75
26.09
16.28
5.40
-5.04
-13.72
-20.18
-24.18
-26.34
-27.84
-29.86
-32.74
-35.92
-38.41
-39.36
-39.46
-38.61
-37.16
-35.39
-33.61
-32.05
-30.90
-30.32
-29.78
-29.18
-28.26
-27.29
-26.31
-25.27
-23.92
-21.83
-18.53
-13.42
-6.19
3.54
15.63
30.20
46.29
61.81
74.25
81.92
84.87
83.88
82.65
81.39
79.94
78.23
76.62
75.79
74.77
73.32
70.93
67.02
60.75
52.14
41.72
30.50
19.52
9.59
1.22
-5.80
-12.01
-18.28
-24.89
-31.69
-38.26
-44.07
-48.71
-51.89
-53.69
-54.39
-54.46
-54.08
-53.23
-51.86
-50.03
-48.03
-46.27
-45.31
-45.61
-47.28
-49.82
-52.38
-54.04
-54.23
-52.86
-50.15
-46.50
-42.25
-37.71
-33.11
-28.67
-24.77
-21.82
-20.10
-19.58
-19.83
-20.30
-20.57
-20.51
-20.04
-19.19
-18.14
-17.15
-16.47
-16.16
-16.18
-16.49
-17.11
-17.52
-17.09
-15.33
-12.14
-7.61
-1.89
4.97
12.85
21.61
31.62
43.13
55.94
69.23
82.02
93.66
103.76
112.02
114.30
107.35
91.08
69.52
48.37
31.70
20.61
13.72
8.48
2.74
-3.70
-9.53
-13.05
-13.39
-10.98
-7.08
-3.23
-0.38
1.19
2.12
3.07
4.18
4.70
3.14
-1.04
-7.57
-15.34
-22.84
-28.56
-31.67
-32.40
-31.77
-30.90
-30.34
-30.00
-29.87
-29.41
-28.43
-27.05
-25.51
-23.94
-22.24
-20.11
-17.42
-14.32
-11.12
-8.24
-5.87
-3.91
-2.22
-0.71
0.64
1.71
2.43
2.95
3.54
4.37
5.56
7.08
8.81
10.55
12.06
13.10
13.63
13.70
13.47
13.12
12.73
12.42
12.13
11.54
10.19
7.73
4.12
-0.23
-4.66
-8.54
-11.23
-12.58
-12.98
-13.13
-13.55
-14.25
-14.72
-14.21
-12.19
-8.17
-2.15
5.36
13.62
22.09
30.57
39.08
47.59
53.30
53.84
48.61
39.39
28.86
18.89
9.98
1.81
-5.98
-13.26
-18.94
-21.65
-21.17
-17.94
-12.78
-6.66
-0.49
5.06
9.58
13.19
15.98
17.90
18.01
16.24
13.20
9.76
6.72
4.68
4.15
4.97
6.32
7.15
6.73
5.05
2.51
0.04
-1.04
0.70
5.72
13.15
21.02
26.99
29.15
26.13
17.70
4.34
-10.72
-23.05
-29.56
-30.10
-27.96
-24.64
-20.55
-15.72
-10.26
-3.96
2.06
6.22
7.37
5.45
1.63
-2.74
-6.62
-9.50
-11.37
-12.86
-14.69
-17.28
-20.47
-23.54
-25.99
-27.65
-28.59
-29.00
-29.23
-29.57
-30.07
-30.43
-30.07
-28.59
-25.82
-21.83
-16.77
-11.02
-4.98
0.95
6.43
11.25
15.13
17.85
19.37
19.81
19.38
18.34
16.92
15.32
13.68
12.09
10.61
9.31
8.25
7.43
6.81
6.20
5.44
4.36
2.96
1.39
-0.07
-1.20
-1.94
-2.45
-3.06
-4.10
-5.82
-8.28
-11.42
-15.14
-19.24
-23.43
-27.24
-30.07
-31.30
-30.55
-27.79
-23.36
-17.79
-11.65
-5.41
0.58
5.99
10.50
13.88
16.03
17.10
17.36
17.12
16.56
15.69
14.45
12.83
10.94
9.05
7.46
6.32
5.64
5.27
5.02
4.71
4.23
3.54
2.64
1.49
0.11
-1.44
-2.98
-4.21
-4.90
-4.98
-4.68
-4.47
-4.82
-6.00
-7.85
-9.79
-11.08
-11.09
-9.62
-6.90
-3.42
0.22
3.58
6.42
8.75
10.66
12.17
13.13
13.32
12.55
10.80
8.24
5.15
2.07
-0.60
-2.73
-4.58
-6.53
-8.84
-11.44
-14.03
-16.23
-17.39
-16.97
-14.75
-10.98
-6.28
-1.36
3.09
6.59
8.96
10.84
13.23
17.08
22.68
29.80
37.91
46.48
55.10
60.83
61.25
55.69
46.31
36.79
30.18
27.75
28.83
31.39
32.86
31.51
26.68
18.84
8.85
-2.28
-13.61
-24.26
-33.43
-40.31
-43.83
-43.48
-38.78
-30.22
-19.19
-7.56
2.67
9.78
12.33
10.07
4.12
-3.47
-10.71
-16.32
-20.06
-22.57
-24.79
-27.22
-29.60
-31.05
-30.77
-28.71
-25.62
-22.63
-20.67
-20.25
-20.63
-20.71
-19.56
-16.80
-12.74
-8.18
-4.02
-0.88
1.04
2.09
2.91
4.21
6.53
9.91
13.93
17.89
21.06
23.06
23.91
23.92
23.48
22.89
22.18
21.23
19.93
18.28
16.45
14.68
13.10
11.74
10.55
9.47
8.44
7.48
6.57
5.60
4.44
2.91
0.92
-1.44
-3.99
-6.47
-8.68
-10.54
-12.07
-13.31
-14.28
-14.95
-15.31
-15.39
-15.25
-15.02
-14.76
-14.48
-14.13
-13.63
-12.89
-11.87
-10.58
-9.07
-7.42
-5.73
-4.10
-2.57
-1.12
0.28
1.62
2.70
3.27
3.14
2.19
0.49
-1.75
-4.27
-6.79
-9.20
-11.48
-13.60
-15.45
-16.91
-18.05
-19.08
-20.22
-21.59
-23.20
-25.00
-26.79
-28.23
-29.05
-29.12
-28.48
-27.01
-24.54
-20.93
-16.16
-10.25
-2.98
5.95
16.64
28.92
42.45
56.74
71.08
83.18
90.03
89.99
83.78
73.66
61.65
49.20
37.40
27.31
20.30
16.39
15.12
15.30
15.03
12.25
5.91
-3.60
-15.04
-26.07
-35.08
-41.28
-44.92
-45.13
-42.23
-37.25
-31.57
-28.36
-27.63
-28.98
-31.86
-34.40
-35.40
-34.37
-31.32
-26.68
-21.15
-15.11
-8.98
-2.72
4.09
11.63
19.65
27.59
34.83
40.80
45.43
48.52
49.88
49.36
46.62
41.31
33.47
23.65
12.86
2.42
-6.81
-14.41
-20.46
-25.35
-29.50
-33.09
-36.04
-38.11
-39.00
-38.63
-37.11
-34.66
-31.56
-28.11
-24.58
-21.25
-18.45
-16.27
-14.78
-13.97
-13.74
-13.98
-14.50
-15.17
-16.01
-17.16
-18.60
-20.31
-22.29
-24.55
-27.03
-29.58
-31.89
-33.51
-33.89
-32.17
-27.73
-20.47
-10.80
0.65
13.40
27.37
42.18
56.36
68.05
75.52
77.80
75.02
68.41
59.99
51.85
46.50
43.43
41.41
39.22
36.11
32.20
28.39
25.76
24.99
25.34
25.92
25.99
24.95
22.19
17.36
10.44
1.74
-8.10
-18.27
-27.37
-33.36
-35.26
-34.33
-33.09
-33.55
-36.09
-39.50
-41.74
-40.96
-37.37
-31.23
-23.70
-16.20
-9.84
-5.20
-2.31
-0.89
-0.71
-1.77
-3.92
-7.17
-11.15
-15.11
-18.20
-19.88
-20.18
-19.65
-19.04
-18.89
-19.32
-19.92
-19.94
-18.81
-16.42
-13.25
-10.04
-7.48
-5.84
-5.05
-4.75
-4.43
-3.78
-2.80
-1.75
-1.06
-1.03
-1.69
-2.75
-3.66
-3.71
-2.25
1.18
6.67
14.00
22.59
31.65
40.33
47.88
53.73
57.54
59.14
58.44
55.47
50.42
43.68
35.90
27.87
20.34
13.81
8.48
4.20
0.65
-2.48
-5.37
-8.04
-10.43
-12.52
-14.40
-16.30
-18.43
-20.92
-23.64
-26.33
-28.64
-30.38
-31.54
-32.25
-32.69
-32.95
-32.93
-32.41
-31.18
-29.08
-26.13
-22.46
-18.28
-13.78
-9.11
-4.37
0.33
4.80
8.81
12.11
14.50
15.90
16.36
16.04
15.11
13.77
12.19
10.51
8.86
7.30
5.83
4.33
2.66
0.74
-1.40
-3.58
-5.56
-7.16
-8.37
-9.39
-10.48
-11.85
-13.54
-15.41
-17.26
-18.87
-20.14
-21.06
-21.63
-21.79
-21.31
-19.87
-17.08
-12.62
-6.34
1.61
10.74
20.09
28.44
34.51
37.30
36.46
32.41
26.47
20.39
15.81
13.78
14.53
17.52
21.70
25.87
29.02
30.91
31.87
32.54
33.41
34.61
35.84
36.50
35.91
33.58
29.99
26.06
22.63
20.03
17.93
15.76
13.08
9.83
6.36
3.96
3.96
7.10
13.20
21.49
31.23
42.14
54.12
62.74
63.52
53.68
34.11
8.73
-17.60
-40.51
-56.95
-65.73
-67.62
-64.15
-57.27
-48.68
-39.69
-31.26
-24.06
-18.70
-15.79
-15.74
-18.02
-21.53
-24.92
-27.15
-27.74
-26.78
-24.81
-22.54
-20.62
-18.95
-17.03
-14.28
-10.53
-6.16
-1.94
1.38
3.31
3.78
3.28
2.53
2.16
2.51
3.63
5.40
7.60
9.97
12.17
13.96
15.21
15.88
16.01
15.72
15.08
14.14
12.99
11.55
9.89
8.10
6.15
3.90
1.14
-2.20
-5.77
-8.80
-10.27
-9.47
-6.50
-2.33
1.46
3.50
3.26
1.24
-1.50
-3.86
-5.15
-5.10
-3.75
-1.30
1.76
4.35
4.98
2.16
-4.43
-13.48
-22.39
-28.31
-29.24
-24.72
-15.85
-4.53
6.85
16.25
22.08
23.51
20.76
15.18
8.85
3.47
-0.34
-3.48
-7.36
-12.93
-19.85
-26.56
-31.18
-32.52
-31.14
-26.31
-18.86
-9.83
-0.31
8.83
16.68
22.54
26.34
28.43
30.57
35.06
43.37
54.67
65.75
71.69
67.96
52.52
26.16
-6.40
-38.25
-63.01
-77.18
-80.54
-75.75
-66.72
-51.62
-32.79
-14.91
-1.44
7.29
11.33
12.74
12.93
12.48
11.74
11.17
11.00
11.51
12.62
13.87
14.86
15.42
15.62
16.13
17.19
18.95
21.12
22.54
21.98
18.70
13.04
5.77
-1.85
-8.97
-15.19
-20.61
-25.99
-31.95
-39.08
-42.83
-40.23
-31.61
-20.04
-8.15
3.40
12.69
20.85
27.74
32.26
32.45
27.03
17.09
4.63
-7.85
-18.53
-26.59
-32.90
-38.78
-45.69
-54.08
-62.93
-70.58
-75.77
-78.32
-78.79
-78.54
-78.68
-80.19
-83.47
-88.05
-92.76
-96.15
-97.00
-94.55
-89.13
-81.76
-74.13
-68.11
-64.53
-63.15
-63.23
-64.09
-65.42
-67.37
-69.60
-71.80
-74.33
-76.79
-78.06
-76.92
-71.89
-61.14
-42.90
-14.99
22.77
66.57
111.84
154.31
190.00
216.20
231.90
237.61
236.46
231.20
221.34
207.92
193.71
180.95
171.16
164.64
160.61
159.71
161.33
161.02
157.07
150.64
142.91
134.69
126.21
103.31
61.51
23.28
-5.21
-29.04
-49.29
-66.64
-81.62
-94.54
-105.45
-111.83
-112.20
-109.64
-105.68
-100.02
-92.90
-84.77
-76.22
-67.94
-59.05
-49.55
-42.54
-39.18
-38.39
-38.96
-39.86
-40.58
-41.17
-40.96
-39.81
-39.41
-40.18
-41.35
-42.42
-43.25
-44.05
-45.11
-46.05
-46.51
-46.97
-47.40
-47.44
-47.11
-46.64
-46.40
-46.55
-46.78
-46.59
-45.63
-43.48
-39.79
-34.59
-28.32
-21.61
-15.11
-9.31
-4.48
-0.70
2.09
3.96
5.01
5.34
5.13
4.60
4.00
3.57
3.43
3.64
4.20
5.15
6.67
8.96
12.25
16.62
21.99
28.01
34.17
39.90
44.66
48.04
49.82
49.98
48.65
46.07
42.60
38.66
34.72
31.24
28.67
27.25
27.04
27.76
28.95
30.09
30.79
30.90
30.47
29.58
28.20
26.07
22.85
18.34
12.67
6.32
0.02
-5.56
-10.02
-13.31
-15.68
-17.42
-18.71
-19.57
-19.94
-19.73
-18.98
-17.77
-16.22
-14.38
-12.34
-10.34
-8.81
-8.25
-8.97
-10.77
-12.80
-13.71
-12.16
-7.33
0.71
11.02
22.13
32.58
41.28
47.68
51.62
53.27
53.11
51.85
50.49
49.97
50.83
52.87
55.13
56.24
55.05
51.23
45.44
39.06
33.49
29.60
27.42
26.30
25.37
23.99
22.02
19.75
17.73
16.46
16.16
16.70
17.61
18.29
18.24
17.35
15.95
14.79
14.66
15.98
18.65
22.04
25.31
27.75
29.06
29.33
28.96
28.14
26.76
24.46
21.00
16.49
11.42
6.49
2.22
-1.08
-3.70
-6.22
-9.11
-12.43
-15.84
-18.81
-21.04
-22.66
-23.96
-25.61
-28.24
-32.05
-36.67
-41.21
-44.58
-45.86
-46.46
-47.07
-48.22
-50.17
-52.85
-55.78
-58.24
-59.63
-59.88
-59.53
-59.12
-59.21
-60.12
-61.40
-62.25
-61.85
-59.70
-55.81
-50.68
-44.84
-38.81
-32.86
-26.81
-20.18
-12.84
-4.98
2.84
9.77
15.14
18.53
19.86
19.43
17.72
15.17
12.15
8.85
5.33
1.59
-2.37
-6.49
-10.57
-14.30
-17.37
-19.52
-20.67
-20.86
-20.08
-18.25
-15.22
-10.96
-5.70
0.02
5.49
10.02
13.27
15.23
16.18
16.46
16.28
15.80
15.08
14.17
13.08
11.94
10.91
10.20
9.92
10.08
10.75
11.92
13.51
15.34
17.23
19.05
20.64
21.82
22.37
22.46
22.40
22.52
22.91
23.45
23.82
23.67
22.71
20.87
18.75
17.08
16.42
16.79
18.08
20.38
24.25
30.42
36.40
39.55
37.88
31.36
21.63
11.05
1.64
-5.50
-10.56
-14.54
-17.99
-20.74
-21.67
-20.45
-17.34
-13.31
-9.67
-7.64
-7.69
-9.14
-11.29
-13.02
-14.09
-15.03
-16.68
-19.53
-23.60
-28.42
-33.00
-36.50
-38.39
-38.80
-38.18
-37.51
-36.69
-35.55
-33.77
-31.04
-27.21
-22.36
-16.85
-11.10
-5.31
0.53
6.37
12.09
17.48
22.28
26.31
29.45
31.33
31.98
31.70
30.79
29.55
28.22
26.99
25.99
25.20
24.48
23.73
22.93
22.11
21.37
20.88
20.75
20.93
21.11
20.87
19.82
17.66
14.33
10.05
5.34
0.86
-3.02
-6.55
-10.72
-16.81
-25.81
-37.76
-51.39
-64.43
-74.32
-79.04
-77.81
-71.09
-60.28
-47.35
-34.31
-22.93
-14.31
-8.70
-5.47
-3.58
-1.86
0.58
4.01
8.13
12.26
15.74
18.07
18.89
17.61
13.85
7.67
-0.34
-9.22
-17.89
-25.42
-31.24
-35.18
-37.82
-39.73
-41.19
-42.15
-42.26
-41.02
-37.69
-31.38
-19.49
-1.82
18.92
38.15
51.86
58.33
57.93
52.26
43.19
32.27
20.44
8.79
-1.02
-7.32
-8.95
-5.92
0.69
9.27
18.41
26.99
34.53
41.37
47.16
51.24
52.72
51.03
46.23
39.01
30.27
20.54
11.37
3.63
-2.49
-7.41
-11.59
-15.19
-18.02
-19.80
-20.34
-19.69
-18.68
-17.82
-17.58
-18.06
-18.98
-19.72
-19.58
-17.76
-13.45
-6.32
3.25
13.93
23.76
30.49
32.10
27.28
15.70
-2.08
-23.17
-43.85
-60.93
-72.57
-78.54
-79.88
-78.21
-74.78
-69.88
-63.06
-53.91
-42.70
-30.46
-18.16
-5.93
7.50
24.16
45.34
69.81
93.54
110.96
117.26
110.55
92.66
68.35
43.26
21.68
5.55
-5.53
-13.12
-18.79
-23.39
-27.11
-29.73
-30.90
-30.27
-27.50
-22.31
-14.67
-4.95
6.07
16.52
24.41
28.41
28.37
25.24
20.62
16.15
13.10
12.18
13.50
16.67
20.69
24.13
25.43
23.53
18.43
11.35
4.43
-0.04
-0.30
4.18
12.68
23.48
34.55
44.20
51.44
56.15
58.91
60.61
62.10
63.79
65.44
66.10
64.22
57.99
46.04
28.00
4.71
-21.79
-48.68
-73.13
-92.87
-106.61
-114.13
-115.70
-111.99
-104.27
-94.45
-84.85
-77.59
-73.77
-73.17
-74.48
-75.41
-73.89
-69.21
-62.15
-54.29
-47.17
-41.37
-36.74
-32.80
-28.53
-22.71
-14.64
-3.98
9.49
25.73
44.58
65.89
85.45
98.14
101.91
98.21
89.96
81.04
72.06
63.42
55.57
48.89
44.04
41.83
42.00
43.40
44.56
44.01
41.04
35.48
27.55
18.31
9.29
1.17
-5.58
-10.53
-13.67
-15.32
-16.21
-17.14
-18.29
-19.26
-20.52
-22.32
-24.84
-28.66
-34.69
-43.72
-55.71
-69.48
-83.06
-95.70
-106.38
-113.75
-116.65
-114.51
-107.47
-96.27
-82.20
-59.93
-31.09
-2.42
19.51
32.66
38.76
40.57
40.30
39.17
37.62
34.55
29.74
24.19
19.35
16.22
15.01
15.46
17.01
19.11
20.48
20.71
20.28
19.80
19.47
19.01
18.11
16.61
14.52
11.48
7.55
3.28
-0.60
-3.61
-5.63
-6.53
-6.30
-5.03
-3.23
-1.35
0.34
1.77
2.96
4.02
5.12
6.41
7.86
9.25
10.45
11.52
12.74
14.32
16.26
18.36
20.23
21.44
21.73
21.01
19.40
17.21
14.74
12.16
9.55
6.86
4.02
1.02
-1.97
-5.08
-8.01
-10.51
-12.53
-14.39
-16.61
-19.68
-23.87
-29.05
-34.76
-40.18
-44.46
-46.86
-46.84
-44.20
-39.13
-32.11
-23.91
-15.31
-6.87
0.95
7.88
13.70
18.16
21.04
22.28
22.03
20.73
18.93
17.13
15.53
14.07
12.49
10.56
8.21
5.58
2.96
0.62
-1.32
-2.83
-3.96
-4.75
-5.21
-5.37
-5.26
-5.01
-4.78
-4.70
-4.73
-4.72
-4.54
-4.16
-3.73
-3.47
-3.51
-3.83
-4.13
-3.92
-2.70
-0.23
3.41
7.90
12.81
17.68
22.02
25.34
27.56
28.68
28.64
27.34
24.74
20.97
16.28
10.87
4.90
-0.80
-5.46
-8.69
-10.63
-11.62
-11.91
-11.69
-11.17
-10.54
-8.79
-4.91
1.55
10.21
20.25
31.00
41.92
52.53
62.38
72.52
83.96
96.93
110.73
124.38
137.34
149.43
160.41
160.58
143.37
108.63
63.36
16.48
-25.89
-61.01
-88.12
-107.35
-119.14
-122.75
-118.04
-106.31
-90.44
-73.87
-59.49
-48.98
-42.85
-40.58
-39.85
-38.34
-34.76
-29.33
-23.19
-17.55
-13.24
-10.56
-9.36
-8.48
-6.91
-4.35
-1.42
0.85
1.69
1.12
-0.70
-3.19
-5.49
-7.03
-7.91
-8.69
-9.98
-11.92
-14.15
-16.14
-17.43
-17.80
-17.45
-16.77
-16.07
-15.29
-14.08
-12.01
-9.07
-5.62
-2.41
-0.18
0.63
0.18
-0.99
-2.09
-2.70
-2.68
-2.04
-0.82
1.00
3.55
7.03
11.14
15.56
19.70
23.16
26.04
28.94
32.70
38.02
45.05
53.25
61.61
68.62
73.18
75.10
74.90
73.36
71.09
68.37
65.17
61.34
55.88
48.35
39.35
30.12
21.72
14.72
9.41
6.00
4.67
3.71
1.94
-0.36
-2.19
-3.21
-3.85
-4.68
-5.77
-6.60
-9.23
-14.68
-21.78
-28.47
-34.03
-39.48
-46.51
-56.66
-70.96
-93.62
-126.59
-167.44
-210.80
-251.51
-286.09
-312.40
-329.56
-314.94
-261.57
-184.11
-105.99
-40.35
12.19
55.72
92.68
122.14
141.35
144.92
132.29
109.72
86.82
70.59
62.78
61.03
61.54
61.67
58.16
50.60
41.53
34.01
29.09
25.80
22.88
19.97
17.70
15.23
11.97
8.32
5.15
2.80
0.84
-0.61
-1.26
-0.66
0.68
2.25
4.05
6.32
9.05
11.53
13.12
13.46
12.67
10.97
8.78
6.75
5.44
5.07
5.50
6.59
8.39
11.28
15.78
22.01
29.51
37.07
43.02
45.72
44.32
38.96
30.33
20.52
11.13
3.18
-3.39
-8.71
-12.87
-15.80
-17.33
-17.44
-16.26
-14.22
-11.71
-9.08
-6.49
-3.98
-1.53
0.88
3.25
5.54
7.46
8.78
9.40
9.55
9.66
10.26
11.61
13.66
15.93
17.79
18.70
18.27
16.33
12.85
7.93
1.51
-5.92
-13.62
-20.61
-26.09
-29.62
-31.16
-30.77
-28.54
-24.68
-19.59
-13.94
-8.30
-3.41
-0.17
0.27
-2.70
-9.14
-18.74
-30.76
-43.98
-56.44
-66.22
-72.09
-73.76
-70.93
-63.24
-50.99
-35.37
-18.30
-1.23
14.63
28.43
39.36
47.47
53.32
56.80
57.23
51.39
39.52
26.14
19.36
20.70
28.92
41.27
54.89
67.08
76.21
82.54
86.95
89.65
89.61
81.60
64.35
40.88
16.39
-5.41
-23.45
-38.69
-52.45
-65.16
-76.48
-83.71
-84.61
-79.07
-68.99
-56.96
-45.42
-36.21
-30.46
-27.48
-25.61
-22.41
-15.73
-3.88
13.57
34.90
56.19
72.43
79.47
75.85
62.88
43.78
22.67
3.28
-11.96
-22.34
-28.59
-32.01
-33.69
-34.15
-34.03
-33.51
-32.71
-31.73
-30.51
-28.90
-26.84
-24.52
-22.11
-20.02
-18.51
-17.11
-14.72
-10.04
-2.32
8.15
19.93
31.34
41.01
47.04
49.09
48.14
45.90
44.02
43.56
42.88
40.93
37.00
30.81
22.52
12.32
0.68
-11.19
-21.38
-27.85
-29.15
-25.36
-17.93
-8.95
0.52
9.68
18.03
25.04
30.03
32.52
32.29
29.64
25.49
20.94
16.60
12.46
7.70
1.91
-4.75
-11.61
-17.69
-22.10
-24.43
-25.00
-24.55
-23.83
-23.22
-22.75
-22.30
-21.89
-21.65
-21.76
-22.27
-22.97
-23.51
-23.50
-22.77
-21.41
-19.75
-17.85
-15.35
-11.63
-6.16
1.06
9.53
18.33
26.57
33.13
37.21
38.19
35.44
28.36
16.99
2.70
-11.70
-22.68
-27.92
-26.61
-19.79
-10.00
-0.44
6.08
7.98
4.87
-2.73
-14.58
-29.63
-45.78
-60.37
-71.16
-76.93
-77.64
-74.05
-62.38
-42.21
-16.81
8.64
29.75
43.80
49.66
47.91
40.89
32.04
23.82
17.76
14.21
12.54
11.68
10.80
9.67
8.58
7.77
6.47
3.99
0.13
-4.65
-9.75
-14.26
-17.48
-19.03
-18.86
-17.49
-15.35
-12.64
-9.49
-6.14
-2.89
-0.03
2.30
4.20
5.67
6.72
7.17
6.64
4.71
1.12
-4.10
-10.54
-17.66
-25.21
-32.75
-39.88
-46.02
-50.34
-52.04
-50.74
-46.73
-40.92
-34.56
-28.71
-23.94
-20.24
-17.00
-13.75
-10.52
-7.72
-5.49
-3.55
-1.29
1.79
5.69
10.51
15.89
21.17
25.86
30.16
34.86
40.85
48.50
57.45
67.71
78.52
88.35
95.39
98.48
97.49
93.21
87.07
80.77
77.25
78.39
84.12
92.55
101.17
107.76
110.87
109.99
97.49
71.47
36.97
2.63
-25.49
-45.95
-60.05
-69.65
-76.12
-80.11
-80.55
-76.62
-68.52
-57.71
-45.24
-32.02
-19.12
-7.83
0.36
5.30
7.43
7.36
5.74
3.41
1.28
-0.22
-1.81
-4.45
-8.26
-12.55
-16.15
-18.18
-18.22
-16.55
-14.15
-12.37
-13.03
-16.79
-22.64
-28.61
-32.99
-34.81
-33.73
-30.14
-25.17
-21.52
-21.87
-27.57
-38.30
-52.53
-67.41
-78.40
-80.50
-64.68
-29.20
15.83
54.45
75.49
76.68
62.55
41.16
19.90
3.17
-9.11
-18.76
-26.57
-31.45
-31.88
-28.38
-21.49
-13.52
-7.64
-7.14
-13.25
-24.21
-35.99
-43.09
-43.14
-35.86
-22.77
-6.12
11.52
28.30
43.25
56.23
65.98
70.33
67.83
58.43
43.65
26.03
8.53
-6.53
-16.94
-21.45
-20.93
-17.26
-12.75
-9.63
-9.72
-13.23
-19.63
-27.12
-33.71
-37.88
-38.96
-37.22
-33.60
-28.96
-22.17
-13.62
-3.92
5.85
14.60
21.44
26.87
31.25
34.79
37.58
39.20
39.94
38.83
36.13
32.57
29.04
26.16
24.32
23.84
23.15
22.08
20.90
19.82
18.04
14.34
7.92
-0.88
-10.70
-20.19
-28.03
-34.01
-38.31
-41.55
-44.42
-47.33
-50.20
-51.14
-49.49
-44.93
-38.04
-29.80
-21.30
-13.25
-5.77
1.59
9.12
16.13
21.83
25.33
26.25
24.88
22.20
19.32
17.00
15.32
12.59
8.16
2.18
-4.10
-8.92
-10.65
-8.60
-3.20
4.29
12.31
20.00
26.96
33.04
37.93
41.03
41.68
39.44
34.33
26.80
17.85
8.66
0.48
-5.61
-8.92
-9.40
-7.74
-5.08
-2.53
-0.63
0.73
2.10
4.06
6.90
10.48
14.42
18.18
21.10
22.39
21.09
16.36
7.97
-3.18
-15.17
-25.47
-31.87
-33.04
-28.86
-20.28
-8.86
3.70
15.96
26.92
36.11
43.43
49.19
53.84
57.73
60.82
62.73
62.93
61.14
57.55
52.63
47.40
43.11
40.70
40.29
40.93
40.84
37.78
29.69
15.06
-5.50
-28.95
-50.86
-67.29
-76.43
-79.32
-79.37
-80.85
-87.83
-101.47
-119.49
-137.59
-151.61
-158.69
-157.48
-148.06
-131.79
-112.16
-92.77
-76.08
-63.27
-54.43
-48.53
-43.53
-37.07
-21.25
4.99
34.98
60.00
75.54
81.55
79.90
72.77
62.24
50.25
37.60
25.55
16.02
10.80
10.30
13.57
18.85
24.37
28.70
30.31
28.84
25.16
20.97
17.43
14.88
13.20
12.08
11.17
9.70
7.33
4.33
1.32
-1.37
-3.73
-5.73
-7.07
-7.27
-5.86
-2.51
2.73
9.24
15.90
21.44
24.67
25.12
23.02
19.18
14.60
10.16
6.45
3.73
2.01
1.16
1.07
1.49
2.72
5.36
9.71
15.08
19.74
21.63
19.38
13.67
5.39
-3.92
-12.82
-20.33
-26.15
-30.41
-33.42
-35.46
-35.99
-35.27
-33.91
-32.89
-32.97
-34.44
-36.86
-39.16
-39.95
-38.10
-33.32
-26.03
-17.35
-8.29
0.37
7.95
13.85
17.63
18.92
17.73
14.52
10.11
6.19
4.48
5.82
9.95
15.93
22.32
28.19
32.91
36.16
38.75
41.90
46.32
52.19
59.43
67.57
76.60
86.20
90.49
85.58
72.26
55.36
39.97
31.61
29.15
31.12
36.11
42.90
49.46
54.86
58.36
59.60
58.81
56.26
52.75
48.32
42.20
33.72
22.58
8.81
-7.00
-23.57
-39.62
-53.60
-64.92
-73.95
-81.90
-90.64
-102.36
-118.64
-139.31
-161.78
-180.55
-189.16
-182.23
-158.10
-119.87
-74.62
-30.86
4.27
26.87
37.62
38.06
32.34
24.84
17.75
11.46
6.31
3.13
2.66
5.11
9.18
13.00
14.46
12.30
6.75
-0.48
-7.07
-11.92
-13.82
-13.04
-10.67
-8.29
-7.17
-7.62
-8.89
-8.91
-6.98
-2.74
3.38
10.49
17.21
22.13
24.45
24.25
22.45
20.37
19.46
20.50
23.43
27.30
30.71
32.52
32.29
30.45
27.94
26.07
25.85
27.57
30.75
34.32
37.18
38.63
38.53
37.46
35.64
33.25
30.26
26.39
21.29
14.73
6.73
-2.42
-12.21
-21.77
-30.24
-36.83
-40.97
-42.32
-40.86
-36.96
-31.28
-24.83
-18.68
-13.74
-10.59
-9.34
-9.66
-10.98
-12.67
-14.22
-15.32
-15.88
-15.96
-15.80
-15.74
-16.07
-16.94
-18.33
-19.70
-20.46
-20.02
-18.11
-14.85
-10.78
-6.66
-3.25
-0.94
0.32
0.94
1.49
2.35
3.58
4.88
5.90
6.47
6.71
7.13
8.19
10.26
13.58
18.35
24.74
32.77
41.97
51.22
59.17
63.85
63.94
59.23
50.60
39.67
28.17
17.35
7.83
-0.30
-6.98
-12.21
-16.05
-18.68
-20.62
-22.40
-24.47
-26.92
-29.31
-30.91
-31.01
-29.19
-25.68
-21.15
-16.53
-12.73
-10.41
-9.74
-10.60
-12.56
-14.99
-17.31
-19.08
-20.16
-20.66
-20.70
-20.06
-18.33
-14.97
-9.76
-2.88
5.05
13.13
20.47
25.95
28.81
28.60
25.24
19.15
11.51
3.98
-1.93
-5.60
-7.45
-8.70
-10.38
-12.49
-13.77
-12.35
-6.64
3.49
16.41
29.31
39.32
44.40
43.93
38.39
29.08
17.60
5.42
-6.21
-16.27
-24.00
-28.92
-30.18
-28.05
-23.18
-16.55
-9.42
-3.13
1.22
3.32
3.58
2.90
2.09
1.69
1.78
2.13
2.74
3.82
5.67
8.29
11.07
13.00
13.17
11.08
6.84
1.24
-4.43
-8.77
-10.74
-9.86
-6.22
-0.45
6.28
12.56
17.27
19.90
20.57
19.68
17.60
14.07
9.21
3.14
-3.75
-10.66
-16.49
-19.51
-18.74
-14.98
-10.24
-6.57
-5.31
-6.71
-10.33
-15.36
-20.89
-26.00
-30.26
-32.48
-31.74
-28.31
-23.81
-20.68
-21.10
-25.97
-34.55
-44.86
-54.58
-60.82
-62.32
-59.35
-53.20
-45.22
-36.27
-26.72
-16.84
-7.03
2.05
9.55
14.98
18.37
20.18
20.83
20.34
18.36
14.50
8.77
1.83
-4.86
-9.38
-9.88
-5.29
4.31
17.54
32.19
45.72
55.81
61.00
60.87
55.97
47.54
36.98
25.53
14.06
3.11
-7.04
-16.21
-24.21
-30.84
-35.90
-39.18
-40.40
-39.20
-35.23
-28.31
-18.61
-6.77
6.16
18.89
30.23
39.27
45.56
49.06
50.07
49.02
46.33
42.41
37.58
32.16
26.57
21.22
16.53
12.81
10.12
8.27
6.86
5.39
3.44
0.74
-2.76
-6.94
-11.65
-16.66
-21.80
-26.78
-31.19
-34.43
-35.84
-34.84
-31.20
-25.09
-17.14
-8.22
0.71
8.81
15.45
20.20
22.85
23.44
22.28
19.91
17.03
14.32
12.25
11.03
10.62
10.80
11.39
12.25
13.39
14.79
16.39
17.98
19.19
19.59
18.79
16.56
12.85
7.85
1.96
-4.21
-9.91
-14.29
-16.66
-16.56
-13.99
-9.41
-3.59
2.53
8.07
12.43
15.32
16.73
16.91
16.19
14.87
13.18
11.20
8.88
6.17
3.06
-0.39
-4.01
-7.63
-11.07
-14.20
-16.84
-18.85
-20.05
-20.33
-19.71
-18.30
-16.42
-14.50
-12.95
-12.16
-12.24
-13.05
-14.14
-14.88
-14.66
-13.13
-10.27
-6.40
-2.03
2.30
6.14
9.22
11.45
12.89
13.72
14.23
14.75
15.60
16.96
18.79
20.85
22.68
23.77
23.70
22.27
19.53
15.86
11.78
7.85
4.48
1.85
-0.09
-1.54
-2.74
-3.95
-5.38
-7.21
-9.51
-12.13
-14.63
-16.33
-16.53
-14.76
-10.98
-5.67
0.38
6.28
11.36
15.25
17.89
19.40
19.96
19.77
18.93
17.52
15.58
13.11
10.12
6.67
2.88
-1.07
-5.00
-8.73
-12.12
-15.05
-17.39
-19.08
-20.06
-20.41
-20.35
-20.23
-20.55
-21.73
-24.00
-27.26
-31.04
-34.51
-36.74
-36.92
-34.62
-29.93
-23.41
-16.03
-8.88
-3.02
0.75
2.02
0.87
-2.17
-6.25
-10.44
-13.95
-16.26
-17.15
-16.55
-14.46
-10.93
-6.02
-0.03
6.56
13.06
18.71
23.01
25.72
26.95
27.02
26.27
24.98
23.33
21.42
19.35
17.28
15.51
14.40
14.26
15.33
17.70
21.32
25.86
30.78
35.47
39.38
42.09
43.31
42.93
41.14
38.42
35.37
32.67
31.14
31.60
34.67
40.42
48.35
57.66
67.29
75.99
82.38
85.12
82.90
74.42
58.55
35.25
6.41
-23.85
-50.24
-67.84
-73.57
-67.01
-50.08
-25.77
0.64
23.04
37.38
41.98
36.28
21.04
-0.41
-21.47
-36.78
-41.60
-33.83
-15.02
10.20
36.11
58.13
72.77
77.63
71.65
55.29
30.56
1.05
-28.65
-53.98
-71.70
-80.84
-82.69
-80.06
-75.71
-71.42
-67.71
-64.44
-61.47
-59.02
-57.59
-57.58
-59.21
-62.28
-66.41
-71.00
-75.11
-77.53
-76.93
-72.28
-63.28
-50.60
-35.70
-20.50
-6.76
4.36
12.36
17.38
19.80
20.19
19.15
17.30
15.14
13.06
11.29
9.87
8.64
7.40
6.10
4.84
3.80
2.85
1.63
-0.30
-3.25
-7.33
-12.37
-18.04
-23.85
-29.37
-34.73
-40.18
-45.77
-51.12
-55.57
-58.38
-58.82
-56.16
-49.89
-40.45
-28.78
-15.80
-2.19
11.29
23.70
33.93
41.06
44.53
43.46
37.47
27.14
13.87
-0.87
-16.04
-31.04
-45.31
-53.21
-50.42
-37.17
-18.74
-1.36
11.18
17.88
19.89
19.53
19.32
20.37
22.65
25.56
28.47
30.82
32.15
32.40
32.03
31.82
31.84
31.83
31.52
30.97
30.28
29.50
28.67
27.82
26.99
25.71
23.56
20.46
16.86
13.49
10.95
9.55
9.25
9.60
9.84
9.30
7.73
5.30
2.50
-0.24
-2.69
-4.80
-6.74
-8.86
-11.57
-15.12
-19.38
-23.86
-27.87
-30.82
-32.57
-33.59
-34.78
-36.99
-40.50
-44.74
-48.51
-50.60
-50.31
-47.80
-44.07
-40.52
-38.49
-38.82
-41.74
-46.84
-53.12
-59.12
-62.74
-61.76
-54.70
-41.70
-24.97
-8.27
4.43
10.56
9.91
4.65
-1.88
-6.68
-8.20
-6.59
-3.02
1.24
5.47
9.58
13.81
18.25
22.64
26.44
29.21
30.81
31.49
31.75
31.96
32.23
32.23
31.44
29.55
26.83
24.20
23.04
24.59
29.40
36.99
45.94
54.44
60.92
64.58
65.49
64.38
62.19
59.54
56.62
53.29
49.32
44.74
39.86
35.24
31.38
28.49
26.41
24.77
23.13
21.23
18.98
16.44
13.71
10.83
7.86
4.81
1.76
-1.22
-4.08
-6.90
-9.76
-12.79
-16.08
-19.72
-23.77
-28.19
-32.79
-37.07
-40.26
-41.51
-40.19
-36.15
-29.80
-22.02
-13.78
-5.98
0.83
6.33
10.34
12.75
13.44
12.45
9.91
6.16
1.61
-3.34
-8.26
-12.77
-16.51
-19.12
-20.36
-20.17
-18.72
-16.34
-13.50
-10.64
-8.05
-5.80
-3.75
-1.65
0.72
3.42
6.32
9.14
11.51
13.08
13.62
13.03
11.35
8.81
5.91
3.37
2.08
2.84
6.10
11.68
18.75
26.09
32.41
36.75
38.61
38.02
35.28
30.81
25.03
18.32
11.10
3.90
-2.70
-8.14
-12.03
-14.26
-14.96
-14.53
-13.52
-12.38
-11.48
-10.91
-10.59
-10.40
-10.25
-10.26
-10.66
-11.70
-13.53
-16.11
-19.21
-22.41
-25.22
-27.06
-27.36
-25.70
-21.84
-15.90
-8.40
-0.11
8.05
15.24
20.87
24.63
26.54
26.87
26.00
24.30
22.14
19.84
17.69
16.05
15.14
15.05
15.52
16.03
15.88
14.51
11.67
7.56
2.69
-2.37
-7.15
-11.43
-15.21
-18.59
-21.67
-24.51
-27.10
-29.37
-31.13
-32.06
-31.69
-29.62
-25.60
-19.71
-12.38
-4.31
3.72
11.00
17.07
21.63
24.58
25.96
25.88
24.62
22.57
20.23
18.09
16.52
15.75
15.83
16.66
18.09
19.94
21.94
23.88
25.52
26.68
27.22
27.05
26.18
24.66
22.64
20.29
17.78
15.10
12.14
8.64
4.47
-0.35
-5.59
-10.84
-15.72
-19.88
-23.00
-24.76
-24.83
-22.95
-19.17
-13.93
-7.98
-2.17
2.90
6.99
10.35
13.35
16.22
18.89
20.88
21.64
20.80
18.38
14.89
11.07
7.67
5.11
3.45
2.36
1.46
0.42
-0.84
-2.27
-3.81
-5.45
-7.32
-9.49
-11.94
-14.47
-16.75
-18.55
-19.90
-21.06
-22.38
-24.02
-25.67
-26.66
-26.15
-23.54
-18.79
-12.43
-5.42
1.19
6.64
10.48
12.67
13.34
12.67
10.84
7.98
4.31
0.15
-4.09
-7.94
-11.04
-13.24
-14.61
-15.42
-15.95
-16.40
-16.80
-17.07
-17.14
-17.04
-16.84
-16.66
-16.58
-16.57
-16.62
-16.71
-16.93
-17.35
-17.97
-18.67
-19.16
-19.06
-18.04
-15.90
-12.69
-8.69
-4.42
-0.47
2.65
4.62
5.39
5.07
3.84
1.83
-0.86
-4.17
-7.90
-11.73
-15.19
-17.87
-19.48
-19.97
-19.50
-18.37
-16.92
-15.42
-14.10
-13.09
-12.48
-12.27
-12.45
-13.02
-13.96
-15.27
-16.93
-18.93
-21.14
-23.34
-25.14
-26.11
-25.84
-24.11
-20.99
-16.83
-12.16
-7.51
-3.26
0.49
3.88
7.13
10.54
14.27
18.33
22.63
27.00
31.12
34.59
37.07
38.36
38.65
38.35
38.02
38.13
38.85
40.04
41.35
42.53
43.58
44.65
45.81
46.79
47.01
45.76
42.52
37.21
30.41
23.13
16.68
12.07
9.84
10.15
12.74
16.95
21.69
25.71
27.96
28.22
26.71
24.22
22.05
21.40
22.63
25.03
27.07
27.09
24.24
17.98
8.52
-2.66
-13.09
-20.04
-21.46
-16.58
-6.28
7.36
20.66
29.71
32.08
27.34
16.38
0.55
-18.67
-41.03
-60.17
-67.75
-60.03
-40.11
-15.45
5.35
15.60
13.08
0.45
-16.58
-33.20
-47.15
-58.05
-65.87
-70.02
-69.21
-62.27
-49.27
-31.89
-13.67
1.43
10.74
13.43
10.17
2.43
-7.81
-18.24
-26.47
-31.02
-31.61
-28.88
-24.08
-18.55
-13.39
-9.52
-7.03
-5.76
-5.36
-5.30
-4.87
-3.33
-0.30
4.02
8.85
13.15
15.90
16.26
13.98
9.44
3.40
-3.06
-8.82
-12.82
-14.45
-13.29
-9.68
-4.59
0.56
4.38
6.07
5.58
3.70
1.86
1.55
3.66
8.16
14.10
20.05
24.76
27.78
29.15
29.27
28.49
26.74
23.65
18.91
12.53
5.08
-2.27
-8.57
-13.23
-16.29
-18.21
-19.55
-20.64
-21.63
-22.45
-23.00
-23.31
-23.39
-23.28
-22.95
-22.53
-21.69
-20.22
-17.96
-14.92
-11.23
-7.16
-3.08
0.61
3.48
5.30
5.94
5.53
4.41
2.89
1.24
-0.40
-1.93
-3.23
-4.14
-4.49
-4.21
-3.37
-2.25
-1.22
-0.62
-0.62
-1.25
-2.37
-3.78
-5.30
-6.71
-7.95
-9.03
-10.15
-11.59
-13.66
-16.51
-19.98
-23.77
-27.10
-29.05
-28.87
-26.22
-21.26
-14.59
-7.04
0.51
7.37
13.02
17.20
19.76
20.76
20.36
18.81
16.36
13.26
9.72
6.04
2.54
-0.41
-2.45
-3.37
-3.15
-1.95
0.01
2.50
5.34
8.33
11.22
13.68
15.35
15.98
15.45
13.81
11.23
8.00
4.43
0.88
-2.25
-4.56
-5.74
-5.69
-4.50
-2.36
0.53
4.04
8.03
12.27
16.32
19.59
21.51
21.78
20.48
18.02
14.95
11.78
8.82
6.20
3.97
2.19
0.91
0.15
-0.23
-0.48
-0.89
-1.76
-3.16
-5.03
-7.12
-9.16
-10.92
-12.35
-13.54
-14.71
-16.10
-17.88
-20.12
-22.78
-25.72
-28.69
-31.31
-33.08
-33.53
-32.29
-29.19
-24.34
-18.07
-10.80
-3.01
4.83
12.30
18.99
24.58
28.90
31.92
33.73
34.45
34.18
32.99
30.99
28.38
25.50
22.72
20.35
18.53
17.23
16.29
15.54
14.92
14.40
13.99
13.63
13.17
12.42
11.23
9.55
7.50
5.31
3.20
1.31
-0.38
-2.00
-3.70
-5.62
-7.78
-10.10
-12.42
-14.47
-15.93
-16.41
-15.61
-13.34
-9.69
-5.02
0.09
4.99
9.12
12.09
13.77
14.15
13.38
11.62
9.10
6.08
2.83
-0.37
-3.32
-5.87
-7.94
-9.51
-10.62
-11.34
-11.72
-11.84
-11.76
-11.53
-11.24
-10.93
-10.66
-10.43
-10.19
-9.88
-9.39
-8.66
-7.68
-6.57
-5.52
-4.78
-4.59
-5.13
-6.44
-8.37
-10.56
-12.49
-13.54
-13.20
-11.14
-7.39
-2.18
4.02
10.68
17.29
23.34
28.41
32.10
34.10
34.33
32.88
30.11
26.50
22.56
18.71
15.26
12.40
10.25
8.91
8.44
8.85
10.01
11.65
13.42
14.97
16.07
16.66
16.74
16.36
15.56
14.34
12.66
10.50
7.96
5.25
2.64
0.44
-0.99
-1.38
-0.59
1.24
3.76
6.69
9.76
12.68
15.15
16.86
17.58
17.13
15.48
12.81
9.86
7.41
5.99
5.67
6.20
7.25
8.53
9.84
11.07
12.75
15.25
18.50
21.88
24.59
26.06
26.07
24.69
22.15
19.49
17.67
17.21
18.10
20.19
23.41
27.74
32.96
34.05
27.89
14.81
-1.37
-16.18
-27.15
-34.02
-37.82
-39.87
-41.19
-41.58
-40.64
-38.38
-35.49
-32.95
-31.48
-31.34
-32.32
-33.90
-34.96
-34.63
-32.84
-30.27
-27.85
-26.15
-25.16
-24.45
-23.53
-21.85
-19.36
-16.54
-14.06
-12.32
-11.13
-9.92
-8.23
-6.02
-3.52
-1.18
0.56
1.45
1.51
1.02
0.24
-0.62
-1.53
-2.38
-3.04
-3.44
-3.57
-3.49
-3.16
-2.35
-0.74
1.81
5.08
8.35
10.53
10.67
8.30
3.91
-1.30
-5.90
-8.89
-10.05
-9.89
-9.28
-8.48
-8.09
-8.30
-9.17
-10.89
-13.69
-17.84
-22.68
-27.11
-29.98
-30.92
-30.49
-29.66
-29.33
-29.56
-29.62
-28.60
-26.15
-23.02
-20.97
-21.85
-25.51
-30.58
-34.20
-33.42
-26.42
-13.23
4.13
22.35
37.83
48.45
53.53
53.78
50.56
45.36
39.87
35.40
32.45
30.45
28.93
27.42
26.12
25.71
24.26
20.95
16.42
14.22
13.12
11.25
6.51
-1.06
-10.27
-19.42
-26.25
-28.51
-24.07
-11.45
9.47
34.77
57.74
71.91
73.60
63.43
45.61
26.03
9.31
-2.62
-11.09
-18.92
-28.49
-39.98
-51.23
-59.50
-63.82
-65.33
-66.33
-68.60
-72.08
-74.84
-74.37
-69.11
-59.50
-47.71
-36.73
-28.69
-23.71
-20.37
-16.78
-11.65
-4.54
3.07
9.56
13.63
14.86
14.71
15.16
17.92
23.61
31.83
41.32
50.85
59.39
66.24
71.88
76.61
80.63
83.68
85.82
87.41
89.15
91.12
85.74
68.38
39.58
5.22
-28.80
-58.74
-83.05
-101.62
-115.52
-125.61
-131.82
-134.48
-133.10
-128.20
-118.79
-104.99
-86.63
-62.95
-33.10
4.18
49.11
101.60
157.81
210.81
252.64
277.95
286.23
281.38
269.91
245.34
207.30
160.31
112.05
69.88
39.73
25.15
25.85
35.96
48.99
61.51
71.72
79.67
86.32
90.45
90.69
84.66
69.05
40.99
0.83
-49.06
-103.95
-157.38
-202.70
-234.91
-253.08
-261.17
-265.92
-272.59
-283.26
-295.30
-302.34
-297.17
-274.51
-233.31
-178.07
-116.78
-57.11
-4.67
38.52
73.84
103.93
132.26
162.15
192.76
219.61
237.22
240.96
228.70
201.33
160.07
108.48
54.07
2.41
-42.51
-76.58
-96.83
-102.79
-97.14
-88.18
-82.81
-80.37
-80.50
-83.07
-86.50
-89.74
-93.29
-99.42
-115.19
-144.79
-182.53
-223.59
-263.08
-293.38
-306.96
-299.59
-248.08
-153.40
-65.14
2.99
57.85
101.84
137.19
164.93
184.74
195.95
195.07
182.81
168.68
157.68
149.69
143.31
136.34
126.95
114.33
96.03
72.53
50.63
33.52
20.79
11.44
4.01
-2.91
-10.49
-21.05
-34.77
-47.29
-56.16
-61.10
-62.43
-60.96
-57.37
-52.25
-46.52
-39.87
-30.03
-16.51
-0.56
15.84
31.00
44.17
55.05
63.18
68.45
71.32
71.84
70.55
68.76
66.32
64.82
65.50
66.91
64.94
55.35
36.50
11.75
-15.01
-39.03
-56.31
-65.61
-68.77
-69.44
-68.57
-67.49
-66.08
-63.48
-58.85
-52.50
-46.12
-41.68
-37.01
-30.08
-19.50
-4.65
13.74
33.83
53.03
68.72
78.86
82.46
79.30
70.16
56.94
42.18
29.03
18.43
10.98
6.80
5.89
7.93
12.03
16.69
19.99
20.29
16.86
10.35
2.37
-5.28
-10.86
-13.90
-15.56
-17.64
-21.41
-27.17
-34.07
-40.85
-46.26
-49.36
-50.15
-49.69
-49.21
-49.53
-50.88
-53.10
-55.85
-58.33
-59.05
-52.97
-37.41
-13.69
13.83
40.41
62.12
76.00
80.72
80.02
76.69
72.95
69.99
67.38
63.12
54.35
39.08
16.21
-11.61
-37.27
-53.69
-57.94
-51.53
-37.74
-19.85
-0.91
15.65
26.13
27.09
17.21
-1.03
-21.16
-35.31
-37.92
-28.10
-9.71
10.96
27.46
35.37
33.41
23.44
9.12
-5.91
-19.00
-28.79
-34.61
-36.75
-35.22
-30.81
-24.83
-18.86
-14.37
-12.10
-11.85
-12.49
-12.58
-11.07
-7.89
-3.92
-0.48
1.14
0.36
-2.57
-6.37
-9.37
-10.11
-8.04
-3.83
1.25
5.33
7.23
6.61
4.17
1.05
-1.67
-3.31
-3.62
-2.21
1.29
7.00
13.95
20.73
25.93
29.09
31.73
34.83
39.41
45.45
51.71
55.91
56.51
53.52
48.53
43.78
40.51
38.94
36.91
35.09
32.80
30.57
29.69
31.34
35.77
41.57
47.31
52.46
56.54
59.53
61.84
63.82
65.57
66.70
65.02
58.86
47.52
31.42
11.62
-9.53
-28.51
-41.51
-45.96
-43.52
-37.34
-31.12
-28.86
-34.59
-50.86
-77.56
-111.74
-148.50
-184.61
-215.85
-237.59
-246.67
-242.84
-227.82
-204.04
-173.95
-126.42
-65.12
-6.12
34.79
53.28
55.30
50.99
49.32
54.80
66.48
77.02
79.72
72.15
56.40
37.15
19.77
7.66
1.56
-0.15
-2.09
-6.96
-13.80
-19.22
-19.80
-13.75
-1.76
13.40
28.14
38.56
43.34
44.01
43.41
42.83
42.52
41.83
39.87
36.03
30.05
22.65
15.46
9.95
6.90
6.01
6.16
5.92
3.65
-0.79
-5.98
-9.81
-11.03
-9.35
-5.23
0.79
8.27
16.72
25.44
32.74
37.54
38.00
33.78
26.38
18.73
13.73
13.06
16.45
21.50
25.02
24.58
19.81
10.67
-0.80
-11.74
-19.45
-20.02
-11.36
5.16
25.21
43.75
56.36
60.56
55.94
44.15
28.21
11.11
-4.90
-18.46
-28.85
-35.85
-39.31
-39.28
-36.16
-30.82
-24.92
-20.27
-18.19
-18.93
-21.73
-25.08
-27.45
-27.93
-26.46
-24.01
-21.88
-20.92
-21.18
-22.02
-22.40
-21.48
-19.28
-15.94
-12.28
-9.15
-6.91
-5.46
-4.38
-3.21
-1.70
-0.14
1.24
2.30
3.12
3.91
4.81
5.75
6.59
7.29
8.03
9.26
11.30
14.04
16.93
19.14
20.04
19.46
17.75
15.72
14.25
13.85
14.45
15.42
15.69
14.30
10.71
5.13
-1.48
-7.67
-11.85
-12.83
-10.11
-4.30
3.49
11.89
19.76
26.40
31.55
35.31
37.90
39.44
39.44
37.47
33.22
26.75
18.37
8.50
-2.34
-13.65
-25.12
-37.23
-49.08
-59.57
-67.62
-72.61
-74.53
-73.83
-71.27
-64.19
-52.25
-37.17
-21.97
-9.01
0.71
7.20
11.10
13.37
14.99
16.16
16.87
16.91
16.16
14.83
13.45
12.82
13.58
15.88
18.81
21.41
23.02
23.71
23.81
23.71
23.66
23.78
24.10
24.34
24.32
23.72
21.73
17.98
12.30
5.13
-2.47
-9.37
-14.96
-18.92
-21.31
-22.41
-22.39
-21.35
-19.26
-16.19
-12.49
-8.81
-5.82
-3.91
-3.01
-2.62
-2.08
-0.85
1.23
4.32
7.87
11.15
13.50
14.60
14.56
13.71
12.45
11.02
9.47
7.74
5.89
4.15
2.83
2.16
2.14
2.45
2.65
2.32
1.26
-0.38
-2.26
-4.01
-5.40
-6.47
-7.46
-8.79
-10.82
-13.82
-17.72
-22.14
-26.45
-29.96
-32.08
-32.54
-31.28
-28.43
-24.18
-18.66
-12.01
-4.47
3.48
11.13
17.72
22.66
25.70
26.98
26.90
25.86
24.14
21.74
18.61
14.75
10.41
6.08
2.32
-0.44
-2.15
-3.07
-3.62
-4.20
-4.95
-5.76
-6.41
-6.71
-6.68
-6.49
-6.34
-6.38
-6.61
-7.01
-7.66
-8.69
-10.33
-12.63
-15.36
-17.96
-19.65
-19.73
-17.82
-14.04
-9.02
-3.57
1.63
6.24
10.33
14.12
17.78
21.21
24.03
25.86
26.65
26.63
26.25
25.77
25.17
24.21
22.69
20.60
18.19
15.83
13.81
12.18
10.72
9.27
7.78
6.22
4.28
1.39
-2.83
-8.24
-14.18
-19.79
-24.55
-28.51
-32.34
-37.12
-43.44
-50.74
-57.26
-60.89
-60.32
-55.42
-47.16
-37.12
-27.32
-19.52
-14.80
-13.61
-16.05
-21.79
-29.46
-36.25
-36.42
-25.30
-3.31
23.27
46.11
59.16
60.34
51.48
37.02
22.23
10.88
4.74
4.12
8.40
16.32
25.80
34.31
39.56
40.46
37.08
30.86
24.77
20.66
19.37
20.34
21.97
22.57
21.61
19.33
16.65
14.70
14.21
14.72
15.64
16.85
17.79
19.38
22.13
25.56
28.37
29.17
26.44
20.55
14.15
9.49
8.33
10.41
13.52
14.55
10.85
0.09
-17.25
-38.22
-59.04
-76.36
-88.72
-96.60
-102.05
-98.36
-84.93
-64.95
-43.08
-22.76
-5.26
9.29
21.00
29.82
35.68
37.16
33.90
26.67
16.73
5.46
-5.89
-16.25
-24.62
-30.08
-33.00
-34.15
-33.29
-30.53
-26.51
-22.06
-17.90
-14.34
-11.10
-8.11
-5.02
-1.76
0.70
0.44
-3.98
-12.71
-24.04
-34.66
-41.10
-40.95
-33.87
-21.04
-5.29
11.62
29.03
46.60
63.12
75.97
81.99
79.26
68.41
52.59
36.47
22.16
7.69
-10.76
-34.72
-60.90
-82.03
-90.33
-80.98
-53.35
-12.53
32.65
73.48
104.60
124.22
132.71
131.34
113.65
80.33
40.93
7.46
-13.62
-22.69
-23.74
-21.59
-20.14
-19.60
-17.90
-12.67
-2.75
11.90
30.76
52.75
76.22
92.52
95.80
86.30
68.93
49.14
29.91
11.38
-7.91
-29.12
-51.45
-70.96
-82.24
-81.85
-70.85
-54.29
-38.65
-28.98
-27.66
-33.15
-41.63
-49.01
-52.49
-51.42
-46.41
-38.21
-27.33
-14.44
-1.13
10.57
17.11
16.75
10.49
1.92
-4.33
-4.83
0.96
10.43
19.34
23.88
22.49
16.03
6.90
-2.32
-10.04
-15.78
-20.01
-23.30
-25.92
-27.65
-28.33
-28.09
-27.34
-26.75
-26.18
-25.17
-23.03
-19.01
-12.61
-4.21
4.78
12.17
15.58
13.95
7.99
0.17
-6.21
-8.35
-5.19
2.18
11.24
19.32
24.82
27.92
29.52
30.75
32.23
33.69
34.31
33.29
30.44
26.39
22.14
18.35
14.98
11.35
6.77
1.18
-4.61
-9.27
-11.55
-10.90
-7.92
-3.82
0.11
3.01
4.50
4.48
2.66
-1.03
-6.16
-11.77
-16.41
-18.55
-17.28
-12.65
-5.00
3.50
10.27
13.54
12.78
8.53
1.84
-6.24
-14.77
-22.95
-30.20
-36.45
-41.26
-44.37
-45.86
-46.03
-45.33
-44.12
-42.69
-41.38
-40.27
-39.20
-37.91
-36.12
-33.03
-28.34
-22.07
-14.47
-6.06
2.75
11.72
20.63
29.16
36.81
42.92
46.97
48.77
48.47
46.57
43.65
40.08
35.98
31.36
26.22
20.80
15.50
10.73
6.76
3.76
1.75
0.71
0.60
1.27
2.52
3.99
5.33
6.26
6.70
6.78
6.68
6.53
6.31
5.92
5.31
4.62
4.19
4.41
5.47
7.24
9.23
10.88
11.77
11.88
11.51
11.10
10.94
11.01
11.06
10.75
9.87
8.42
6.50
4.22
1.62
-1.27
-4.30
-7.15
-9.33
-10.33
-9.82
-7.72
-4.31
-0.08
4.38
8.49
11.77
13.88
14.63
13.97
12.01
8.94
5.04
0.64
-3.89
-8.14
-11.77
-14.49
-16.21
-17.06
-17.35
-17.40
-17.42
-17.36
-16.94
-15.81
-13.81
-11.08
-8.03
-5.14
-2.67
-0.62
1.28
3.26
5.33
7.21
8.53
9.03
8.76
8.00
7.02
5.90
4.47
2.54
0.12
-2.50
-4.87
-6.66
-7.86
-8.74
-9.61
-10.51
-11.08
-10.62
-8.41
-4.00
2.58
10.86
20.05
29.29
37.84
45.24
51.27
55.91
59.27
61.50
62.80
63.42
63.67
63.89
64.37
65.23
66.33
67.36
67.82
67.22
65.12
61.23
55.47
48.05
39.43
30.21
21.00
12.24
4.08
-3.57
-10.89
-18.01
-24.77
-30.80
-35.63
-38.91
-40.60
-40.99
-40.63
-40.14
-40.08
-40.78
-42.36
-44.73
-47.73
-51.11
-54.68
-58.21
-61.50
-64.31
-66.39
-67.57
-67.77
-67.06
-65.63
-63.64
-61.15
-58.06
-54.15
-49.27
-43.47
-37.06
-30.57
-24.57
-19.54
-15.75
-13.24
-11.92
-11.59
-12.07
-13.15
-14.62
-16.26
-17.88
-19.29
-20.35
-20.94
-20.95
-20.27
-18.89
-16.86
-14.38
-11.71
-9.17
-7.01
-5.31
-3.99
-2.84
-1.74
-0.62
0.50
1.58
2.56
3.39
4.08
4.65
5.05
4.97
4.17
2.54
0.17
-2.76
-6.04
-9.47
-12.85
-15.98
-18.94
-21.73
-24.18
-26.06
-27.21
-27.52
-26.80
-24.83
-21.50
-17.42
-13.35
-9.91
-7.34
-5.45
-3.74
-1.61
1.19
6.62
14.59
23.50
31.33
37.29
42.06
46.66
51.49
55.88
58.35
57.26
52.12
43.73
33.76
23.92
15.50
9.42
6.78
8.62
15.12
25.65
38.29
50.15
58.11
58.78
51.37
37.82
21.42
5.18
-8.72
-19.35
-26.56
-30.67
-32.26
-31.93
-30.45
-28.72
-28.09
-28.46
-29.33
-29.79
-28.95
-26.22
-21.11
-13.56
-3.66
7.05
16.48
22.30
23.04
19.28
13.11
7.87
6.81
11.61
21.48
33.46
43.58
48.84
48.25
42.96
35.41
27.84
21.45
16.18
11.48
7.10
3.81
2.76
4.94
10.33
17.72
25.16
30.58
32.38
28.94
19.93
6.43
-9.01
-23.57
-36.15
-47.08
-56.93
-66.29
-75.68
-83.60
-89.22
-92.17
-92.73
-91.82
-90.50
-89.57
-89.25
-88.96
-87.35
-83.26
-76.01
-65.82
-53.77
-41.18
-29.26
-18.83
-10.24
-3.34
2.11
6.43
9.92
12.75
15.07
17.05
18.88
20.86
23.44
26.98
31.68
37.46
43.95
50.73
57.44
63.92
70.16
76.18
81.88
87.09
91.61
95.31
98.15
100.10
100.98
100.48
98.24
94.06
88.04
80.62
72.31
63.50
54.33
44.77
34.90
25.08
15.93
8.01
1.63
-3.21
-6.67
-8.81
-9.41
-8.14
-4.92
-0.21
4.95
9.29
11.71
11.70
9.37
5.25
0.03
-5.75
-11.64
-17.34
-22.52
-26.86
-30.16
-32.58
-34.53
-36.56
-39.08
-42.02
-44.76
-46.06
-44.52
-39.31
-30.84
-20.87
-11.95
-6.56
-6.06
-10.36
-17.83
-26.12
-33.17
-38.03
-40.61
-41.11
-39.55
-35.48
-28.73
-19.46
-8.41
3.34
14.79
25.64
36.48
48.05
60.69
71.44
76.05
71.63
58.98
41.73
24.10
9.61
-1.76
-10.65
-17.83
-23.69
-28.36
-31.20
-32.48
-33.05
-33.93
-35.80
-38.46
-41.15
-42.71
-42.15
-39.14
-34.38
-29.12
-24.50
-21.22
-19.12
-17.76
-16.57
-15.07
-13.06
-10.70
-8.23
-5.84
-3.59
-1.29
1.04
3.10
4.37
4.42
3.08
0.61
-2.34
-5.01
-6.56
-6.68
-5.63
-4.07
-2.67
-1.84
-1.74
-2.40
-3.80
-5.64
-7.57
-9.19
-9.91
-8.83
-5.06
2.32
12.65
23.64
32.99
39.72
44.32
47.84
50.79
52.63
52.17
49.47
44.55
38.55
33.07
29.31
27.47
26.82
26.07
23.96
18.91
10.76
0.77
-9.39
-18.27
-25.87
-32.56
-38.63
-44.26
-49.58
-54.80
-58.78
-61.11
-61.77
-60.95
-58.77
-55.27
-50.32
-43.73
-35.19
-24.52
-12.07
1.31
14.37
25.93
35.11
41.58
45.59
47.75
48.71
48.73
47.88
46.20
43.94
41.51
39.32
37.63
36.37
35.22
33.60
31.07
27.45
22.89
17.65
11.94
5.81
-0.76
-7.86
-15.55
-23.71
-32.01
-39.99
-47.31
-53.82
-59.54
-64.55
-68.89
-72.46
-75.05
-76.22
-75.64
-73.32
-69.59
-64.95
-59.80
-54.39
-48.70
-42.54
-35.30
-26.58
-16.56
-6.01
4.10
13.02
20.38
26.29
31.07
35.64
40.67
46.07
51.16
55.24
58.07
59.79
60.81
61.60
63.32
67.00
72.78
79.92
87.12
92.87
95.37
92.73
79.51
53.54
18.12
-18.86
-49.19
-67.82
-73.52
-67.99
-54.66
-37.58
-20.13
-3.38
11.43
22.63
28.97
30.16
26.89
20.43
12.33
4.60
-1.73
-6.07
-8.68
-10.15
-11.16
-12.47
-14.99
-19.34
-25.18
-31.44
-36.93
-40.94
-43.09
-43.31
-41.86
-39.11
-35.30
-30.31
-23.92
-15.37
-5.57
3.56
10.43
14.66
16.90
18.10
19.05
20.01
20.71
20.50
18.91
16.07
12.63
9.45
7.31
6.60
7.12
8.33
9.49
10.02
9.81
9.09
8.23
7.56
7.18
6.93
6.57
5.92
4.89
3.49
1.74
-0.56
-3.79
-8.04
-13.52
-20.26
-26.86
-31.30
-31.41
-26.15
-16.32
-4.48
6.09
12.51
13.53
9.97
3.98
-2.03
-6.52
-9.33
-11.25
-13.17
-15.54
-17.97
-19.69
-20.27
-19.97
-19.55
-19.82
-21.42
-23.63
-25.35
-25.46
-23.39
-19.41
-14.40
-9.38
-5.10
-1.69
1.34
4.60
8.53
13.11
17.78
21.87
25.06
27.40
29.29
31.33
34.02
37.66
42.42
47.20
49.75
48.33
41.98
31.03
17.05
2.29
-10.92
-20.92
-27.01
-29.43
-28.90
-26.31
-22.35
-17.44
-11.92
-6.19
-0.83
3.67
7.16
9.87
12.09
14.05
15.64
16.60
16.90
16.20
14.40
11.72
8.52
5.13
1.90
-0.83
-2.63
-3.22
-2.67
-1.38
-0.05
0.72
0.51
-0.70
-2.63
-4.81
-6.82
-8.50
-9.83
-10.87
-11.69
-12.57
-13.47
-14.75
-16.70
-19.51
-23.25
-27.66
-32.21
-35.91
-37.64
-36.28
-30.96
-21.33
-7.95
7.61
23.27
37.07
47.75
54.51
57.03
55.32
49.71
40.56
28.10
12.49
-6.42
-26.29
-43.64
-55.53
-60.50
-58.06
-48.93
-35.15
-19.76
-5.99
3.86
8.68
8.97
5.81
0.34
-6.47
-13.97
-21.38
-27.65
-31.59
-32.54
-30.63
-26.68
-21.76
-16.47
-11.48
-6.80
-1.93
3.71
10.16
16.77
22.54
26.56
28.35
27.91
26.20
24.48
23.82
24.55
26.27
28.17
29.40
29.39
27.90
25.56
23.26
21.81
21.64
23.02
26.31
32.00
40.54
49.24
55.33
56.76
53.11
45.05
33.61
19.96
5.50
-8.40
-20.68
-30.39
-37.13
-41.09
-42.85
-43.08
-42.30
-40.86
-39.27
-38.15
-37.75
-38.04
-38.67
-39.02
-38.54
-37.06
-34.49
-31.27
-28.18
-25.87
-24.82
-25.24
-26.87
-29.13
-31.13
-32.04
-31.51
-29.77
-27.39
-24.99
-22.93
-20.92
-18.33
-14.38
-8.65
-1.35
6.82
15.19
23.51
30.70
36.37
40.40
43.02
44.49
44.84
43.99
41.85
38.45
33.97
28.77
23.22
18.10
14.20
11.96
11.37
12.13
13.81
15.97
18.36
20.73
23.46
26.98
31.43
36.62
42.31
48.30
54.42
60.42
61.95
56.12
42.89
25.39
7.88
-6.40
-16.02
-21.12
-22.79
-22.09
-20.12
-17.54
-14.72
-11.85
-8.81
-5.26
-0.78
4.91
10.70
15.76
19.00
19.18
15.40
7.71
-2.66
-13.45
-21.97
-26.13
-24.87
-18.87
-10.42
-2.59
2.05
2.14
-1.90
-8.24
-14.68
-19.57
-22.34
-23.46
-23.68
-23.50
-23.22
-22.95
-22.78
-23.06
-24.25
-26.46
-29.17
-31.34
-30.30
-24.95
-16.51
-7.68
-0.86
2.92
3.94
3.14
1.55
-0.07
-1.68
-3.75
-6.28
-9.13
-12.17
-15.14
-17.59
-18.74
-17.74
-14.34
-8.83
-1.91
5.86
13.15
18.57
20.69
19.15
14.87
9.33
3.91
-0.38
-2.98
-3.78
-2.88
-0.55
2.91
7.10
11.48
15.47
18.67
20.85
22.07
22.46
22.32
22.17
22.45
23.25
24.35
25.33
25.73
25.23
23.81
21.84
19.90
18.50
17.82
17.60
17.36
16.73
15.42
13.40
10.91
8.35
6.08
4.30
3.03
2.16
1.59
1.21
0.97
0.84
0.75
0.55
0.06
-0.83
-2.13
-3.70
-5.35
-6.94
-8.40
-9.75
-11.05
-12.32
-13.58
-14.80
-16.02
-17.25
-18.41
-19.25
-19.31
-18.15
-15.49
-11.46
-6.59
-1.64
2.70
5.99
8.20
9.52
10.15
10.17
9.52
8.13
6.07
3.63
1.22
-0.83
-2.42
-3.68
-4.83
-5.97
-7.04
-7.82
-8.10
-7.78
-6.99
-6.03
-5.27
-4.96
-5.18
-5.81
-6.75
-7.87
-9.08
-10.28
-11.41
-12.47
-13.46
-14.43
-15.43
-16.61
-18.00
-19.33
-20.15
-19.96
-18.44
-15.56
-11.65
-7.29
-3.52
-1.16
-0.30
-0.38
-0.54
-0.07
1.37
3.68
6.38
8.02
7.50
4.78
0.81
-3.23
-6.49
-8.64
-9.81
-10.39
-12.05
-15.84
-21.38
-27.16
-31.78
-34.70
-36.21
-37.02
-37.93
-41.14
-48.03
-58.17
-69.82
-81.34
-92.10
-102.29
-112.52
-112.75
-97.92
-71.34
-41.96
-16.63
2.98
18.51
32.57
47.25
63.37
78.56
89.76
94.93
93.76
87.16
76.71
64.49
52.53
42.37
33.45
24.97
16.86
9.95
5.16
2.81
2.64
3.90
5.62
6.13
4.37
0.60
-3.83
-7.37
-9.33
-9.38
-7.97
-5.86
-4.21
-3.73
-4.42
-5.66
-6.83
-7.54
-7.65
-7.20
-6.31
-5.41
-4.90
-4.99
-5.48
-5.95
-5.93
-5.07
-3.16
-0.39
2.65
5.15
6.45
6.40
5.16
3.17
0.90
-0.97
-2.00
-2.18
-1.72
-1.52
-1.72
-1.99
-1.81
-0.71
1.97
6.56
12.60
19.16
25.31
30.53
34.62
37.59
39.60
41.60
44.80
49.51
55.28
61.15
66.20
69.84
71.97
68.60
58.00
41.89
23.92
7.66
-4.96
-13.39
-17.94
-19.47
-19.14
-17.56
-13.59
-7.41
0.65
10.00
19.68
28.25
34.15
36.67
33.20
25.59
16.77
8.92
2.01
-5.65
-16.00
-29.55
-44.49
-59.05
-71.10
-80.22
-87.04
-92.36
-96.23
-97.81
-95.76
-88.60
-76.57
-59.55
-39.86
-20.45
-3.80
8.94
16.79
19.57
22.06
27.97
37.89
50.75
64.44
76.50
84.98
88.94
84.67
72.14
54.86
38.60
27.66
23.10
23.13
24.69
24.93
22.34
17.70
12.14
6.58
1.52
-2.37
-4.87
-5.23
-2.78
2.52
10.26
18.42
24.00
24.53
19.31
9.73
-1.30
-10.87
-17.01
-18.02
-12.71
-2.35
9.59
19.38
25.00
26.79
26.28
25.30
25.51
27.31
30.90
36.34
43.72
52.70
62.46
71.42
77.92
80.83
79.72
74.81
66.97
57.56
47.93
39.11
30.68
21.77
11.57
-0.14
-12.89
-25.44
-35.70
-41.82
-42.60
-39.65
-35.75
-33.64
-35.15
-41.04
-50.96
-63.07
-75.37
-85.68
-94.81
-104.31
-115.34
-127.99
-141.61
-155.05
-166.06
-173.18
-175.09
-174.18
-173.11
-173.31
-174.91
-178.27
-185.03
-196.82
-215.63
-221.96
-201.82
-153.51
-88.44
-21.40
36.34
74.73
98.21
111.16
117.85
118.64
112.84
100.40
82.89
62.71
42.56
25.73
13.55
6.47
1.46
-4.52
-12.84
-22.26
-29.76
-31.69
-24.49
-7.35
18.35
47.64
75.08
95.77
106.61
106.97
99.42
89.71
84.23
88.27
102.92
125.85
151.12
170.73
177.16
165.96
137.27
95.22
47.17
1.94
-30.61
-43.52
-35.35
-10.42
23.60
59.17
91.30
118.43
132.77
130.29
112.90
86.09
54.56
21.65
-9.09
-33.95
-50.58
-59.27
-61.35
-59.65
-57.50
-57.24
-59.19
-61.85
-63.22
-62.30
-59.71
-56.49
-54.03
-53.76
-55.63
-58.31
-59.87
-58.92
-55.49
-50.80
-45.81
-41.09
-36.83
-32.88
-28.87
-24.53
-19.81
-15.02
-10.56
-6.39
-2.36
1.56
5.28
8.68
10.85
11.48
10.60
8.53
5.91
3.28
0.96
-0.92
-2.45
-3.84
-5.14
-6.43
-7.73
-8.84
-9.63
-9.92
-9.55
-8.61
-7.45
-6.41
-5.82
-5.77
-5.90
-6.18
-6.36
-6.23
-5.78
-5.26
-4.94
-5.05
-5.67
-6.15
-6.67
-6.78
-5.63
-2.68
2.02
7.77
13.51
18.07
21.49
22.70
21.83
20.18
18.81
18.00
17.23
15.80
13.15
10.58
7.79
5.58
6.13
10.88
19.92
32.07
45.84
53.85
62.80
71.34
79.34
88.79
101.30
117.06
134.69
152.00
166.28
176.84
181.32
168.47
134.55
85.44
33.19
-12.08
-43.63
-65.38
-79.96
-90.17
-97.24
-99.92
-97.80
-92.22
-85.72
-80.58
-78.20
-77.41
-77.55
-77.57
-75.56
-70.62
-63.35
-55.39
-48.25
-42.98
-38.97
-35.82
-33.06
-29.58
-24.86
-19.19
-13.50
-8.75
-5.72
-4.33
-4.51
-6.11
-8.49
-11.05
-13.40
-15.37
-16.84
-17.93
-18.68
-19.13
-19.34
-19.12
-18.13
-15.99
-12.55
-7.87
-2.48
2.77
7.26
10.43
11.92
11.62
9.77
6.82
3.59
0.96
-0.35
0.74
4.54
10.24
15.98
19.63
19.84
17.11
13.52
11.85
15.14
24.67
39.34
56.28
72.27
84.95
93.84
99.30
97.23
85.29
64.20
37.77
10.56
-12.80
-32.25
-47.92
-60.10
-69.67
-76.32
-80.24
-82.11
-82.80
-82.83
-82.30
-80.48
-76.73
-70.93
-62.89
-53.12
-42.64
-32.73
-24.35
-18.00
-13.34
-9.83
-7.09
-4.54
-1.92
0.72
2.98
4.32
4.14
2.24
-1.28
-5.85
-10.19
-12.80
-12.47
-8.71
-1.90
6.87
16.35
25.47
33.66
40.92
47.49
53.53
58.84
62.96
65.24
65.24
62.83
58.32
52.33
45.59
38.69
32.02
25.79
20.17
15.44
12.02
10.40
10.95
13.66
18.10
23.44
28.66
32.90
35.58
36.60
36.25
34.95
33.05
30.64
27.65
23.98
19.59
14.54
9.09
3.64
-1.39
-5.72
-9.30
-12.18
-14.51
-16.44
-18.30
-20.29
-22.42
-24.51
-26.30
-27.61
-28.44
-28.95
-29.57
-30.99
-33.72
-37.64
-41.98
-45.51
-46.94
-45.36
-40.51
-31.87
-20.57
-9.46
-1.94
-0.20
-4.55
-13.77
-25.73
-37.84
-47.43
-52.20
-50.63
-42.47
-29.07
-13.15
2.08
14.20
22.40
27.27
29.96
31.36
31.72
31.04
29.47
27.70
26.69
27.28
28.79
29.66
28.26
23.80
16.99
9.79
4.45
2.60
4.48
9.02
14.39
18.83
21.06
20.63
17.88
13.33
7.32
0.04
-8.53
-17.69
-26.15
-32.21
-34.40
-31.86
-24.78
-14.58
-3.90
3.95
5.75
-0.43
-14.57
-33.78
-52.86
-66.43
-70.87
-65.41
-51.74
-33.12
-14.02
3.99
19.39
30.88
37.71
40.11
39.42
37.96
37.96
40.75
46.66
54.75
63.52
71.37
76.80
76.80
69.48
53.94
31.01
3.93
-22.24
-41.74
-50.29
-46.83
-34.12
-17.45
-2.64
6.31
8.50
5.64
0.80
-3.32
-5.50
-6.20
-6.70
-8.49
-12.60
-19.23
-28.12
-38.74
-50.54
-62.87
-74.87
-85.08
-91.74
-93.02
-87.74
-76.01
-59.30
-40.16
-21.33
-4.83
8.48
18.72
26.34
31.55
34.08
33.39
29.17
21.73
12.11
1.81
-7.61
-14.80
-18.85
-19.38
-16.69
-11.71
-5.83
-0.45
3.49
5.88
7.40
9.07
11.67
15.39
19.74
23.84
26.78
27.94
27.10
24.43
20.39
15.60
10.78
6.65
3.76
2.38
2.34
3.13
4.01
4.30
3.49
1.45
-1.57
-5.02
-8.23
-10.76
-12.56
-14.02
-15.78
-18.50
-22.49
-27.57
-32.96
-37.71
-41.06
-42.52
-41.81
-38.77
-33.51
-26.62
-19.31
-12.90
-8.85
-8.20
-11.02
-16.07
-21.47
-25.60
-27.87
-28.76
-28.28
-26.37
-22.81
-17.36
-9.85
-0.45
10.19
21.16
31.83
43.32
56.38
70.35
83.21
92.81
98.09
99.61
99.30
99.67
104.35
114.85
129.66
145.18
157.96
166.12
169.45
168.90
155.03
124.76
83.12
39.85
2.40
-26.71
-48.13
-63.52
-74.59
-82.76
-87.51
-88.67
-87.26
-85.05
-83.41
-82.69
-82.59
-82.77
-83.02
-82.51
-80.40
-76.84
-72.69
-68.54
-64.40
-59.90
-54.76
-48.86
-41.47
-32.29
-21.62
-10.40
0.44
10.32
18.99
26.38
32.51
37.83
41.13
41.47
38.03
30.62
19.81
6.85
-6.87
-20.11
-31.95
-41.82
-49.23
-53.76
-55.05
-52.88
-47.50
-39.73
-30.85
-22.20
-14.73
-8.54
-3.18
1.88
6.95
11.80
15.76
18.05
18.15
16.08
12.66
8.89
5.45
2.48
-0.20
-2.76
-5.13
-6.91
-7.67
-6.67
-3.82
0.11
3.81
6.27
7.20
7.14
7.07
7.67
9.96
14.12
19.40
24.57
28.81
32.18
35.40
39.59
45.27
53.47
64.32
76.76
88.87
98.77
105.07
107.04
105.05
93.79
72.36
45.15
19.55
0.78
-10.34
-16.21
-19.72
-21.05
-20.80
-17.95
-12.03
-4.00
3.83
9.33
11.42
7.51
-2.34
-17.38
-34.87
-51.84
-66.45
-79.21
-90.44
-100.17
-108.52
-113.58
-115.73
-115.65
-114.15
-109.02
-98.85
-83.11
-63.02
-42.63
-22.42
-3.08
15.07
30.96
43.36
51.01
53.51
51.36
46.00
39.65
33.46
28.04
23.60
20.24
17.74
16.11
15.41
16.02
18.38
21.97
25.90
29.47
32.46
34.80
36.56
37.89
39.31
41.25
43.48
45.17
45.61
44.61
42.26
38.99
32.74
23.35
12.46
2.52
-5.09
-9.68
-10.89
-9.11
-5.74
-2.87
-1.37
-1.37
-1.58
-0.44
3.88
12.23
23.10
32.82
37.12
33.24
19.15
-3.88
-32.98
-63.42
-89.94
-108.29
-115.91
-111.68
-95.56
-68.69
-29.89
13.72
50.45
71.32
74.66
64.75
48.43
31.77
18.72
10.46
5.17
0.99
-2.71
-5.53
-6.69
-5.71
-3.67
-1.45
-0.73
-4.23
-13.67
-28.95
-48.20
-68.49
-84.40
-93.13
-94.05
-88.71
-80.17
-71.03
-62.51
-54.52
-46.83
-40.22
-36.35
-36.11
-38.83
-41.97
-41.45
-34.07
-16.87
10.04
42.95
76.29
105.15
126.33
138.79
143.03
140.46
130.41
116.17
100.33
84.75
70.91
59.52
50.53
43.55
36.60
28.07
16.90
2.10
-16.22
-36.59
-56.60
-72.22
-81.29
-83.76
-81.30
-76.31
-71.25
-66.98
-63.00
-58.26
-52.24
-45.66
-39.89
-36.28
-35.72
-38.95
-46.08
-55.08
-62.71
-64.70
-57.09
-37.94
-8.79
25.70
57.09
78.90
88.73
88.51
82.80
76.08
70.77
66.88
63.32
59.40
56.15
55.20
57.28
61.09
63.44
60.67
50.23
32.28
9.63
-13.24
-32.55
-46.66
-56.38
-63.91
-71.19
-78.63
-84.82
-88.21
-86.81
-80.52
-70.84
-59.73
-48.40
-36.83
-24.36
-10.71
2.98
14.41
21.03
21.58
17.06
10.29
4.54
1.95
2.82
5.85
9.40
12.35
14.70
17.16
20.32
24.05
27.43
29.25
28.68
25.74
21.26
16.51
12.72
10.43
9.54
9.42
9.32
8.69
7.22
4.86
1.74
-1.81
-5.43
-8.77
-11.57
-13.70
-15.22
-16.22
-16.76
-17.44
-18.51
-20.21
-22.83
-26.61
-31.68
-37.88
-44.65
-51.15
-56.54
-60.13
-61.67
-61.24
-58.93
-54.65
-48.14
-39.24
-28.04
-15.18
-1.64
11.36
22.66
31.52
37.53
40.66
41.15
39.57
36.76
33.69
31.14
29.56
29.40
30.69
33.11
36.07
38.91
41.00
41.79
40.83
38.02
34.46
31.38
29.50
28.66
28.12
26.90
24.16
19.36
12.61
5.71
0.56
-1.76
-1.26
1.57
6.14
12.15
19.41
28.26
40.62
57.83
79.65
104.01
128.12
149.51
166.55
178.27
174.65
150.40
108.16
57.68
9.35
-30.65
-60.60
-80.90
-95.04
-105.17
-110.73
-110.80
-105.28
-95.51
-82.78
-68.97
-55.80
-44.72
-36.27
-29.22
-22.21
-14.60
-6.93
-0.27
4.26
5.93
4.27
-0.62
-7.76
-16.23
-25.33
-34.52
-42.94
-49.45
-52.88
-52.79
-49.59
-44.37
-38.76
-34.46
-32.67
-33.79
-37.50
-43.01
-49.43
-55.76
-60.80
-63.33
-62.35
-57.49
-49.16
-38.40
-26.57
-14.81
-3.83
6.12
15.05
22.94
29.63
34.84
38.41
40.44
41.32
41.55
41.60
41.75
42.17
42.98
44.35
46.46
49.21
52.13
54.43
55.25
54.07
51.03
46.79
42.20
37.81
33.69
29.55
24.99
19.83
14.17
8.20
1.95
-4.80
-12.35
-20.89
-30.13
-39.36
-47.51
-53.53
-56.60
-56.48
-53.47
-48.37
-42.28
-36.27
-31.14
-27.25
-24.44
-22.19
-19.76
-16.40
-11.63
-5.31
2.27
10.43
18.24
24.75
29.32
31.81
32.68
32.78
33.02
34.06
36.13
39.03
42.21
44.96
46.57
46.50
44.56
40.98
36.45
31.91
28.23
25.82
24.48
23.58
22.48
20.86
18.95
17.31
16.51
16.75
17.67
18.55
18.55
17.07
13.94
9.35
3.84
-1.92
-7.26
-11.78
-15.32
-18.00
-20.09
-21.93
-23.95
-26.36
-29.05
-31.60
-33.58
-34.66
-34.82
-34.39
-33.96
-34.31
-35.76
-37.77
-39.18
-38.93
-36.65
-32.94
-29.20
-26.94
-27.52
-31.10
-36.39
-41.35
-44.27
-44.49
-42.30
-38.46
-33.79
-29.56
-26.88
-26.40
-28.12
-31.27
-34.02
-33.53
-27.11
-10.86
13.66
38.47
53.89
55.31
45.21
30.22
16.74
7.52
1.55
-3.58
-9.21
-14.49
-17.22
-15.58
-9.49
-0.13
10.17
18.30
21.92
20.79
16.84
12.85
11.13
12.79
17.78
25.15
33.68
42.18
49.91
56.83
62.08
63.54
59.73
50.82
38.49
24.96
11.83
-0.11
-10.44
-19.43
-26.80
-31.92
-34.55
-35.23
-35.17
-35.70
-37.77
-40.50
-43.04
-44.22
-43.08
-39.33
-33.47
-26.42
-19.01
-11.75
-4.77
1.71
7.62
12.83
17.16
20.56
23.18
25.23
26.82
27.84
27.85
26.48
23.59
19.29
14.04
8.58
3.62
-0.39
-3.31
-5.29
-6.63
-7.79
-9.28
-11.27
-13.44
-14.97
-14.82
-11.97
-5.79
3.58
14.86
24.67
28.64
23.76
10.24
-8.63
-27.90
-42.60
-49.36
-47.26
-37.84
-23.98
-8.70
5.64
17.47
25.83
30.19
30.38
26.84
20.75
14.01
8.67
5.95
5.71
6.79
7.85
8.25
8.22
8.53
9.96
12.42
15.19
17.14
17.41
15.97
13.46
10.78
8.48
6.64
4.99
3.16
0.91
-1.68
-4.10
-5.79
-6.43
-6.12
-5.20
-3.92
-2.44
-0.94
0.48
1.76
2.77
3.14
2.44
0.60
-1.83
-4.06
-5.58
-6.44
-7.12
-8.35
-10.66
-14.01
-17.54
-20.00
-20.05
-18.24
-17.02
-18.69
-23.41
-29.30
-33.82
-36.14
-35.22
-30.75
-23.05
-12.56
0.70
17.02
36.23
55.53
70.36
77.12
74.76
64.86
50.45
34.84
20.69
9.33
0.74
-5.74
-10.66
-14.49
-17.52
-19.95
-21.86
-23.30
-24.59
-26.17
-28.13
-30.10
-32.14
-33.70
-34.51
-34.28
-32.69
-29.54
-25.06
-19.72
-14.19
-9.14
-4.83
-1.04
2.94
7.75
13.57
19.67
24.88
27.93
28.16
25.87
21.84
17.03
12.23
8.30
5.43
4.01
4.21
5.83
8.26
10.47
11.60
11.40
10.51
9.58
9.97
12.02
14.81
16.76
16.34
12.83
6.54
-1.47
-10.04
-18.29
-25.89
-32.83
-38.66
-42.57
-43.83
-42.26
-38.31
-32.90
-26.99
-21.34
-16.22
-11.39
-6.58
-1.74
2.85
7.04
10.97
14.91
19.07
23.44
27.94
32.32
36.62
39.75
41.45
42.14
42.28
42.13
41.79
41.36
40.86
40.50
40.42
38.73
34.40
27.34
18.30
8.15
-2.32
-12.72
-22.55
-31.33
-38.60
-43.90
-47.15
-48.69
-49.81
-50.82
-52.01
-53.22
-53.97
-53.49
-50.76
-45.07
-36.25
-24.71
-10.67
3.72
16.41
26.27
33.08
37.10
38.42
36.91
32.62
26.14
18.57
11.59
6.76
4.84
5.61
8.10
11.23
14.62
17.74
19.93
20.63
19.57
16.79
12.90
8.82
5.79
4.86
5.99
7.81
7.98
4.31
-4.35
-17.47
-32.66
-46.01
-53.39
-52.35
-41.37
-21.87
2.58
27.23
47.41
57.87
55.40
42.10
24.37
8.64
-2.00
-7.69
-10.31
-11.78
-13.05
-13.68
-12.73
-10.22
-7.39
-6.16
-7.73
-11.96
-17.49
-22.53
-25.53
-25.75
-23.86
-21.51
-20.78
-22.34
-25.69
-29.41
-31.94
-32.03
-29.09
-23.75
-17.43
-11.66
-7.24
-3.85
-0.49
3.86
9.78
17.26
25.48
33.15
39.17
43.02
45.20
46.66
48.55
50.49
52.48
54.53
56.69
58.85
58.34
52.76
40.12
19.98
-5.92
-33.54
-57.74
-73.94
-79.87
-76.36
-66.52
-54.54
-43.87
-36.07
-30.58
-25.78
-20.18
-13.32
-5.80
1.69
8.78
15.56
22.62
29.93
36.65
41.32
42.55
39.71
33.85
27.14
21.77
18.84
17.88
17.38
15.76
12.23
7.10
1.92
-1.53
-2.35
-1.26
-0.19
-1.31
-6.26
-15.42
-27.76
-40.60
-50.71
-55.51
-53.72
-44.99
-29.21
-6.41
23.37
55.04
79.92
90.32
83.53
62.52
34.23
6.75
-13.67
-24.73
-28.28
-27.94
-26.83
-26.37
-26.35
-25.84
-24.16
-21.48
-18.65
-16.85
-16.39
-16.58
-16.31
-14.86
-12.30
-9.44
-7.53
-7.79
-10.99
-16.63
-23.08
-28.29
-30.67
-29.79
-26.89
-23.37
-20.81
-20.13
-20.97
-21.86
-21.05
-17.54
-11.57
-4.64
1.56
5.72
7.47
7.41
6.64
6.03
5.89
5.89
5.45
4.49
3.43
2.87
3.41
5.28
8.33
12.20
16.63
21.47
26.04
30.28
33.88
36.28
36.67
34.52
30.02
25.04
20.32
16.85
15.33
15.59
16.86
17.92
17.82
16.32
13.71
10.49
7.42
5.15
3.26
1.92
1.55
1.95
2.91
3.41
1.71
-3.33
-11.43
-20.85
-28.94
-33.50
-33.62
-29.94
-24.21
-18.31
-13.20
-8.86
-5.05
-1.58
1.50
4.24
6.76
9.16
11.49
13.78
15.83
17.23
17.65
16.00
12.41
7.66
2.76
-1.46
-4.38
-5.89
-6.22
-5.66
-4.25
-1.50
3.00
9.06
15.81
22.09
26.63
28.48
27.14
22.70
15.90
7.88
-0.03
-6.12
-7.93
-3.22
9.26
27.60
45.90
57.27
57.45
46.14
26.19
2.39
-21.04
-41.27
-57.22
-68.65
-75.17
-76.09
-71.10
-62.38
-51.01
-39.40
-30.26
-25.53
-25.46
-28.55
-32.58
-34.72
-34.15
-30.81
-25.33
-18.32
-10.29
-1.79
6.55
14.13
20.38
25.05
28.57
31.22
33.07
33.80
33.05
30.75
27.73
24.59
21.98
20.50
20.14
20.41
20.67
20.39
19.30
17.40
14.77
11.56
8.12
4.86
2.29
0.93
1.09
2.60
4.78
6.74
7.79
7.89
7.48
7.24
7.55
8.55
9.86
10.76
10.50
8.82
5.98
2.47
-1.39
-5.62
-10.37
-15.65
-21.04
-25.71
-28.74
-29.53
-28.19
-25.49
-22.43
-19.67
-17.34
-15.22
-12.92
-10.15
-6.69
-2.62
1.67
5.49
8.05
8.52
6.06
0.11
-9.42
-21.10
-32.19
-39.80
-42.51
-40.51
-34.77
-26.33
-16.12
-5.07
6.07
16.55
25.55
32.31
36.42
38.35
38.41
37.21
35.46
34.10
33.74
34.06
33.89
31.85
27.03
19.41
10.11
0.76
-6.72
-10.66
-10.75
-8.26
-5.35
-4.17
-6.27
-12.05
-21.07
-31.35
-40.14
-45.00
-44.60
-38.95
-29.38
-18.19
-6.39
2.50
5.56
3.33
-0.53
-1.78
2.11
10.99
22.33
32.18
36.62
34.09
25.76
14.57
3.78
-4.48
-9.84
-13.27
-16.14
-19.33
-22.21
-23.55
-22.71
-20.27
-17.73
-16.98
-18.39
-21.37
-24.57
-26.25
-25.12
-20.89
-14.24
-6.13
1.83
8.44
12.76
14.32
13.37
10.85
8.13
6.65
7.49
11.06
17.16
24.73
32.43
38.80
42.56
42.78
39.11
32.04
22.73
12.67
2.91
-5.97
-13.90
-21.06
-27.29
-32.08
-34.48
-33.74
-29.92
-24.13
-17.84
-12.38
-8.47
-6.00
-4.57
-3.30
-1.29
2.32
7.57
14.65
23.63
34.00
44.65
51.46
50.71
41.36
25.77
7.77
-9.20
-22.88
-33.78
-42.27
-48.52
-52.18
-52.94
-50.06
-43.98
-35.55
-25.68
-15.18
-4.51
5.93
15.98
25.51
34.25
41.57
46.96
50.11
50.95
49.63
46.45
42.03
37.19
32.79
29.35
27.10
25.97
25.63
25.54
25.23
24.56
23.68
22.83
21.96
20.80
18.85
15.58
10.43
3.30
-5.29
-14.38
-22.97
-30.43
-36.62
-41.68
-45.79
-49.25
-51.98
-53.58
-53.65
-52.12
-49.36
-45.95
-42.29
-36.86
-29.09
-19.95
-11.54
-5.69
-2.99
-2.73
-3.48
-3.72
-2.63
-0.58
1.50
2.64
2.25
0.42
-2.13
-4.34
-4.95
-3.26
0.48
5.37
10.14
13.62
15.30
15.42
15.07
16.16
19.87
26.58
35.67
45.46
53.56
57.70
56.46
49.00
37.65
25.23
14.08
5.47
-0.49
-4.37
-6.84
-8.35
-9.14
-9.33
-9.52
-10.41
-12.34
-15.07
-17.77
-19.42
-19.30
-17.34
-14.02
-10.46
-7.74
-6.54
-6.85
-8.14
-9.65
-10.71
-11.03
-10.65
-10.05
-9.78
-10.24
-11.51
-13.38
-15.46
-17.37
-18.79
-19.68
-19.84
-19.23
-17.81
-15.54
-12.43
-8.57
-4.12
0.65
5.35
9.57
12.90
15.12
16.28
16.67
16.69
16.68
16.64
16.21
14.96
12.58
9.27
5.63
2.48
0.41
-0.38
-0.16
0.50
1.02
1.03
0.37
-0.91
-2.72
-5.05
-7.77
-10.67
-13.50
-15.87
-17.42
-17.89
-17.26
-15.31
-12.59
-9.40
-5.63
-1.18
3.52
7.26
8.39
5.70
-0.69
-9.12
-16.69
-20.67
-19.65
-13.95
-5.24
4.19
12.28
17.66
19.72
18.81
16.01
12.98
11.39
12.17
15.16
19.00
21.95
22.64
20.83
17.33
13.26
9.45
6.02
2.67
-0.87
-4.47
-7.60
-9.55
-9.82
-8.29
-5.27
-1.45
2.37
5.44
7.35
8.15
8.51
9.26
11.05
13.91
17.08
19.34
19.48
16.82
11.56
4.54
-2.99
-9.88
-15.33
-19.18
-21.84
-24.14
-26.88
-30.34
-33.96
-36.49
-36.50
-33.06
-26.17
-16.82
-6.51
3.25
11.34
17.08
20.17
20.66
18.96
15.85
12.47
9.92
8.94
9.52
11.12
12.89
14.02
13.93
12.40
9.63
6.12
2.60
-0.33
-2.24
-3.02
-2.82
-1.98
-0.81
0.55
2.07
3.67
5.06
5.87
5.83
4.90
3.14
0.80
-1.66
-3.52
-3.66
-1.33
3.62
10.58
18.12
24.06
26.39
24.24
18.31
10.32
2.18
-4.58
-9.09
-11.34
-12.46
-14.09
-17.46
-22.90
-29.93
-37.28
-42.92
-44.38
-40.09
-30.95
-20.17
-11.74
-8.87
-13.00
-23.29
-36.68
-48.06
-49.10
-33.94
-4.43
30.66
61.82
82.98
92.29
90.96
82.62
70.96
57.66
42.52
25.09
5.99
-12.96
-29.54
-43.04
-52.74
-59.12
-63.91
-68.57
-72.78
-74.49
-71.20
-59.47
-42.33
-24.22
-8.90
2.03
9.66
16.68
25.01
33.93
39.77
38.08
27.79
12.27
-1.98
-8.44
-3.93
9.63
26.71
41.56
50.50
53.75
54.09
54.35
55.67
56.88
54.53
46.76
32.80
13.83
-6.65
-23.87
-33.60
-33.81
-25.66
-13.71
-4.21
-2.73
-11.62
-29.49
-51.41
-71.67
-85.64
-90.41
-84.39
-66.82
-39.52
-4.58
32.38
63.54
81.87
84.14
72.50
53.76
36.32
26.61
26.74
34.15
