1698567555.00
64.000000
-0.00
-0.00
-0.00
-0.00
-0.00
-0.00
-0.00
-0.00
-0.00
-0.00
0.00
0.01
0.01
-0.00
-0.03
-0.05
-0.05
0.00
0.13
0.36
0.66
1.01
1.37
1.72
2.06
2.40
2.79
3.24
3.80
4.42
5.06
5.66
6.20
6.68
7.15
7.68
8.31
9.14
10.09
11.04
11.88
12.56
13.14
13.76
14.65
15.96
17.91
20.32
22.90
25.38
27.58
29.57
31.68
34.32
37.81
42.54
48.15
54.10
59.83
64.97
69.58
74.14
79.34
85.71
93.76
103.00
112.62
121.73
129.77
136.75
143.30
150.75
157.77
166.64
177.95
191.79
206.97
220.57
228.25
225.36
208.53
176.87
132.76
80.05
23.07
-34.94
-92.44
-149.16
-205.23
-260.37
-313.74
-363.87
-409.83
-450.91
-486.50
-515.74
-537.23
-549.22
-549.96
-538.37
-514.20
-478.67
-433.88
-382.45
-327.02
-269.85
-212.64
-156.66
-102.94
-52.34
-5.86
35.61
71.41
101.24
125.28
144.05
158.28
168.70
175.92
180.33
182.17
181.64
179.01
174.64
168.96
162.41
155.38
148.09
140.65
133.07
125.34
117.49
109.61
101.85
94.38
87.29
80.60
74.20
67.94
61.69
55.43
49.26
43.41
38.12
33.54
29.63
26.13
22.72
19.08
15.11
11.00
7.13
3.96
1.77
0.49
-0.29
-1.19
-2.73
-5.11
-8.05
-10.90
-13.02
-13.97
-13.77
-12.90
-12.06
-11.90
-12.98
-15.58
-19.62
-24.35
-28.20
-28.99
-24.67
-14.34
1.10
19.00
35.88
48.78
56.30
58.74
57.57
54.50
50.69
46.61
42.24
37.53
32.67
28.10
24.21
21.08
18.32
15.01
10.03
2.56
-7.45
-19.13
-30.84
-40.55
-46.42
-47.18
-42.50
-33.02
-20.33
-6.59
5.93
15.46
21.16
23.20
22.32
19.29
14.47
8.00
0.18
-8.02
-14.99
-18.99
-18.98
-15.12
-8.75
-1.83
3.80
7.01
7.56
5.80
2.39
-1.88
-6.09
-9.16
-10.14
-8.55
-4.71
0.21
4.72
7.73
9.15
9.92
11.54
15.15
20.95
27.99
34.60
39.10
40.52
38.55
33.59
26.39
17.76
8.42
-0.93
-9.45
-16.21
-20.35
-21.41
-19.47
-15.26
-9.95
-4.77
-0.68
1.87
2.99
3.17
3.02
3.05
3.57
4.67
6.29
8.22
10.18
11.79
12.65
12.41
10.92
8.32
5.10
1.87
-0.79
-2.46
-2.90
-1.89
0.75
4.92
10.30
16.25
21.69
25.39
26.16
23.25
16.42
6.08
-7.12
-21.84
-36.29
-48.50
-56.82
-60.39
-59.50
-55.43
-50.03
-45.53
-43.54
-44.78
-49.18
-56.02
-64.14
-72.14
-78.61
-79.91
-74.66
-63.49
-48.97
-35.07
-25.92
-24.64
-32.52
-48.95
-71.91
-98.95
-127.23
-153.85
-176.30
-193.12
-204.68
-213.39
-222.85
-236.08
-253.88
-273.44
-289.11
-294.89
-287.04
-265.72
-234.64
-199.00
-163.20
-129.52
-98.00
-67.58
-37.46
-7.48
22.23
51.91
82.26
113.83
145.86
175.91
200.29
215.33
218.86
211.20
195.02
174.41
153.57
135.87
123.52
117.58
118.14
124.38
134.61
146.45
157.23
164.61
167.17
164.56
157.34
146.70
133.85
119.81
105.41
91.59
79.66
71.13
67.33
68.71
74.31
81.90
88.51
91.49
89.23
81.58
69.52
54.66
38.72
23.34
10.04
0.25
-4.91
-5.04
-0.67
6.73
15.16
22.69
28.00
30.56
30.57
28.53
24.89
19.90
13.55
5.83
-3.09
-12.74
-22.43
-31.44
-39.21
-45.56
-50.71
-55.29
-60.13
-65.94
-72.96
-80.60
-87.46
-91.47
-90.55
-83.24
-69.27
-49.67
-26.54
-2.48
20.04
39.29
54.28
64.64
70.57
72.73
72.20
70.20
67.90
66.21
65.89
67.31
70.32
74.38
78.70
82.46
84.92
85.58
84.32
81.94
79.42
77.47
76.34
75.98
76.16
76.47
76.22
74.48
71.52
67.33
61.27
52.28
39.80
24.19
6.55
-11.83
-29.85
-43.92
-51.57
-52.45
-47.88
-39.01
-25.77
-7.43
15.79
42.10
72.62
106.47
140.33
169.78
192.17
207.97
219.65
229.72
240.26
258.68
289.96
333.77
383.98
431.66
468.39
487.97
487.06
432.63
314.48
150.87
-19.68
-163.43
-266.90
-333.53
-373.94
-398.91
-418.55
-432.32
-438.20
-436.24
-428.71
-417.50
-402.59
-380.06
-348.86
-310.46
-264.08
-211.72
-158.77
-112.69
-79.74
-62.53
-59.90
-68.12
-80.86
-88.89
-86.30
-72.82
-53.15
-33.35
-17.68
-7.70
-2.40
1.76
9.95
25.50
48.81
78.11
111.09
145.88
180.45
204.57
209.24
191.54
156.16
111.55
65.21
22.12
-12.72
-40.16
-60.86
-74.40
-81.33
-84.19
-87.43
-94.69
-108.35
-127.84
-150.02
-169.72
-181.18
-180.75
-168.14
-146.27
-119.90
-94.03
-72.63
-58.28
-51.65
-51.16
-54.03
-57.12
-57.87
-55.00
-48.67
-40.29
-32.08
-26.32
-24.27
-25.94
-29.92
-33.69
-34.33
-29.59
-19.83
-5.55
9.99
23.37
32.11
35.53
34.57
31.04
26.60
22.20
18.22
14.61
11.77
10.62
12.32
17.71
26.79
38.57
51.24
62.81
71.26
75.31
74.54
69.45
61.30
51.66
41.95
33.05
25.22
18.16
11.52
5.21
-0.54
-5.12
-7.96
-8.86
-8.10
-6.34
-4.38
-2.58
-0.69
2.07
6.70
13.73
22.72
32.16
40.12
45.12
47.03
47.12
47.33
49.20
53.28
59.32
67.03
76.61
88.56
102.53
116.22
125.20
124.08
108.75
78.32
35.88
-12.55
-60.08
-101.17
-132.84
-154.53
-167.04
-171.34
-168.22
-158.68
-144.96
-130.99
-121.85
-121.91
-132.74
-151.87
-173.64
-191.59
-201.14
-201.02
-192.71
-178.44
-159.33
-134.81
-103.79
-66.44
-25.23
15.39
50.63
77.00
93.30
100.36
100.11
94.75
86.32
76.79
68.26
62.73
61.71
65.66
73.75
83.97
93.83
101.15
104.78
104.93
102.87
100.38
99.02
99.57
101.93
105.29
108.46
110.22
109.52
105.73
98.78
89.12
77.59
65.15
52.61
40.46
28.89
18.01
7.97
-0.77
-7.55
-11.75
-13.00
-11.39
-7.49
-2.15
3.68
9.22
13.95
17.62
20.23
21.88
22.78
23.17
23.36
23.62
24.09
24.65
25.02
24.79
23.71
21.71
18.97
15.64
11.77
7.08
1.17
-6.32
-15.38
-25.58
-36.20
-46.38
-55.39
-62.70
-67.96
-70.97
-71.60
-69.92
-66.20
-60.98
-55.00
-49.03
-43.71
-39.47
-36.50
-34.76
-34.05
-33.98
-33.91
-33.02
-30.45
-25.53
-18.09
-8.59
1.95
12.19
21.00
27.60
31.76
33.64
33.56
31.94
29.17
25.66
21.82
18.09
14.85
12.35
10.63
9.59
9.00
8.59
8.15
7.57
6.88
6.15
5.43
4.67
3.77
2.61
1.23
-0.17
-1.32
-2.03
-2.37
-2.72
-3.63
-5.67
-9.17
-14.07
-19.83
-25.59
-30.27
-32.84
-32.57
-29.18
-23.01
-14.91
-5.98
2.64
10.06
15.75
19.48
21.25
21.27
19.86
17.52
14.85
12.49
10.94
10.44
10.88
11.83
12.72
13.07
12.69
11.70
10.42
9.18
8.07
6.94
5.47
3.37
0.59
-2.60
-5.77
-8.56
-10.77
-12.55
-14.19
-16.06
-18.40
-21.22
-24.31
-27.17
-29.14
-29.42
-27.35
-22.63
-15.50
-6.74
2.48
10.92
17.66
22.21
24.58
25.09
24.16
22.22
19.65
16.84
14.23
12.21
11.05
10.76
11.14
11.88
12.62
13.13
13.30
13.08
12.50
11.57
10.31
8.78
7.04
5.17
3.22
1.23
-0.81
-2.89
-4.97
-7.03
-9.02
-10.91
-12.67
-14.27
-15.71
-16.99
-18.24
-19.64
-21.44
-23.79
-26.60
-29.46
-31.58
-32.03
-29.99
-25.06
-17.53
-8.29
1.35
10.12
17.09
21.93
24.74
25.84
25.55
24.13
21.79
18.89
15.98
13.67
12.44
12.38
13.20
14.30
15.05
15.08
14.36
13.17
11.88
10.82
10.03
9.36
8.51
7.16
5.16
2.51
-0.57
-3.73
-6.57
-8.79
-10.28
-11.16
-11.78
-12.61
-14.08
-16.40
-19.46
-22.73
-25.38
-26.55
-25.53
-21.99
-16.05
-8.26
0.60
9.60
17.86
24.56
29.06
30.95
30.17
27.06
22.31
16.77
11.28
6.46
2.66
-0.04
-1.75
-2.59
-2.74
-2.30
-1.36
-0.05
1.45
2.90
4.01
4.54
4.37
3.60
2.51
1.44
0.71
0.53
0.90
1.67
2.62
3.46
3.95
3.82
2.87
0.96
-1.94
-5.65
-9.71
-13.44
-16.00
-16.70
-15.07
-11.16
-5.52
0.99
7.37
12.76
16.61
18.73
19.22
18.33
16.44
13.95
11.24
8.71
6.63
5.11
4.11
3.45
2.99
2.70
2.58
2.70
3.03
3.35
3.38
2.82
1.50
-0.49
-2.85
-5.19
-7.16
-8.56
-9.40
-9.88
-10.33
-11.06
-12.29
-14.06
-16.26
-18.60
-20.71
-22.10
-22.24
-20.67
-17.14
-11.75
-5.06
2.07
8.69
14.02
17.65
19.56
20.02
19.40
18.05
16.27
14.32
12.46
10.97
10.02
9.70
9.85
10.17
10.32
10.01
9.18
7.93
6.43
4.87
3.25
1.50
-0.48
-2.69
-4.99
-7.09
-8.75
-9.85
-10.44
-10.73
-10.98
-11.44
-12.30
-13.65
-15.40
-17.23
-18.55
-18.65
-16.95
-13.26
-7.89
-1.64
4.53
9.80
13.66
16.05
17.18
17.39
17.10
16.65
16.24
15.92
15.62
15.16
14.40
13.31
12.07
11.10
10.79
11.31
12.39
13.51
14.08
13.76
12.50
10.45
7.98
5.19
1.84
-2.49
-8.06
-14.70
-21.86
-28.88
-35.37
-40.80
-45.16
-48.78
-52.12
-55.13
-57.03
-56.63
-52.87
-45.31
-33.29
-17.19
1.30
19.39
34.11
43.14
45.40
41.16
32.22
23.39
19.60
24.00
36.88
56.06
78.32
100.49
120.22
136.42
151.38
167.38
185.07
203.14
219.55
233.25
244.36
253.40
245.87
212.54
153.77
80.45
6.66
-57.63
-107.67
-142.42
-163.33
-173.25
-173.51
-165.82
-152.74
-137.27
-122.35
-109.72
-99.95
-93.12
-88.77
-84.45
-78.05
-68.99
-57.86
-46.42
-36.32
-28.62
-24.51
-23.86
-25.31
-27.61
-30.54
-34.07
-38.99
-45.90
-53.53
-61.99
-70.80
-78.73
-84.54
-89.59
-92.44
-92.70
-90.35
-85.46
-78.48
-69.56
-58.81
-44.02
-27.40
-10.27
6.04
20.65
33.10
43.01
50.60
56.22
60.30
62.78
64.32
65.06
64.95
63.55
60.56
55.82
49.25
40.85
30.35
18.23
4.81
-9.51
-22.92
-35.34
-46.46
-55.91
-63.43
-69.18
-73.20
-75.80
-77.29
-79.56
-81.69
-82.67
-81.54
-77.58
-70.61
-60.83
-49.06
-36.30
-21.97
-7.93
5.10
17.19
28.58
39.20
48.49
55.60
59.67
60.30
57.99
54.18
50.59
48.43
47.99
48.38
48.00
45.31
39.02
28.81
14.88
-2.14
-20.99
-39.18
-52.97
-58.42
-52.42
-37.81
-21.15
-10.57
-11.58
-24.06
-42.26
-58.11
-65.53
-63.15
-54.80
-44.01
-33.41
-23.49
-13.59
-3.85
4.08
8.08
7.53
4.21
2.54
6.53
17.71
34.57
53.34
69.83
81.04
86.28
85.28
79.20
69.51
57.81
45.47
33.46
22.28
12.14
3.18
-4.40
-9.85
-12.34
-11.30
-6.72
0.49
8.44
15.04
18.65
18.50
15.07
9.47
2.92
-3.58
-9.50
-14.56
-18.60
-21.41
-22.96
-23.32
-22.88
-22.27
-22.08
-22.70
-24.10
-25.93
-27.67
-28.94
-29.53
-29.53
-29.22
-28.84
-28.50
-28.10
-27.33
-25.87
-23.41
-19.97
-15.73
-11.12
-6.56
-2.43
1.09
3.99
6.40
8.45
10.21
11.67
12.73
13.25
13.20
12.66
11.82
10.91
10.15
9.62
9.23
8.83
8.19
7.25
6.07
4.86
3.85
3.29
3.24
3.52
3.86
3.93
3.58
2.76
1.58
0.26
-0.74
-0.95
-0.03
2.02
4.63
6.54
6.10
1.79
-7.18
-20.15
-35.49
-50.98
-64.60
-74.99
-81.74
-85.06
-85.27
-84.09
-82.17
-79.77
-76.97
-73.81
-70.36
-66.74
-63.16
-59.88
-57.28
-55.55
-54.96
-55.62
-57.24
-58.97
-59.44
-56.99
-50.25
-38.61
-22.36
-2.91
17.71
37.40
54.47
67.93
77.45
83.19
85.55
85.20
82.85
79.31
75.36
71.70
68.80
66.83
65.62
64.73
63.66
61.96
59.35
55.80
51.47
46.56
41.24
35.53
29.39
22.88
16.23
9.76
3.87
-1.24
-5.67
-9.79
-14.11
-19.11
-24.90
-31.13
-36.95
-41.16
-42.45
-39.86
-33.06
-22.51
-9.41
4.67
18.15
29.78
38.84
45.03
48.37
49.09
47.63
44.59
40.78
37.09
34.33
32.96
33.00
34.01
35.32
36.31
36.57
36.07
34.97
33.49
31.68
29.39
26.41
22.60
18.10
13.28
8.65
4.56
1.11
-1.85
-4.67
-7.68
-11.16
-15.26
-19.93
-24.80
-29.11
-31.79
-31.62
-27.67
-19.72
-8.48
4.58
17.58
28.92
37.60
43.36
46.50
47.52
46.85
44.81
41.70
37.93
34.12
30.95
28.92
28.14
28.29
28.80
29.13
29.03
28.55
27.98
27.54
27.16
26.51
25.11
22.66
19.20
15.12
10.98
7.30
4.27
1.80
-0.41
-2.65
-5.12
-7.82
-10.63
-13.41
-16.02
-18.38
-20.47
-22.34
-24.12
-26.09
-28.52
-31.63
-35.35
-39.17
-42.24
-43.39
-41.55
-36.08
-26.98
-15.05
-1.65
11.59
23.21
32.19
38.11
41.06
41.43
39.80
36.73
32.79
28.55
24.60
21.47
19.55
18.94
19.46
20.63
21.89
22.71
22.74
21.89
20.22
17.99
15.47
12.94
10.57
8.41
6.39
4.36
2.13
-0.43
-3.30
-6.33
-9.28
-11.92
-14.09
-15.76
-17.09
-18.34
-19.87
-22.00
-24.87
-28.34
-31.88
-34.60
-35.50
-33.78
-29.13
-21.90
-13.02
-3.74
4.71
11.47
16.11
18.59
19.12
18.06
15.78
12.73
9.42
6.45
4.32
3.34
3.51
4.48
5.77
6.83
7.34
7.22
6.59
5.68
4.68
3.65
2.48
0.99
-0.99
-3.47
-6.25
-9.01
-11.40
-13.18
-14.36
-15.17
-16.04
-17.35
-19.39
-22.15
-25.35
-28.39
-30.53
-30.97
-29.16
-24.95
-18.65
-11.04
-3.10
4.23
10.28
14.71
17.44
18.53
18.06
16.21
13.25
9.66
6.09
3.19
1.45
1.05
1.81
3.29
4.96
6.38
7.27
7.60
7.48
7.07
6.45
5.58
4.33
2.62
0.54
-1.68
-3.69
-5.23
-6.26
-7.02
-7.89
-9.17
-10.94
-13.02
-15.10
-16.92
-18.37
-19.58
-20.79
-22.26
-24.13
-26.35
-28.63
-30.49
-31.28
-30.36
-27.35
-22.28
-15.61
-8.19
-0.93
5.42
10.46
14.11
16.47
17.64
17.66
16.60
14.58
11.97
9.28
7.04
5.64
5.20
5.52
6.23
6.91
7.22
7.05
6.42
5.50
4.49
3.52
2.60
1.64
0.51
-0.90
-2.55
-4.30
-5.96
-7.38
-8.55
-9.59
-10.70
-12.06
-13.81
-15.95
-18.40
-20.99
-23.46
-25.41
-26.40
-26.11
-24.39
-21.43
-17.63
-13.49
-9.43
-5.73
-2.56
-0.09
1.45
1.80
0.88
-1.12
-3.70
-6.20
-8.01
-8.79
-8.60
-7.88
-7.25
-7.30
-8.37
-10.38
-12.89
-15.30
-17.12
-18.20
-18.81
-19.44
-20.59
-22.43
-24.83
-27.41
-29.72
-31.46
-32.57
-33.27
-34.01
-35.38
-37.89
-41.83
-47.08
-53.01
-58.52
-62.38
-63.48
-61.15
-55.33
-46.49
-35.44
-23.05
-10.14
2.68
14.85
25.85
35.09
42.03
46.39
48.24
48.11
46.75
44.88
42.90
40.88
38.62
35.94
32.89
29.74
26.83
24.38
22.32
20.37
18.22
15.71
12.93
10.21
7.98
6.58
6.14
6.50
7.25
7.81
7.61
6.22
3.57
-0.07
-4.14
-8.03
-11.22
-13.54
-15.09
-16.12
-16.79
-17.01
-16.44
-14.72
-11.68
-7.54
-2.96
1.16
4.04
5.26
4.84
3.21
0.97
-1.20
-2.72
-3.12
-2.07
0.44
3.97
7.61
10.20
10.76
8.96
5.39
1.33
-1.65
-2.44
-0.83
2.47
6.18
9.01
10.13
9.35
7.02
3.66
-0.38
-5.05
-10.49
-16.85
-24.11
-32.08
-40.42
-48.66
-56.15
-62.10
-65.51
-65.48
-61.47
-53.59
-42.70
-30.12
-17.18
-4.79
6.80
17.95
29.35
41.53
54.54
67.83
80.46
91.37
99.72
105.07
107.36
106.91
104.11
99.34
92.90
85.10
76.39
67.37
58.71
50.99
44.69
39.89
36.26
33.23
30.15
26.56
22.29
17.38
12.02
6.76
2.07
-1.74
-4.54
-6.18
-6.33
-4.64
-0.92
4.73
12.51
22.20
32.96
43.41
52.20
58.42
61.80
62.55
61.26
59.84
59.96
62.31
66.38
71.12
75.60
79.34
82.21
84.17
86.51
89.94
94.18
98.15
100.96
102.56
103.24
102.78
90.83
60.99
14.02
-41.26
-93.36
-134.04
-160.09
-172.61
-175.08
-171.61
-164.29
-154.24
-142.38
-130.10
-118.87
-109.63
-102.71
-97.60
-93.42
-88.35
-81.31
-72.46
-63.18
-55.22
-49.90
-48.15
-49.98
-53.63
-56.07
-54.51
-47.56
-35.90
-21.93
-8.50
1.85
9.26
16.12
25.43
38.30
52.61
63.45
65.27
54.59
30.88
-1.64
-35.85
-64.59
-82.93
-89.18
-84.49
-71.85
-49.21
-21.58
3.89
21.32
28.26
25.75
17.25
7.04
-1.07
-4.77
-4.56
-1.86
1.32
2.89
1.43
-3.34
-10.54
-18.59
-26.44
-33.67
-39.54
-43.32
-44.47
-42.79
-38.59
-32.61
-25.89
-19.52
-14.56
-10.98
-8.06
-4.88
-0.96
3.54
7.94
11.47
13.78
14.29
13.34
11.64
9.80
7.98
5.86
2.97
-1.05
-6.26
-12.41
-18.94
-25.19
-30.50
-34.13
-35.39
-33.71
-29.01
-21.80
-13.18
-4.35
3.79
11.09
18.06
25.55
34.12
43.75
53.76
63.17
71.01
76.51
79.11
78.42
74.19
66.48
55.78
43.08
29.79
17.39
7.06
-0.61
-5.72
-8.87
-10.90
-12.57
-14.33
-16.30
-18.35
-20.34
-22.29
-24.46
-27.21
-30.87
-35.61
-41.41
-47.97
-54.69
-60.70
-64.88
-66.10
-63.45
-56.62
-46.06
-32.93
-18.80
-5.23
6.66
16.36
23.93
29.73
34.12
37.29
39.26
39.96
39.43
37.92
35.82
33.55
31.42
29.50
27.70
25.85
23.82
21.54
19.01
16.22
13.12
9.61
5.63
1.20
-3.51
-8.21
-12.57
-16.32
-19.43
-22.10
-24.78
-27.97
-32.02
-36.91
-42.16
-46.92
-50.21
-51.20
-49.42
-44.89
-37.99
-29.37
-19.76
-9.88
-0.41
8.05
15.02
20.19
23.47
24.99
25.08
24.21
22.86
21.47
20.31
19.48
18.93
18.50
18.04
17.48
16.82
16.16
15.55
14.99
14.40
13.63
12.57
11.15
9.39
7.34
5.04
2.46
-0.55
-4.13
-8.27
-12.76
-17.25
-21.49
-25.41
-29.12
-32.73
-36.06
-38.46
-38.93
-36.51
-30.65
-21.64
-10.42
1.72
13.55
24.10
32.83
39.47
43.94
46.20
46.29
44.39
41.25
37.85
35.17
33.95
34.46
36.43
39.13
41.58
43.05
43.98
45.39
48.37
53.68
61.37
70.84
80.93
90.31
97.84
103.86
108.92
113.31
116.77
118.61
118.16
115.04
109.24
101.08
92.30
84.15
76.80
69.55
61.56
53.03
45.55
41.58
35.19
23.15
4.91
-17.08
-38.80
-56.74
-68.52
-73.41
-72.89
-70.70
-70.34
-74.49
-84.05
-97.47
-111.56
-122.79
-128.79
-129.00
-124.06
-113.68
-97.13
-74.46
-46.28
-15.36
13.81
36.21
48.01
48.06
37.26
21.40
6.19
-5.16
-12.81
-18.88
-25.48
-33.21
-40.80
-45.81
-47.26
-46.02
-44.86
-47.27
-55.45
-68.98
-84.60
-97.46
-101.28
-94.16
-78.13
-58.04
-39.56
-26.76
-20.88
-20.24
-21.50
-21.15
-16.87
-7.75
5.76
21.99
38.49
52.64
62.55
67.54
68.33
66.73
63.81
60.17
55.51
49.15
40.51
29.99
18.66
7.69
-2.37
-11.72
-20.89
-30.36
-39.99
-49.01
-55.70
-58.32
-55.89
-48.78
-38.73
-28.23
-19.86
-15.55
-16.17
-20.72
-26.94
-32.02
-33.33
-29.12
-18.66
-2.46
19.25
42.16
61.72
74.99
81.45
82.72
81.05
78.38
75.31
70.74
62.32
48.56
29.55
7.14
-15.70
-36.69
-54.63
-69.41
-81.48
-91.25
-98.08
-101.15
-101.51
-99.06
-94.96
-90.07
-84.30
-76.82
-67.25
-56.00
-44.56
-34.54
-26.47
-20.03
-13.89
-6.90
0.73
7.29
10.80
10.04
5.61
-0.00
-4.23
-4.54
0.49
10.20
21.94
32.78
39.63
42.03
42.79
46.03
56.33
76.17
103.53
131.53
151.01
153.67
134.60
94.91
40.64
-16.93
-63.81
-87.66
-81.79
-46.20
12.90
84.91
159.06
218.18
245.37
234.15
192.35
134.73
74.94
25.84
-12.15
-39.51
-58.00
-69.79
-77.61
-83.88
-91.42
-99.63
-105.09
-104.36
-96.01
-82.94
-69.07
-56.83
-46.84
-38.85
-32.16
-26.18
-21.09
-16.67
-13.09
-10.17
-7.36
-4.19
-0.72
2.87
6.20
8.41
9.02
7.70
4.93
2.23
1.43
3.57
8.30
13.87
17.36
16.83
11.61
2.69
-7.58
-16.46
-22.06
-24.01
-23.26
-21.54
-20.50
-21.15
-24.06
-28.75
-33.69
-36.33
-33.72
-23.40
-4.47
21.76
51.90
81.08
104.73
120.13
126.96
126.84
122.47
116.37
109.17
103.03
98.99
96.98
96.95
99.31
104.67
112.96
121.88
129.71
135.26
138.04
138.89
139.48
141.23
144.16
146.44
148.43
148.59
145.13
136.30
121.15
99.75
73.17
43.29
12.46
-16.93
-43.35
-65.99
-84.97
-100.84
-114.29
-125.98
-136.68
-147.22
-158.04
-168.95
-178.34
-183.55
-181.70
-171.14
-152.46
-128.57
-103.57
-81.09
-63.03
-49.22
-38.26
-28.86
-20.83
-15.02
-12.48
-13.51
-17.16
-21.85
-26.07
-29.11
-31.25
-33.38
-36.20
-39.82
-43.59
-46.54
-47.87
-47.30
-45.28
-42.55
-39.86
-37.69
-36.10
-34.64
-32.51
-28.85
-23.33
-16.56
-9.76
-4.24
-0.77
0.81
1.61
3.15
6.47
11.45
16.20
18.16
15.00
5.31
-10.92
-32.17
-55.69
-78.42
-97.93
-114.34
-128.95
-143.97
-162.01
-184.94
-212.16
-239.63
-260.76
-268.62
-260.79
-237.57
-202.07
-160.32
-120.43
-90.92
-78.81
-88.18
-118.74
-167.92
-225.43
-276.35
-308.12
-316.63
-307.19
-290.31
-275.48
-266.13
-262.67
-257.88
-242.24
-211.06
-167.17
-118.13
-70.92
-28.90
33.78
116.93
200.41
263.26
297.80
307.23
298.38
278.80
255.47
233.87
213.34
194.70
180.06
170.88
167.00
166.46
167.67
170.17
174.80
180.41
189.44
207.85
236.47
274.55
317.91
360.35
394.77
414.61
413.09
387.82
341.54
280.62
213.71
149.11
93.22
48.82
14.41
-15.51
-46.30
-80.38
-116.77
-151.58
-180.84
-202.30
-216.41
-225.66
-232.91
-239.18
-242.61
-239.36
-225.29
-198.43
-160.37
-116.55
-74.84
-42.94
-26.10
-25.48
-38.49
-60.01
-84.47
-107.19
-124.81
-134.78
-134.96
-123.80
-100.89
-67.48
-26.23
19.77
67.90
116.50
164.45
210.36
251.74
285.15
307.39
316.78
314.00
301.74
283.64
263.21
243.12
225.25
211.05
201.73
197.76
198.10
199.54
197.31
186.73
165.01
132.38
91.74
47.03
1.59
-43.06
-87.10
-131.39
-176.03
-219.59
-259.29
-292.24
-316.30
-330.14
-333.25
-325.71
-307.79
-279.65
-242.30
-198.12
-151.74
-109.32
-75.90
-53.83
-41.88
-35.55
-28.75
-17.52
-1.37
16.03
29.06
34.69
33.05
26.17
16.37
5.44
-6.97
-21.05
-36.35
-51.00
-60.74
-62.01
-54.61
-41.64
-25.63
-9.24
7.24
24.22
32.19
23.83
-1.31
-37.41
-77.56
-108.06
-127.62
-137.00
-138.47
-133.59
-123.16
-105.57
-79.87
-46.49
-2.14
52.94
114.51
175.09
228.11
271.32
305.71
333.23
355.73
381.04
413.64
452.36
491.77
526.64
554.62
575.03
586.78
548.70
444.90
293.81
132.86
-9.59
-123.47
-210.34
-276.01
-326.42
-365.63
-392.55
-401.62
-391.57
-366.40
-333.57
-301.92
-279.53
-270.94
-276.14
-286.81
-290.54
-281.89
-260.87
-230.28
-193.24
-151.72
-105.78
-55.94
-1.92
49.13
82.77
89.29
71.34
39.45
4.03
-27.66
-50.54
-65.46
-71.99
-69.46
-57.18
-35.37
-5.25
28.22
62.02
93.28
120.29
143.69
165.14
186.45
208.55
231.18
252.35
269.93
279.04
273.23
248.08
202.53
138.79
62.04
-19.96
-104.92
-179.64
-230.16
-250.98
-245.04
-218.36
-177.08
-126.94
-72.80
-20.79
21.36
44.65
43.14
18.06
-22.16
-66.36
-107.44
-135.65
-145.65
-137.11
-114.85
-87.99
-65.26
-44.27
-23.04
-7.28
-2.44
-13.50
-40.89
-79.23
-118.16
-145.64
-153.10
-140.55
-115.29
-86.40
-62.23
-46.73
-39.26
-35.98
-31.82
-22.36
-6.05
16.63
45.13
77.36
110.20
140.40
165.64
185.05
199.04
207.61
210.51
209.26
205.65
201.38
197.74
195.40
194.01
192.19
187.35
176.85
161.30
142.67
123.41
105.63
91.39
82.13
78.40
79.09
80.93
82.19
81.32
77.65
72.41
70.06
76.23
95.23
127.13
151.40
149.76
114.53
52.61
-22.75
-100.19
-173.49
-238.72
-291.63
-326.93
-337.08
-318.79
-276.96
-227.11
-182.30
-153.06
-143.10
-149.09
-164.24
-180.43
-193.25
-202.36
-209.14
-213.32
-212.75
-204.29
-184.93
-156.35
-121.88
-85.90
-51.60
-19.69
11.48
43.33
75.82
106.89
133.06
152.51
164.20
167.53
162.16
148.74
128.98
106.20
85.00
69.97
65.90
74.29
92.73
115.83
138.05
155.51
166.96
173.21
175.69
176.99
177.79
176.84
172.30
163.55
151.82
139.47
128.51
109.30
78.03
37.56
-4.25
-39.94
-65.66
-81.25
-89.30
-93.77
-98.74
-105.28
-113.18
-121.57
-129.81
-136.83
-141.39
-142.64
-140.30
-134.71
-125.46
-113.11
-99.11
-85.43
-73.60
-63.62
-55.41
-48.61
-42.78
-36.79
-30.15
-23.17
-16.69
-11.41
-7.48
-4.74
-2.89
-1.74
-0.83
0.01
0.72
1.00
0.61
-0.39
-1.60
-2.30
-1.28
3.18
11.65
23.61
36.57
46.73
51.14
49.16
42.59
34.85
29.48
28.61
32.27
39.49
47.59
54.56
59.57
62.52
63.72
63.36
61.29
57.18
50.89
42.90
33.45
24.33
17.39
13.53
12.24
11.67
9.53
3.97
-5.58
-18.00
-30.97
-42.14
-49.86
-53.38
-52.71
-48.15
-40.18
-29.54
-17.28
-4.72
6.49
14.70
18.65
17.52
10.99
-0.63
-16.25
-33.97
-51.31
-66.05
-76.91
-83.82
-87.75
-90.11
-92.23
-94.94
-98.48
-102.56
-106.60
-109.69
-110.75
-108.87
-103.61
-95.35
-84.97
-73.33
-60.66
-46.53
-30.15
-11.04
10.37
32.52
53.19
70.28
82.65
90.32
94.01
94.68
93.22
90.26
86.13
80.94
74.86
68.27
61.56
54.81
47.95
41.32
35.79
32.58
32.75
36.84
44.66
54.91
64.88
70.97
69.84
59.38
39.29
11.24
-21.37
-53.66
-78.07
-88.10
-82.26
-64.41
-40.86
-17.78
-0.03
9.34
9.46
1.71
-11.06
-25.44
-38.32
-47.78
-53.40
-55.74
-55.50
-52.72
-47.06
-38.35
-26.84
-13.06
2.33
18.41
33.90
47.29
57.90
64.87
67.73
66.47
61.62
54.05
44.76
34.73
24.89
16.08
8.93
3.72
0.49
-0.54
1.32
7.12
17.70
32.78
50.03
65.69
75.82
77.59
70.13
54.79
34.28
11.74
-10.06
-29.21
-44.49
-55.13
-61.73
-64.46
-64.07
-62.16
-60.58
-60.73
-62.94
-66.16
-68.38
-65.60
-57.04
-43.67
-28.14
-13.84
-3.71
0.92
0.82
-1.74
-4.64
-6.34
-6.04
-4.84
-3.94
-3.65
-3.37
-1.97
1.39
6.70
12.88
19.25
25.15
30.22
34.47
37.91
40.40
41.62
41.20
38.94
35.03
29.92
24.10
18.07
12.18
6.67
1.89
-1.61
-3.19
-2.37
0.57
4.30
6.89
6.42
1.80
-6.88
-18.57
-31.91
-46.16
-59.98
-73.18
-86.44
-101.19
-119.17
-141.73
-168.83
-198.21
-225.48
-244.93
-251.49
-242.38
-218.16
-182.49
-140.66
-97.94
-58.28
-23.96
4.04
25.27
39.40
46.23
46.13
40.55
31.98
23.39
17.35
15.14
16.69
20.51
24.60
27.42
28.57
28.78
29.19
30.63
33.33
37.64
43.22
49.09
54.04
57.40
59.37
60.87
63.23
67.68
76.51
90.40
107.88
126.29
143.57
158.97
172.54
184.28
193.60
201.87
209.18
213.97
214.37
210.01
202.36
193.50
185.18
178.29
176.23
180.17
188.05
195.94
200.75
201.29
197.64
190.60
160.53
102.80
30.33
-35.93
-82.95
-109.99
-123.47
-131.30
-139.40
-150.38
-160.55
-166.41
-167.55
-166.56
-166.40
-168.45
-172.70
-177.52
-180.90
-178.91
-170.05
-156.29
-141.59
-129.12
-119.83
-112.82
-106.38
-99.05
-88.62
-74.65
-58.70
-43.19
-30.41
-21.15
-15.06
-11.39
-9.58
-8.70
-8.46
-9.22
-11.60
-15.77
-21.27
-27.48
-33.86
-40.07
-45.44
-49.25
-50.82
-49.55
-45.06
-37.26
-26.58
-13.97
-0.73
11.75
22.11
29.14
31.90
30.00
23.96
15.44
6.93
1.09
-0.26
3.09
9.61
16.61
21.40
22.37
19.65
14.87
10.34
7.97
8.58
11.62
15.61
18.84
20.10
19.05
16.15
12.30
8.36
4.85
2.00
-0.11
-1.33
-1.44
-0.31
2.00
5.16
8.71
12.15
14.99
16.55
15.83
11.42
1.99
-12.93
-32.13
-52.43
-69.31
-78.25
-76.43
-63.75
-42.88
-18.21
5.71
25.64
40.22
49.67
54.99
57.17
56.82
54.25
49.80
44.11
38.11
32.83
29.01
26.98
26.61
27.54
29.39
31.94
35.12
38.97
43.45
48.39
53.41
57.95
61.36
62.95
62.04
58.12
51.02
41.10
29.35
17.38
7.03
-0.13
-3.33
-2.98
-0.61
1.59
1.43
-2.42
-10.09
-20.33
-30.97
-39.56
-44.29
-44.63
-41.59
-37.36
-34.47
-34.68
-38.11
-43.18
-47.22
-47.70
-43.36
-34.67
-23.51
-12.23
-2.60
4.69
9.88
13.62
16.41
18.34
19.34
19.46
18.88
17.65
15.36
11.19
4.49
-4.41
-13.71
-20.51
-21.92
-16.41
-4.69
10.55
25.60
37.16
43.41
44.27
40.93
34.98
27.81
20.34
13.14
6.56
0.89
-3.51
-6.24
-7.02
-5.82
-2.93
1.06
5.64
10.25
14.49
18.16
21.34
24.22
26.93
29.45
31.49
32.93
33.24
31.76
28.36
24.04
20.67
20.22
23.75
30.70
39.76
48.19
53.00
52.72
48.54
43.69
41.74
45.20
54.63
69.99
89.01
108.06
123.63
133.45
136.57
133.10
124.68
115.05
110.82
116.41
131.19
149.01
160.72
157.62
134.84
93.42
30.94
-41.90
-107.10
-150.72
-171.17
-175.62
-171.58
-162.81
-149.99
-133.16
-111.97
-88.73
-67.47
-51.48
-41.48
-35.27
-29.69
-22.34
-12.29
0.88
14.98
27.38
35.79
39.63
40.50
40.99
43.44
49.29
59.52
73.41
88.98
103.98
116.57
126.36
133.79
139.51
143.88
146.95
147.43
142.47
132.30
116.20
94.29
67.50
37.36
5.90
-24.29
-50.51
-70.04
-80.51
-80.87
-71.21
-53.11
-29.62
-4.67
17.62
33.55
40.28
36.04
19.64
-9.13
-49.52
-99.64
-155.99
-213.10
-264.28
-303.36
-326.84
-335.77
-334.99
-330.80
-327.76
-326.40
-323.12
-312.45
-290.10
-254.96
-209.42
-157.55
-103.38
-49.86
0.84
46.76
85.84
116.62
139.09
154.77
165.97
174.60
181.30
185.60
186.88
185.18
181.60
177.65
174.33
171.67
169.07
166.06
163.01
161.00
161.05
163.27
166.38
168.19
166.62
160.74
151.05
139.06
126.57
114.79
103.95
93.31
81.61
67.64
50.67
30.54
7.55
-17.86
-45.31
-74.34
-104.22
-133.58
-160.53
-183.04
-199.72
-210.25
-215.52
-217.09
-216.55
-215.09
-213.46
-212.39
-212.78
-215.46
-220.45
-226.40
-230.60
-229.90
-222.19
-207.55
-188.34
-168.21
-150.70
-138.03
-130.84
-128.55
-129.82
-132.77
-134.95
-133.46
-125.89
-111.48
-91.91
-70.91
-52.62
-39.57
-31.62
-26.44
-21.20
-14.48
-6.89
-0.27
3.97
6.13
8.23
12.97
21.98
34.83
49.22
62.19
71.77
77.93
82.72
89.28
100.39
117.23
138.94
163.11
186.98
208.46
226.57
241.10
251.85
257.99
258.19
251.21
236.79
216.06
191.31
165.26
140.18
117.40
97.26
79.33
62.73
46.37
29.24
10.65
-9.64
-31.31
-53.70
-76.21
-98.69
-121.64
-146.06
-173.04
-203.36
-237.03
-273.07
-309.40
-342.96
-370.05
-386.98
-391.15
-382.02
-361.63
-334.16
-304.41
-276.00
-249.85
-224.27
-196.37
-164.38
-129.14
-94.09
-63.48
-40.02
-23.66
-12.12
-2.73
5.67
11.97
13.74
9.09
-1.83
-16.55
-31.44
-43.51
-51.44
-55.44
-56.36
-54.77
-50.56
-43.21
-32.21
-17.77
-1.18
15.66
31.24
45.07
58.00
71.83
88.60
109.86
135.66
164.04
191.42
213.92
228.82
235.43
235.38
230.39
222.13
212.72
203.25
192.80
179.28
161.29
138.95
113.65
87.28
61.81
38.82
19.42
4.33
-6.29
-12.62
-15.68
-17.62
-21.16
-28.52
-40.70
-57.23
-76.21
-94.84
-110.11
-119.77
-122.65
-118.63
-108.39
-93.45
-75.71
-56.95
-38.44
-20.79
-4.22
11.09
24.81
36.46
45.58
52.01
56.08
58.63
60.74
63.34
66.92
71.40
76.28
80.68
83.61
84.05
81.33
75.40
67.08
57.88
49.52
43.14
38.73
35.15
30.69
23.99
14.73
3.77
-7.32
-16.95
-24.17
-28.83
-31.33
-32.18
-31.77
-30.16
-27.28
-23.18
-18.28
-13.38
-9.59
-7.96
-9.06
-12.64
-17.68
-22.66
-26.19
-27.55
-26.89
-24.94
-22.59
-20.34
-18.21
-15.92
-13.24
-10.24
-7.32
-4.91
-3.24
-2.12
-1.08
0.36
2.46
5.20
8.39
11.96
16.04
20.89
26.69
33.39
40.56
47.52
53.49
57.80
59.99
59.86
57.48
53.17
47.52
41.27
35.20
29.92
25.74
22.63
20.39
18.75
17.55
16.66
16.01
15.46
14.82
13.91
12.57
10.68
8.10
4.69
0.44
-4.39
-9.10
-12.59
-13.66
-11.37
-5.42
3.70
14.82
26.51
37.37
46.27
52.46
55.45
55.06
51.44
45.22
37.51
29.73
23.30
19.17
17.52
17.78
18.87
19.73
19.70
18.72
17.27
16.00
15.35
15.35
15.58
15.38
14.23
11.89
8.64
5.14
2.35
1.23
2.55
6.57
12.98
20.89
29.06
36.28
41.71
45.05
46.46
46.32
44.97
42.51
38.87
33.97
27.89
21.00
13.86
7.06
1.08
-3.82
-7.66
-10.55
-12.69
-14.24
-15.24
-15.68
-15.61
-15.15
-14.54
-14.09
-14.08
-14.67
-15.82
-17.31
-18.77
-19.66
-19.37
-17.32
-13.09
-6.52
2.19
12.48
23.54
34.40
44.04
51.63
56.60
58.75
58.26
55.60
51.36
46.15
40.50
34.77
29.26
24.09
19.32
14.80
10.35
5.79
1.17
-3.19
-6.82
-9.27
-10.37
-10.29
-9.56
-8.75
-8.35
-8.62
-9.46
-10.57
-11.41
-11.39
-9.94
-6.76
-1.94
3.93
9.92
15.01
18.46
20.01
19.91
18.70
16.95
15.10
13.35
11.79
10.51
9.61
9.24
9.42
9.98
10.55
10.68
9.97
8.26
5.71
2.68
-0.40
-3.21
-5.66
-7.91
-10.26
-12.99
-16.25
-19.87
-23.45
-26.37
-27.97
-27.70
-25.32
-20.93
-14.95
-8.06
-1.03
5.36
10.53
14.07
15.84
15.93
14.65
12.45
9.88
7.56
6.02
5.70
6.82
9.30
12.77
16.64
20.24
23.03
24.78
25.51
25.42
24.68
23.29
21.14
18.05
13.94
9.01
3.64
-1.60
-6.15
-9.55
-11.58
-12.19
-11.45
-9.51
-6.52
-2.69
1.69
6.15
10.06
12.79
13.90
13.37
11.60
9.35
7.37
6.20
5.92
6.28
6.85
7.32
7.52
7.45
7.19
6.74
6.04
4.95
3.34
1.17
-1.50
-4.54
-7.78
-10.97
-13.80
-15.87
-16.76
-16.16
-13.99
-10.47
-6.07
-1.34
3.22
7.25
10.55
12.98
14.42
14.78
14.03
12.26
9.73
6.82
3.93
1.41
-0.58
-2.05
-3.17
-4.18
-5.28
-6.58
-8.03
-9.41
-10.45
-10.92
-10.80
-10.28
-9.73
-9.58
-10.04
-10.99
-11.83
-11.70
-9.70
-5.32
1.29
9.28
17.36
24.25
29.14
31.88
33.01
33.49
34.30
36.16
39.31
43.20
46.32
46.37
40.87
28.22
8.77
-14.89
-38.44
-57.28
-68.15
-70.12
-64.62
-54.55
-43.15
-33.10
-26.30
-23.88
-26.29
-33.14
-42.90
-52.91
-59.86
-60.72
-53.61
-38.40
-16.75
8.56
34.38
58.08
78.06
93.75
105.53
114.27
121.00
126.66
131.87
136.82
141.29
144.69
146.31
145.62
142.57
137.56
131.21
123.82
114.96
103.35
87.28
65.32
37.19
4.06
-31.52
-66.32
-97.31
-122.34
-140.44
-151.66
-156.70
-156.56
-152.36
-145.30
-136.64
-127.59
-119.14
-111.83
-105.74
-100.58
-95.90
-91.25
-86.26
-80.70
-74.47
-67.60
-60.37
-53.21
-46.67
-41.13
-36.73
-33.33
-30.66
-28.55
-26.98
-26.13
-26.20
-27.31
-29.40
-32.30
-35.70
-39.15
-42.08
-43.80
-43.60
-41.05
-36.17
-29.48
-21.91
-14.39
-7.71
-2.29
1.70
4.25
5.37
5.13
3.69
1.33
-1.50
-4.37
-6.92
-8.97
-10.44
-11.41
-12.02
-12.48
-13.05
-13.99
-15.46
-17.52
-20.08
-23.00
-26.20
-29.63
-33.30
-37.21
-41.32
-45.62
-50.15
-54.96
-60.03
-65.06
-69.46
-72.41
-73.10
-71.08
-66.37
-59.49
-51.17
-42.06
-32.48
-22.39
-11.52
0.24
12.67
25.04
36.36
45.73
52.69
57.35
60.35
62.35
63.76
64.46
63.99
61.92
58.16
53.15
47.68
42.54
38.20
34.69
31.70
28.74
25.40
21.40
16.70
11.43
5.91
0.52
-4.35
-8.39
-11.38
-13.19
-13.69
-12.76
-10.33
-6.51
-1.70
3.45
8.16
11.68
13.50
13.44
11.66
8.62
4.94
1.32
-1.57
-3.16
-3.10
-1.33
1.88
5.93
10.06
13.52
15.77
16.62
16.27
15.17
13.77
12.42
11.20
9.99
8.66
7.07
5.13
2.75
-0.24
-3.90
-8.08
-12.23
-15.37
-16.36
-14.27
-8.93
-1.06
7.82
15.94
21.90
25.13
25.88
24.94
23.14
20.98
18.57
15.84
12.86
9.91
7.46
5.91
5.32
5.36
5.49
5.23
4.32
2.87
1.23
-0.13
-0.86
-0.90
-0.49
-0.16
-0.51
-1.98
-4.64
-8.17
-11.96
-15.38
-17.98
-19.51
-19.80
-18.69
-15.95
-11.55
-5.82
0.42
6.13
10.34
12.52
12.71
11.27
8.67
5.25
1.23
-3.17
-7.54
-11.23
-13.63
-14.32
-13.31
-11.03
-8.19
-5.54
-3.70
-3.05
-3.70
-5.48
-7.99
-10.62
-12.81
-14.15
-14.61
-14.47
-14.29
-14.55
-15.45
-16.69
-17.47
-16.75
-13.54
-7.39
1.48
12.15
23.31
33.60
42.05
48.17
51.93
53.57
53.37
51.59
48.52
44.50
39.96
35.35
31.03
27.20
23.92
21.13
18.69
16.42
14.10
11.56
8.62
5.24
1.45
-2.66
-6.96
-11.41
-15.98
-20.69
-25.52
-30.43
-35.30
-39.98
-44.20
-47.61
-49.69
-49.88
-47.70
-42.95
-35.86
-27.16
-17.92
-9.35
-2.51
1.91
3.69
3.02
0.41
-3.50
-8.07
-12.70
-16.88
-20.19
-22.37
-23.43
-23.68
-23.77
-24.48
-26.43
-29.84
-34.42
-39.49
-44.33
-48.47
-51.86
-54.81
-57.79
-61.26
-65.54
-70.85
-77.32
-84.93
-93.44
-102.17
-110.12
-116.12
-119.19
-118.91
-115.62
-110.25
-104.04
-98.09
-93.09
-89.12
-85.81
-82.43
-78.23
-72.59
-65.11
-55.66
-44.29
-31.26
-16.92
-1.70
13.90
29.33
44.06
57.61
69.64
80.03
88.81
96.16
102.21
106.95
110.17
111.56
110.89
108.13
103.56
97.70
91.24
84.88
79.15
74.43
70.86
68.38
66.71
65.43
63.97
61.81
58.62
54.34
49.27
43.94
38.98
34.95
32.26
31.16
31.78
34.11
37.97
42.91
48.19
52.88
56.09
57.33
56.60
54.44
51.58
48.70
46.11
43.73
41.23
38.29
34.82
30.99
27.20
23.84
21.30
19.85
19.66
20.76
23.04
26.22
29.87
33.46
36.49
38.60
39.60
39.46
38.28
36.20
33.43
30.24
26.99
24.08
21.83
20.41
19.71
19.39
19.03
18.31
17.08
15.49
13.80
12.28
11.01
9.87
8.57
6.78
4.34
1.26
-2.16
-5.41
-7.87
-9.00
-8.50
-6.38
-2.95
1.24
5.61
9.66
13.07
15.63
17.17
17.57
16.72
14.67
11.64
8.07
4.50
1.40
-1.02
-2.75
-4.00
-4.99
-5.87
-6.66
-7.27
-7.66
-7.81
-7.81
-7.79
-7.88
-8.19
-8.80
-9.77
-11.06
-12.48
-13.68
-14.14
-13.30
-10.74
-6.43
-0.74
5.62
11.76
16.97
20.81
23.21
24.33
24.42
23.66
22.15
20.02
17.53
15.03
12.98
11.73
11.42
11.91
12.81
13.66
14.11
14.04
13.57
12.94
12.30
11.53
10.27
8.04
4.51
-0.30
-5.99
-11.86
-17.11
-21.07
-23.33
-23.83
-22.82
-20.85
-18.63
-16.88
-16.18
-16.91
-19.24
-23.20
-28.75
-35.78
-44.03
-53.04
-62.20
-70.85
-78.49
-84.87
-90.07
-94.33
-97.94
-101.17
-104.23
-107.33
-110.73
-114.64
-119.19
-124.29
-129.54
-134.28
-137.61
-138.42
-135.50
-127.67
-114.09
-94.58
-69.84
-41.46
-11.65
17.30
43.51
65.89
84.14
98.63
109.99
118.86
125.66
130.48
133.21
133.56
131.26
126.18
118.44
108.44
96.86
84.54
72.32
60.92
50.68
41.58
33.19
24.81
15.73
5.48
-5.92
-17.89
-29.45
-39.62
-47.84
-54.15
-59.02
-62.78
-65.13
-65.01
-61.03
-52.31
-39.23
-23.52
-7.65
6.19
16.96
24.90
30.91
35.72
39.28
40.88
39.84
36.19
31.03
26.09
22.97
22.39
23.89
26.16
27.73
27.72
26.12
23.58
20.95
18.80
17.24
16.04
14.96
13.98
13.25
12.93
12.92
12.81
12.06
10.38
7.94
5.45
3.86
3.99
6.09
9.83
14.41
18.88
22.50
24.92
26.17
26.60
26.72
27.07
28.04
29.73
31.95
34.23
36.13
37.43
38.37
39.57
41.79
45.52
50.77
57.13
64.20
71.96
80.96
92.16
106.41
123.96
144.33
166.38
188.88
210.75
231.30
250.13
267.13
282.54
297.05
311.88
328.38
347.24
367.64
386.76
400.45
404.55
396.60
376.87
348.22
314.87
280.75
248.26
218.02
189.40
161.62
134.37
107.91
82.67
58.73
35.83
13.57
-8.12
-28.74
-47.34
-62.84
-74.49
-82.19
-86.54
-88.63
-89.59
-90.22
-90.79
-91.08
-90.71
-89.33
-86.90
-83.73
-80.37
-77.39
-75.18
-73.87
-73.39
-73.56
-74.25
-75.41
-77.09
-79.34
-82.11
-85.15
-88.03
-90.23
-91.21
-90.54
-87.99
-83.46
-77.02
-68.88
-59.37
-48.97
-38.27
-27.98
-18.79
-11.30
-5.89
-2.65
-1.40
-1.80
-3.53
-6.40
-10.39
-15.61
-22.15
-29.96
-38.76
-48.11
-57.58
-66.96
-76.40
-86.37
-97.50
-110.25
-124.71
-140.54
-157.09
-173.70
-189.98
-205.96
-222.06
-238.87
-257.00
-277.05
-299.50
-324.40
-350.96
-377.21
-400.15
-416.42
-423.42
-420.27
-408.08
-389.53
-367.62
-344.62
-321.58
-298.53
-275.25
-251.92
-229.24
-208.10
-189.14
-172.39
-157.34
-143.33
-129.93
-117.22
-105.73
-96.11
-88.60
-82.78
-77.56
-71.62
-63.94
-54.35
-43.60
-32.89
-23.31
-15.35
-8.89
-3.43
1.47
5.96
9.88
12.89
14.59
14.70
13.29
10.89
8.43
6.90
6.72
7.31
7.20
4.79
-0.60
-8.11
-15.68
-21.06
-22.92
-21.17
-16.69
-10.40
-3.00
5.08
13.09
19.74
23.59
23.73
20.38
14.88
8.96
3.96
0.40
-1.90
-3.35
-4.21
-4.50
-4.30
-3.78
-3.27
-2.94
-2.65
-2.07
-0.91
0.68
2.09
2.36
0.68
-3.16
-8.63
-14.60
-19.76
-23.22
-24.96
-25.63
-26.22
-27.47
-29.61
-32.39
-35.35
-38.26
-41.31
-45.05
-49.68
-54.76
-59.31
-62.41
-63.93
-64.57
-65.52
-67.69
-71.40
-75.83
-79.53
-81.36
-81.26
-80.28
-79.90
-81.25
-84.69
-90.65
-98.86
-108.54
-118.90
-129.37
-139.64
-149.32
-158.02
-165.69
-174.26
-184.77
-196.56
-207.83
-217.14
-224.21
-229.59
-233.89
-237.08
-240.52
-242.89
-240.30
-228.63
-206.45
-175.69
-140.11
-103.32
-67.69
-37.24
-12.56
9.49
33.67
63.43
100.23
144.55
196.46
275.18
378.32
482.57
557.72
586.81
572.36
529.39
476.05
426.74
388.53
358.51
331.66
305.71
281.89
262.12
246.36
232.29
216.78
198.32
176.76
156.22
144.44
147.86
166.82
194.59
220.55
235.04
230.12
206.23
170.01
130.66
95.86
69.36
51.47
40.67
34.60
30.73
25.04
13.88
-3.96
-26.29
-48.10
-63.30
-67.36
-59.41
-42.81
-23.71
-8.74
-2.26
-5.32
-16.24
-32.03
-49.74
-66.97
-81.76
-92.12
-96.37
-93.32
-82.71
-65.97
-46.15
-27.21
-12.81
-5.26
-5.01
-10.90
-20.78
-32.27
-43.39
-52.62
-58.87
-61.39
-59.81
-54.19
-45.20
-33.99
-21.94
-10.33
0.03
8.79
15.91
21.35
24.95
26.48
25.86
23.28
19.25
14.46
9.55
5.00
1.11
-1.93
-3.93
-4.74
-4.40
-3.20
-1.63
-0.15
1.11
2.46
4.66
8.60
14.88
23.46
33.56
43.91
53.09
59.99
64.07
65.35
64.27
61.45
57.52
53.00
48.30
43.74
39.53
35.76
32.39
29.34
26.49
23.77
21.22
18.91
16.87
15.10
13.54
12.10
10.67
9.12
7.29
5.08
2.46
-0.49
-3.57
-6.69
-9.89
-13.39
-17.40
-21.88
-26.34
-29.81
-31.20
-29.63
-24.91
-17.63
-8.91
-0.05
7.91
14.43
19.40
23.01
25.41
26.69
26.83
25.80
23.71
20.81
17.46
14.11
11.19
9.06
7.98
8.00
8.93
10.38
11.82
12.78
12.98
12.41
11.23
9.70
8.00
6.10
3.87
1.09
-2.36
-6.39
-10.60
-14.31
-16.61
-16.69
-14.01
-8.55
-0.91
7.93
16.86
24.96
31.63
36.60
39.84
41.40
41.35
39.82
37.09
33.59
29.84
26.37
23.53
21.48
20.11
19.16
18.32
17.30
15.92
14.18
12.22
10.24
8.42
6.83
5.43
4.02
2.40
0.34
-2.34
-5.74
-9.77
-14.11
-18.13
-20.95
-21.64
-19.58
-14.70
-7.58
0.67
8.85
15.95
21.42
25.10
27.10
27.60
26.78
24.82
22.04
18.86
15.79
13.23
11.38
10.20
9.42
8.74
7.87
6.73
5.38
4.04
2.92
2.10
1.47
0.74
-0.37
-2.01
-4.12
-6.48
-8.90
-11.30
-13.65
-15.86
-17.59
-18.27
-17.30
-14.34
-9.52
-3.48
2.91
8.81
13.65
17.18
19.38
20.33
20.09
18.72
16.36
13.31
9.96
6.75
4.08
2.17
1.09
0.72
0.85
1.19
1.47
1.51
1.23
0.64
-0.13
-1.03
-2.05
-3.26
-4.76
-6.58
-8.67
-10.93
-13.25
-15.56
-17.73
-19.50
-20.41
-19.92
-17.61
-13.40
-7.69
-1.25
5.02
10.38
14.40
17.00
18.26
18.33
17.34
15.40
12.69
9.54
6.37
3.60
1.57
0.39
-0.04
0.04
0.33
0.55
0.55
0.22
-0.43
-1.36
-2.50
-3.76
-5.08
-6.44
-7.89
-9.50
-11.40
-13.65
-16.21
-18.90
-21.36
-23.11
-23.61
-22.40
-19.28
-14.41
-8.37
-2.05
3.57
7.66
9.76
9.87
8.35
5.81
2.84
-0.08
-2.68
-4.84
-6.50
-7.57
-7.95
-7.53
-6.29
-4.29
-1.69
1.35
4.72
8.31
12.05
15.80
19.31
22.22
24.15
24.81
24.06
21.95
18.70
14.72
10.50
6.57
3.43
1.42
0.69
1.15
2.46
4.19
5.89
7.25
8.09
8.39
8.18
7.51
6.46
5.11
3.60
2.11
0.87
0.03
-0.33
-0.29
0.01
0.35
0.57
0.60
0.48
0.33
0.28
0.39
0.63
0.89
1.11
1.25
1.31
1.26
1.03
0.56
-0.15
-0.93
-1.44
-1.29
-0.17
2.00
4.98
8.34
11.59
14.35
16.40
17.70
18.24
18.01
17.02
15.32
13.10
10.71
8.57
7.04
6.26
6.11
6.26
6.32
6.03
5.33
4.34
3.26
2.25
1.29
0.26
-1.01
-2.62
-4.54
-6.63
-8.69
-10.49
-11.77
-12.26
-11.69
-9.89
-6.89
-3.03
1.12
4.89
7.66
9.09
9.15
8.04
6.15
3.87
1.54
-0.54
-2.19
-3.29
-3.84
-3.97
-3.88
-3.81
-3.97
-4.47
-5.29
-6.35
-7.49
-8.60
-9.62
-10.58
-11.61
-12.84
-14.34
-16.01
-17.54
-18.51
-18.45
-17.03
-14.18
-10.16
-5.48
-0.73
3.58
7.10
9.67
11.24
11.82
11.43
10.19
8.30
6.13
4.07
2.47
1.48
1.01
0.79
0.49
-0.09
-0.95
-1.91
-2.70
-3.13
-3.16
-2.92
-2.72
-2.85
-3.51
-4.69
-6.09
-7.18
-7.30
-5.87
-2.56
2.62
9.27
16.74
24.35
31.56
38.11
44.03
49.55
54.99
60.57
66.35
72.17
77.69
82.64
86.92
90.91
95.48
101.74
110.68
122.89
138.21
155.59
173.45
189.97
203.65
213.81
220.80
225.96
231.16
237.93
246.74
256.71
265.95
272.18
273.48
268.71
257.58
240.51
218.43
192.85
165.70
139.22
115.34
95.12
78.23
63.03
46.93
27.27
2.15
-29.10
-66.08
-107.50
-151.57
-196.78
-242.05
-286.95
-331.74
-377.18
-424.40
-474.50
-527.73
-582.77
-636.38
-683.79
-719.94
-741.20
-746.41
-737.18
-716.80
-688.70
-655.24
-617.71
-576.84
-533.62
-489.80
-447.35
-407.78
-371.45
-337.45
-304.18
-270.29
-235.27
-199.43
-163.76
-129.17
-96.03
-64.12
-32.78
-1.17
31.35
65.12
100.20
136.38
173.23
210.02
245.54
278.34
307.03
330.76
349.40
363.50
373.78
380.98
385.43
387.03
385.62
381.12
373.72
363.94
352.37
339.60
326.17
312.60
299.27
286.49
274.40
262.78
251.16
238.90
225.43
210.51
194.53
178.48
163.76
151.76
143.29
138.36
136.20
135.43
134.63
132.65
129.05
124.12
118.67
113.66
109.83
107.35
105.74
104.22
101.99
98.83
95.16
91.75
89.14
87.33
85.43
82.35
77.24
70.06
61.70
53.60
47.17
43.39
42.86
45.84
51.96
60.22
68.78
75.32
77.97
75.80
69.77
62.40
56.80
55.39
58.92
66.24
74.96
82.34
85.55
82.85
73.80
59.20
40.58
19.63
-2.26
-24.11
-45.34
-66.78
-88.68
-110.20
-129.60
-145.18
-156.36
-163.97
-169.79
-175.36
-184.12
-197.86
-215.44
-233.66
-248.87
-259.19
-265.03
-268.50
-272.08
-281.27
-299.03
-323.88
-350.17
-371.09
-382.11
-382.49
-374.92
-363.77
-358.42
-365.59
-386.13
-415.18
-446.24
-475.34
-501.93
-527.29
-520.07
-460.19
-348.20
-207.39
-67.39
51.47
141.03
201.70
239.28
261.84
272.36
273.34
268.34
262.50
260.09
262.92
270.05
278.87
286.56
287.17
276.94
256.11
229.08
201.54
177.84
160.14
148.98
143.95
141.75
139.49
134.11
125.37
114.16
101.34
87.46
73.08
58.71
43.51
26.55
7.32
-13.50
-34.71
-54.84
-72.46
-86.15
-94.91
-98.94
-99.26
-97.46
-94.74
-91.65
-87.76
-81.72
-71.73
-56.52
-36.02
-11.55
14.60
40.22
63.71
84.26
101.64
115.73
126.29
133.11
136.31
136.55
134.93
132.47
129.60
125.97
120.77
113.21
103.10
91.00
78.02
65.27
53.34
41.98
30.20
16.72
0.63
-18.19
-38.96
-60.35
-81.08
-100.45
-118.52
-135.86
-152.85
-169.28
-184.23
-196.37
-204.30
-206.63
-201.78
-187.86
-163.44
-128.83
-87.27
-44.89
-9.02
14.66
24.47
23.33
17.04
11.31
9.28
10.82
13.81
16.29
17.83
19.52
22.83
28.19
34.46
39.43
40.97
38.02
31.03
21.62
11.86
3.52
-2.46
-6.09
-8.07
-9.31
-10.46
-11.61
-12.37
-12.14
-10.49
-7.29
-2.70
2.91
9.03
15.03
20.23
23.99
25.88
25.86
24.21
21.51
18.37
15.34
12.76
10.80
9.45
8.54
7.62
6.01
2.87
-2.41
-10.06
-19.69
-30.40
-40.94
-49.95
-56.16
-58.47
-56.11
-48.67
-36.28
-19.76
-0.61
19.27
38.03
54.22
67.04
76.20
81.73
83.73
82.36
77.93
71.05
62.64
53.88
45.88
39.50
35.17
32.89
32.40
33.34
35.40
38.45
42.50
47.64
53.83
60.66
67.36
72.82
75.94
76.00
72.83
66.86
58.85
49.62
39.72
29.50
19.23
9.30
0.24
-7.32
-12.99
-16.77
-19.20
-21.12
-23.42
-26.66
-30.93
-35.87
-40.86
-45.23
-48.39
-49.97
-49.75
-47.80
-44.38
-40.01
-35.32
-30.94
-27.23
-24.21
-21.51
-18.52
-14.57
-9.15
-2.09
6.44
15.86
25.40
34.18
41.50
46.88
50.25
51.67
51.14
48.51
43.45
35.65
25.15
12.61
-0.56
-12.26
-20.35
-23.28
-20.67
-13.51
-3.94
5.22
11.28
12.42
8.43
0.53
-9.12
-17.98
-23.78
-25.13
-21.83
-14.82
-5.83
3.81
12.80
19.92
24.55
26.98
28.36
30.22
33.85
39.83
49.14
61.19
73.80
84.31
91.09
94.43
96.11
98.50
103.41
113.26
127.65
143.15
155.24
160.98
160.39
155.86
150.66
147.49
150.17
159.11
170.83
179.88
181.86
175.10
160.56
140.74
101.27
39.83
-33.48
-102.73
-157.31
-195.02
-218.22
-230.38
-234.85
-234.76
-229.93
-220.62
-208.09
-193.99
-179.22
-164.00
-148.77
-134.53
-122.43
-110.92
-98.65
-85.55
-72.84
-61.95
-53.97
-49.43
-48.00
-48.72
-48.84
-46.38
-41.11
-34.40
-28.04
-23.37
-20.93
-20.07
-19.51
-17.06
-11.23
-1.65
10.78
24.75
38.59
50.01
56.69
56.49
48.45
33.18
12.98
-8.76
-28.77
-44.94
-57.59
-67.06
-73.50
-76.78
-76.63
-72.81
-65.67
-56.21
-44.68
-33.28
-22.90
-13.56
-3.63
8.16
22.74
40.31
60.06
79.97
97.01
106.47
106.82
98.72
84.55
67.51
50.32
34.38
19.74
5.77
-7.53
-19.24
-28.36
-34.34
-37.38
-38.39
-38.63
-39.22
-40.71
-42.91
-44.83
-45.51
-44.17
-40.43
-34.38
-26.71
-18.61
-11.62
-7.07
-5.60
-7.17
-11.04
-15.97
-20.67
-24.37
-26.60
-27.44
-27.18
-26.00
-23.91
-20.74
-16.30
-10.49
-3.42
4.39
12.08
18.67
23.15
24.81
23.37
19.05
12.78
6.15
0.85
-2.18
-3.17
-4.03
-7.71
-17.42
-34.95
-59.02
-84.60
-104.50
-111.71
-101.86
-74.79
-34.40
12.15
56.53
91.61
113.58
121.90
118.83
108.12
93.82
79.69
67.88
59.17
51.61
45.24
40.83
39.32
41.17
45.88
52.90
61.06
68.85
74.91
78.29
77.65
71.42
58.63
36.61
8.82
-17.32
-35.79
-46.06
-51.78
-57.33
-64.83
-73.30
-79.92
-81.51
-77.13
-68.24
-57.20
-45.41
-33.05
-19.71
-5.43
8.66
20.79
28.47
29.72
24.27
14.19
2.79
-7.08
-14.19
-19.05
-22.72
-26.60
-30.92
-35.31
-38.81
-41.04
-42.70
-45.18
-49.59
-55.61
-61.43
-64.16
-60.98
-49.72
-30.53
-6.16
18.67
38.90
51.07
54.38
50.71
43.44
36.76
33.33
33.99
38.20
44.90
53.31
62.95
73.36
79.21
76.53
64.85
48.83
35.32
28.95
29.61
33.07
33.59
27.22
14.65
-0.59
-15.05
-26.71
-35.77
-43.85
-52.16
-60.43
-66.85
-64.86
-52.87
-33.26
-11.16
7.90
20.23
25.51
25.92
24.71
24.82
27.11
31.33
36.82
42.93
48.49
53.76
58.99
64.33
69.84
74.85
78.67
80.74
80.85
78.90
75.62
71.94
68.85
66.86
65.41
63.23
58.37
51.34
41.68
29.17
13.79
-4.05
-23.47
-43.41
-62.75
-80.70
-97.14
-113.01
-129.09
-145.54
-161.22
-173.71
-179.93
-176.96
-162.96
-137.65
-102.70
-60.94
-16.03
28.00
67.32
98.86
120.88
133.28
137.57
136.06
131.34
125.50
119.75
114.48
109.50
104.28
98.12
90.23
79.87
66.68
51.04
34.08
17.43
2.50
-10.31
-21.94
-34.29
-49.32
-67.92
-89.51
-112.39
-134.65
-154.90
-172.63
-187.99
-200.89
-210.78
-216.89
-218.80
-217.21
-214.03
-211.86
-213.09
-218.66
-227.06
-234.46
-235.93
-227.57
-208.32
-180.91
-150.58
-123.13
-102.54
-89.22
-80.25
-71.26
-58.58
-40.24
-15.84
14.62
50.68
90.96
132.63
171.62
203.33
224.26
233.75
231.81
221.84
208.49
194.78
181.77
170.52
162.53
159.24
160.78
165.28
169.26
170.35
166.90
158.84
147.99
136.89
127.50
120.33
114.26
107.55
98.19
86.72
73.30
58.87
44.46
30.58
17.11
3.87
-8.52
-18.74
-25.22
-27.40
-25.59
-21.31
-17.03
-15.36
-17.96
-24.81
-34.07
-42.76
-48.20
-48.02
-41.09
-27.84
-10.14
9.63
29.52
48.26
64.97
77.51
84.31
84.71
78.78
66.97
50.15
29.89
8.25
-12.53
-32.67
-51.71
-68.87
-84.61
-101.51
-122.74
-149.63
-180.66
-212.12
-243.53
-273.59
-300.23
-322.19
-339.90
-354.00
-363.71
-367.11
-362.31
-353.42
-342.96
-330.44
-314.18
-293.55
-268.82
-239.97
-206.82
-142.05
-45.41
58.71
143.08
197.12
224.63
234.43
234.82
231.14
225.76
214.49
195.60
171.92
148.09
127.19
110.08
96.63
86.02
77.18
65.65
49.89
32.46
16.89
5.36
-1.92
-5.28
-5.84
-4.94
-6.11
-10.92
-18.37
-26.42
-33.72
-40.04
-45.06
-48.94
-52.05
-55.70
-60.15
-64.18
-65.60
-61.84
-55.38
-46.55
-35.38
-21.82
-6.41
9.99
26.09
40.07
49.85
53.73
51.88
45.58
36.87
27.92
20.27
14.51
10.51
7.76
5.69
4.63
4.62
5.35
6.22
6.83
7.32
8.44
11.36
17.16
26.92
40.57
56.86
73.82
89.47
102.44
112.14
118.61
122.23
124.14
124.95
124.61
122.69
118.98
113.70
107.43
100.79
94.17
89.27
86.80
85.95
85.08
82.96
79.31
74.57
69.47
64.62
63.44
67.61
75.73
84.40
90.63
93.06
91.71
87.59
82.21
82.34
92.48
112.23
137.42
163.58
187.84
208.74
225.89
239.24
255.69
279.21
307.82
335.27
355.59
365.79
365.49
356.42
302.20
192.72
50.38
-85.52
-188.38
-253.49
-288.76
-304.93
-308.87
-307.21
-296.52
-274.39
-243.17
-208.39
-175.04
-145.22
-121.31
-103.20
-90.53
-77.78
-61.75
-43.23
-25.43
-11.68
-4.07
-3.64
-10.66
-25.91
-47.13
-73.01
-105.09
-138.91
-165.68
-178.89
-178.22
-167.38
-151.28
-132.27
-111.70
-90.71
-70.34
-52.16
-37.91
-28.57
-23.74
-21.94
-20.69
-17.84
-12.27
-3.87
6.06
15.56
23.19
28.77
33.19
37.55
42.95
50.02
58.89
68.65
77.51
84.40
88.90
91.50
92.52
92.64
92.45
92.40
92.47
92.46
92.43
92.89
94.91
98.62
104.28
111.77
120.62
129.98
139.11
147.68
155.93
164.76
173.84
183.01
191.68
198.70
202.57
201.68
194.29
177.71
157.69
135.88
113.33
90.35
67.01
43.38
19.85
-3.03
-24.88
-45.46
-65.71
-85.24
-102.25
-114.23
-119.48
-118.64
-115.05
-113.36
-116.93
-127.00
-140.98
-154.45
-163.81
-168.19
-169.57
-171.04
-174.57
-179.87
-185.80
-191.21
-196.41
-203.21
-213.44
-227.49
-243.29
-257.08
-265.17
-266.15
-261.21
-253.53
-246.54
-242.27
-240.66
-239.96
-238.05
-233.58
-226.50
-217.53
-207.43
-196.40
-184.45
-172.01
-160.20
-150.32
-142.93
-137.13
-130.65
-120.80
-105.57
-84.16
-56.93
-24.88
10.75
48.43
86.14
121.45
152.17
177.03
196.03
209.85
218.81
222.24
219.01
208.67
192.77
174.83
158.92
147.83
141.82
138.87
135.89
130.39
121.25
108.77
93.79
76.96
58.55
38.51
16.94
-5.56
-27.90
-48.76
-66.86
-81.47
-92.77
-101.61
-109.05
-115.34
-119.12
-117.35
-106.33
-83.33
-48.23
-4.06
44.05
90.87
132.91
169.05
199.76
225.51
245.74
258.83
263.18
258.41
245.78
227.60
206.06
182.33
156.54
128.57
98.89
69.09
41.60
18.80
2.26
-7.79
-12.35
-13.18
-12.16
-10.81
-10.12
-10.52
-12.18
-15.21
-19.53
-24.87
-30.58
-35.66
-39.11
-40.47
-39.91
-38.39
-37.13
-37.09
-38.76
-42.26
-47.23
-52.80
-57.52
-59.72
-58.23
-53.23
-46.76
-42.27
-43.37
-52.14
-68.32
-89.73
-113.44
-137.15
-159.81
-181.53
-202.90
-224.41
-245.57
-265.29
-282.74
-297.56
-309.76
-319.26
-325.59
-328.22
-326.96
-321.27
-311.13
-298.03
-284.77
-274.24
-267.84
-264.68
-261.83
-256.41
-245.06
-225.78
-199.29
-168.37
-135.88
-103.31
-70.46
-36.28
-1.00
36.01
75.41
116.76
158.62
199.56
238.54
274.74
314.12
349.89
371.51
374.55
362.22
340.55
314.92
289.11
265.34
244.38
224.78
206.24
189.25
173.93
159.76
146.44
134.11
123.19
113.82
104.84
96.03
87.87
80.64
74.30
69.44
66.91
67.73
72.35
79.60
88.19
97.00
104.88
110.75
114.49
116.79
119.04
122.78
129.00
138.34
150.32
162.55
170.71
170.31
158.85
137.28
109.60
80.97
55.15
32.86
13.31
-6.43
-29.39
-56.99
-88.23
-120.40
-150.26
-174.98
-192.42
-201.01
-199.88
-188.56
-167.23
-136.67
-98.25
-54.01
-6.45
41.18
85.00
120.76
144.86
155.31
152.10
137.20
113.90
85.82
55.87
25.59
-5.24
-37.64
-71.97
-106.55
-137.65
-161.02
-174.19
-178.29
-177.87
-179.13
-186.77
-201.50
-219.45
-234.05
-239.13
-231.84
-213.76
-189.99
-167.26
-151.38
-145.45
-149.34
-160.68
-176.30
-193.47
-210.06
-223.62
-231.54
-230.98
-219.09
-194.11
-156.61
-109.88
-59.42
-11.27
30.72
64.51
90.14
109.88
127.70
147.85
173.29
204.69
240.54
279.05
316.25
346.73
365.63
370.64
362.73
345.42
323.25
300.47
281.53
267.04
254.17
239.14
219.78
196.14
169.63
141.84
102.18
51.62
0.39
-41.07
-70.08
-90.38
-106.26
-119.03
-126.96
-126.55
-113.84
-89.82
-60.19
-31.75
-8.18
11.40
32.06
54.95
78.00
97.36
106.86
101.30
80.02
48.40
15.84
-8.65
-20.02
-17.99
-5.94
9.72
22.42
28.19
25.84
17.71
7.93
0.77
-0.26
6.41
19.14
34.10
46.83
53.81
53.10
42.82
22.68
-5.32
-37.32
-68.91
-95.56
-113.40
-120.17
-115.64
-104.03
-88.90
-71.07
-49.90
-25.73
-0.99
20.15
32.95
34.10
19.64
-8.40
-42.20
-73.60
-99.09
-120.03
-140.32
-163.95
-193.26
-233.46
-284.21
-338.37
-385.87
-418.16
-429.37
-416.97
-382.66
-302.82
-184.89
-62.50
32.72
92.46
125.14
141.87
149.54
150.25
144.94
130.83
110.67
92.60
84.96
89.45
102.35
117.32
128.15
131.59
124.23
108.58
92.11
82.40
82.92
93.43
112.02
133.23
153.57
168.04
174.04
171.59
161.81
145.63
124.24
99.09
70.36
37.77
-0.26
-43.41
-88.52
-130.78
-165.32
-188.50
-194.59
-182.30
-159.46
-141.31
-139.93
-157.46
-186.86
-216.27
-234.23
-234.31
-220.80
-199.56
-176.56
-155.57
-137.05
-119.39
-100.03
-76.93
-49.42
-18.13
13.11
43.06
72.66
104.68
141.33
183.77
231.58
282.19
330.24
369.55
395.11
404.32
398.45
380.76
356.09
329.68
305.73
286.19
271.25
259.99
249.71
236.87
215.76
181.06
130.59
66.58
-4.55
-73.60
-130.58
-170.77
-186.52
-177.75
-154.09
-127.95
-107.31
-93.64
-84.12
-72.79
-58.92
-44.22
-33.12
-29.30
-33.20
-41.93
-50.90
-57.75
-60.36
-59.21
-55.86
-53.46
-54.60
-60.17
-69.86
-82.57
-96.41
-108.24
-115.46
-116.43
-111.72
-103.13
-92.63
-81.69
-71.16
-61.35
-52.32
-44.64
-38.75
-34.98
-33.18
-32.56
-32.09
-31.00
-29.04
-26.23
-23.02
-19.78
-16.73
-14.10
-11.96
-10.25
-9.06
-8.76
-10.03
-13.54
-19.12
-24.92
-27.98
-25.07
-14.25
3.91
26.12
47.48
62.86
69.75
68.97
63.34
55.95
48.60
41.58
34.46
27.17
20.51
15.93
14.48
15.93
18.79
21.04
20.94
18.03
13.13
7.87
3.98
2.71
4.33
8.22
12.67
15.10
12.62
2.94
-14.33
-37.40
-62.08
-83.02
-95.45
-96.76
-87.14
-69.07
-46.03
-21.27
2.86
24.76
43.08
56.34
63.10
62.63
55.45
43.55
29.97
18.07
10.28
7.37
8.26
10.62
11.90
10.28
5.28
-2.26
-10.81
-19.00
-26.06
-31.76
-36.07
-38.74
-39.36
-37.74
-34.27
-30.09
-26.76
-25.49
-26.59
-29.36
-32.70
-36.09
-40.04
-45.73
-54.13
-64.94
-76.22
-84.89
-88.02
-83.42
-71.10
-53.23
-33.19
-14.13
2.12
15.26
25.81
34.10
39.68
41.43
38.43
30.83
20.13
8.73
-1.03
-7.72
-11.31
-12.76
-13.44
-14.15
-14.64
-13.64
-9.54
-1.25
11.01
25.56
39.72
50.79
56.99
57.97
54.63
48.48
40.80
32.38
23.54
14.45
5.17
-4.57
-15.46
-28.27
-43.03
-58.34
-71.15
-77.72
-75.29
-63.52
-44.97
-23.99
-5.03
9.08
17.68
21.82
23.11
22.86
21.83
20.68
20.28
21.81
26.27
33.83
43.64
53.89
62.50
67.88
69.42
67.67
63.91
59.65
56.03
53.44
51.49
49.40
46.40
42.08
36.47
29.95
23.14
16.52
10.41
4.82
-0.45
-5.61
-10.94
-16.83
-23.64
-31.45
-39.77
-47.42
-52.77
-54.18
-50.45
-41.52
-28.64
-13.83
0.81
13.57
23.42
29.68
31.97
30.82
27.14
22.22
17.86
16.20
18.95
26.91
39.21
53.60
68.42
81.76
91.78
97.45
99.08
97.79
95.48
93.52
92.58
94.84
101.13
110.49
120.72
129.90
136.79
142.23
147.72
154.76
166.49
183.05
200.63
213.30
216.23
207.25
188.61
164.49
123.56
65.52
0.55
-57.18
-99.23
-121.63
-131.84
-135.25
-135.21
-133.74
-130.31
-124.64
-118.02
-112.48
-109.03
-107.70
-106.76
-105.04
-102.37
-97.37
-89.70
-80.36
-70.72
-61.44
-52.92
-44.81
-37.52
-32.06
-28.04
-24.93
-22.48
-20.61
-19.11
-18.06
-17.21
-16.84
-17.46
-18.95
-21.26
-24.56
-29.00
-34.16
-38.87
-41.04
-38.51
-29.86
-14.75
5.41
27.70
48.57
65.01
75.28
79.38
78.50
74.44
68.97
63.27
57.82
52.49
46.89
40.68
33.98
27.22
21.02
15.82
11.65
8.03
4.24
-0.28
-5.64
-11.35
-16.56
-20.40
-22.69
-24.11
-26.18
-30.82
-39.87
-54.84
-76.87
-106.68
-144.13
-187.50
-232.79
-273.92
-304.12
-318.15
-314.18
-294.60
-265.04
-232.24
-201.71
-176.24
-155.76
-138.37
-121.54
-103.32
-82.73
-59.86
-35.59
-11.03
12.90
35.67
56.90
76.10
92.32
104.41
111.47
113.48
111.54
107.61
103.82
101.66
101.76
103.90
107.35
111.00
113.35
112.47
106.43
93.96
75.36
52.83
29.98
10.73
-2.03
-7.24
-5.74
0.42
8.74
16.97
23.30
26.44
25.54
20.38
11.61
0.62
-10.74
-20.72
-28.27
-33.51
-37.65
-42.62
-50.09
-60.68
-73.32
-85.53
-94.17
-96.63
-91.78
-80.27
-64.12
-45.90
-27.88
-11.53
2.54
14.26
23.85
31.51
37.48
41.93
44.98
46.68
46.88
45.41
42.20
37.49
31.75
25.65
19.80
14.68
10.56
7.67
6.17
6.18
7.61
10.05
12.76
14.82
15.39
13.97
10.48
5.26
-0.97
-7.25
-12.52
-15.78
-16.42
-14.39
-10.23
-4.88
0.72
6.01
10.97
15.99
21.45
27.35
33.05
37.43
39.30
37.93
33.37
26.42
18.34
10.32
3.08
-3.20
-8.74
-13.89
-18.89
-23.82
-28.64
-33.31
-37.79
-41.97
-45.62
-48.37
-49.90
-49.95
-48.41
-45.32
-40.75
-34.84
-27.83
-20.07
-12.10
-4.58
1.75
6.13
7.88
6.62
2.54
-3.40
-9.53
-13.90
-14.93
-12.05
-5.99
1.55
8.57
13.67
16.39
17.16
16.82
16.03
14.92
13.20
10.48
6.62
1.86
-3.32
-8.44
-13.23
-17.60
-21.46
-24.41
-25.67
-24.16
-18.98
-9.83
2.61
16.76
30.55
41.96
49.56
52.74
51.62
46.79
39.17
29.97
20.76
13.37
9.57
10.50
16.07
24.85
34.34
41.83
45.23
43.72
37.81
29.03
19.29
10.31
3.22
-1.56
-4.26
-5.54
-6.20
-6.78
-7.35
-7.47
-6.35
-3.26
2.09
9.38
17.75
26.08
33.32
38.69
41.72
42.17
39.99
35.22
28.17
19.40
9.71
0.02
-8.85
-16.26
-21.77
-25.15
-26.29
-25.27
-22.38
-18.25
-13.86
-10.34
-8.70
-9.53
-12.81
-17.90
-23.82
-29.50
-33.94
-36.28
-35.76
-31.78
-24.05
-12.82
0.98
15.83
30.02
42.05
51.09
57.06
60.49
62.18
62.84
62.88
62.37
61.11
58.81
55.33
50.82
45.72
40.63
36.01
32.03
28.40
24.54
19.71
13.36
5.37
-3.87
-13.51
-22.41
-29.50
-34.05
-35.89
-35.40
-33.27
-30.18
-26.49
-22.06
-16.40
-9.02
0.26
11.08
22.59
33.68
43.36
50.94
56.09
58.74
59.00
57.03
53.16
47.87
41.68
35.13
28.54
22.12
16.10
10.89
7.02
4.92
4.55
5.19
5.60
4.43
0.75
-5.48
-13.55
-22.35
-30.65
-37.29
-41.32
-42.11
-39.39
-33.37
-24.50
-13.62
-1.77
9.92
20.56
29.62
36.91
42.59
46.97
50.74
54.35
57.89
61.13
63.65
64.99
64.65
61.95
56.13
47.07
35.21
21.68
8.24
-3.22
-11.33
-15.77
-17.63
-21.35
-29.89
-44.01
-61.96
-80.62
-96.80
-108.30
-113.97
-114.10
-110.23
-103.99
-96.90
-90.09
-84.22
-79.32
-74.51
-67.46
-55.12
-35.54
-9.45
18.68
42.03
54.45
54.15
42.94
26.22
10.30
-0.27
-3.94
-2.06
2.84
8.59
13.57
16.55
16.66
13.19
6.04
-3.66
-13.89
-21.91
-24.91
-21.45
-11.55
3.91
23.30
44.74
67.11
88.56
107.61
123.77
136.41
145.18
150.32
152.01
150.53
145.95
138.69
129.99
121.95
115.39
109.98
104.80
100.73
99.69
102.96
110.55
117.16
122.49
126.39
127.66
128.57
129.13
128.59
125.21
117.81
106.58
93.22
78.72
63.61
48.44
33.26
18.16
1.11
-18.55
-39.37
-58.60
-75.18
-89.43
-102.02
-114.02
-126.35
-144.24
-169.84
-200.41
-230.45
-256.32
-276.87
-292.62
-305.29
-317.01
-336.64
-367.52
-404.88
-440.15
-467.88
-486.85
-498.17
-503.62
-504.76
-511.95
-529.29
-551.52
-569.06
-575.45
-568.05
-545.99
-509.47
-402.80
-220.32
-8.76
173.13
298.33
370.57
406.09
421.09
426.90
429.44
421.19
398.72
365.94
330.83
297.93
268.16
241.33
217.74
198.19
176.22
149.18
120.30
97.42
83.20
76.02
72.81
71.08
69.31
62.30
48.24
30.34
14.73
6.34
8.59
23.00
48.54
81.13
112.14
133.92
142.86
139.77
127.66
110.62
92.41
75.45
60.62
46.99
33.94
22.07
12.80
7.13
5.33
6.81
10.32
14.34
17.50
19.00
18.76
17.36
15.60
14.26
13.76
13.92
14.10
13.52
11.80
9.32
7.27
7.24
10.66
18.22
29.59
43.46
57.94
70.99
80.96
86.92
89.14
89.09
89.25
92.49
100.93
114.86
132.08
148.14
157.58
155.94
141.45
115.85
83.96
51.98
25.43
7.53
-1.52
-4.03
-3.49
-3.24
-5.50
-10.95
-18.92
-27.79
-35.56
-40.48
-41.56
-38.86
-33.37
-26.49
-19.50
-13.20
-8.05
-4.65
-4.05
-7.76
-17.22
-33.36
-56.16
-84.89
-118.47
-155.59
-194.53
-232.87
-267.46
-294.93
-312.70
-319.68
-316.45
-304.60
-285.95
-262.15
-234.86
-205.99
-177.42
-150.28
-124.22
-97.62
-68.81
-37.57
-5.95
22.46
44.39
58.82
67.45
73.53
79.92
87.40
94.46
98.29
96.15
86.12
67.04
38.29
0.23
-44.61
-90.96
-131.14
-157.04
-162.96
-147.72
-114.94
-71.42
-24.65
19.07
55.42
81.99
98.00
104.18
102.85
97.37
91.14
86.20
82.43
77.98
70.69
59.68
46.10
32.78
23.20
20.40
26.05
40.03
60.40
83.62
105.44
122.13
132.07
136.03
136.78
137.49
140.27
145.28
150.88
154.59
154.15
148.38
137.32
122.14
104.64
86.70
69.65
54.04
39.71
26.07
12.49
-1.56
-16.63
-33.07
-50.81
-68.80
-84.84
-96.16
-100.61
-97.94
-90.28
-81.35
-74.74
-72.31
-73.46
-75.79
-76.56
-74.10
-68.39
-60.65
-52.39
-44.64
-37.76
-31.88
-27.33
-24.87
-25.34
-29.12
-35.61
-43.36
-50.39
-55.09
-56.90
-56.52
-55.64
-56.12
-59.02
-64.03
-69.48
-73.02
-72.58
-67.14
-57.10
-43.82
-29.03
-14.12
0.05
13.06
24.54
33.98
40.69
44.01
43.58
39.54
32.47
23.32
13.18
3.10
-6.19
-14.40
-21.73
-28.71
-35.85
-43.26
-50.56
-56.94
-61.63
-64.30
-65.30
-65.55
-66.16
-67.93
-71.04
-74.88
-78.14
-79.11
-75.97
-67.25
-52.17
-31.00
-5.18
22.85
50.14
73.96
92.49
105.21
112.84
116.85
118.89
120.15
121.24
122.21
122.83
122.87
122.11
120.42
117.62
113.57
108.16
101.39
93.48
84.77
75.74
66.91
58.66
51.12
44.20
37.52
30.54
22.76
13.88
3.99
-6.41
-16.37
-24.58
-29.62
-30.24
-25.74
-16.33
-3.20
11.59
25.58
36.56
43.10
44.88
42.69
38.03
32.61
27.81
24.40
22.58
22.17
22.92
24.74
27.80
32.45
39.12
48.09
59.43
72.97
88.24
104.45
120.40
134.50
144.93
150.21
149.69
144.10
135.50
126.86
121.06
119.91
123.67
131.08
140.06
148.51
154.89
158.38
158.76
156.07
150.52
142.29
131.46
117.97
101.49
81.51
57.31
28.36
-5.31
-42.74
-81.92
-120.11
-154.54
-183.16
-205.24
-221.44
-233.46
-243.32
-252.61
-262.10
-271.55
-279.96
-285.86
-287.62
-283.84
-273.89
-258.36
-239.26
-219.64
-202.95
-192.13
-188.88
-193.17
-203.14
-215.19
-224.56
-226.09
-215.40
-189.96
-149.99
-98.65
-41.48
14.90
64.32
102.42
127.40
139.87
142.18
137.37
128.32
117.16
105.28
93.60
82.85
73.74
66.76
62.01
59.28
58.03
57.59
57.20
55.87
52.56
46.48
37.74
27.79
19.37
15.45
17.85
25.86
35.84
42.03
38.40
20.81
-11.33
-54.64
-102.68
-147.61
-182.22
-201.48
-203.41
-189.13
-162.19
-127.54
-90.40
-55.32
-25.57
-2.87
12.52
21.52
25.79
27.25
27.59
27.93
28.62
29.38
29.49
28.21
25.12
20.27
14.13
7.34
0.48
-6.02
-11.86
-16.81
-20.61
-22.94
-23.45
-21.86
-17.92
-11.55
-2.89
7.58
18.95
30.04
39.64
46.86
51.37
53.52
54.12
54.07
54.03
54.12
54.03
53.20
51.13
47.61
42.74
36.83
30.31
23.61
17.16
11.37
6.59
2.99
0.48
-1.22
-2.48
-3.48
-4.11
-4.10
-3.09
-0.89
2.57
7.27
13.21
20.33
28.42
37.02
45.32
52.42
57.58
60.43
61.04
59.78
57.06
53.23
48.55
43.25
37.68
32.27
27.55
23.89
21.48
20.21
19.80
19.91
20.26
20.66
20.88
20.58
19.33
16.80
13.00
8.50
4.41
2.11
2.81
7.11
14.71
24.55
35.10
44.79
52.44
57.37
59.41
58.75
55.78
50.95
44.77
37.85
30.86
24.44
19.13
15.15
12.43
10.64
9.44
8.59
8.02
7.81
8.01
8.54
9.13
9.41
9.07
7.93
6.05
3.69
1.21
-1.00
-2.62
-3.45
-3.48
-2.84
-1.81
-0.65
0.49
1.63
2.83
4.12
5.28
5.89
5.42
3.51
0.17
-4.15
-8.74
-12.84
-15.92
-17.81
-18.69
-18.93
-18.94
-18.97
-19.08
-19.25
-19.49
-19.92
-20.77
-22.22
-24.32
-26.92
-29.75
-32.55
-35.13
-37.36
-39.01
-39.70
-38.89
-36.00
-30.76
-23.32
-14.37
-4.92
3.95
11.37
16.79
20.05
21.21
20.54
18.33
14.98
10.93
6.60
2.37
-1.51
-4.95
-7.97
-10.60
-12.80
-14.48
-15.48
-15.78
-15.50
-14.99
-14.63
-14.83
-15.89
-17.91
-20.77
-24.01
-26.88
-28.38
-27.52
-23.62
-16.61
-7.14
3.55
13.96
22.77
29.09
32.55
33.22
31.43
27.62
22.35
16.27
10.04
4.24
-0.82
-5.14
-8.98
-12.64
-16.26
-19.72
-22.73
-25.04
-26.56
-27.60
-28.69
-30.50
-33.54
-37.99
-43.54
-49.43
-54.55
-57.56
-57.31
-53.13
-45.06
-33.89
-20.98
-7.88
4.01
13.64
20.46
24.33
25.45
24.26
21.38
17.54
13.50
9.85
6.96
4.91
3.51
2.48
1.55
0.57
-0.47
-1.48
-2.33
-3.05
-3.83
-5.10
-7.31
-10.78
-15.41
-20.51
-24.90
-27.18
-26.13
-21.14
-12.41
-0.93
11.83
24.22
34.82
42.62
47.14
48.40
46.80
43.03
37.89
32.23
26.77
22.07
18.38
15.72
13.87
12.47
11.23
9.93
8.50
7.01
5.52
4.04
2.42
0.36
-2.54
-6.54
-11.56
-16.96
-21.55
-23.83
-22.47
-16.87
-7.42
4.59
17.37
29.25
39.01
46.02
50.02
50.94
48.76
43.76
36.60
28.42
20.55
14.12
9.69
7.11
5.73
4.73
3.54
1.95
0.08
-1.83
-3.67
-5.52
-7.66
-10.44
-14.11
-18.68
-23.74
-28.53
-31.95
-32.86
-30.34
-24.05
-14.41
-2.57
9.83
21.02
29.51
34.39
35.59
33.62
29.32
23.64
17.46
11.51
6.22
1.75
-1.94
-4.87
-7.08
-8.69
-9.91
-11.01
-12.33
-14.19
-16.90
-20.66
-25.21
-30.16
-35.08
-39.43
-42.41
-43.03
-40.49
-34.64
-26.28
-16.26
-5.93
3.06
9.46
13.08
14.84
16.01
17.42
18.81
20.57
22.14
22.12
19.27
13.97
8.68
6.95
11.78
24.30
45.91
75.32
108.47
139.92
165.41
183.09
193.07
196.30
193.83
190.07
188.63
190.74
195.46
201.56
208.48
216.20
224.69
212.15
167.59
96.44
17.18
-53.02
-106.48
-143.48
-167.53
-182.57
-192.06
-195.01
-189.59
-176.61
-158.41
-137.58
-116.51
-97.46
-82.72
-74.51
-71.54
-71.70
-73.69
-79.20
-88.82
-102.13
-117.56
-130.72
-137.12
-133.39
-120.22
-101.90
-83.92
-69.84
-60.17
-52.69
-44.45
-34.04
-21.63
-8.83
2.59
11.41
17.67
22.35
26.68
31.06
34.61
35.91
34.21
29.96
24.71
20.50
18.15
18.22
20.33
22.97
23.68
20.44
12.08
-1.32
-18.55
-37.30
-54.43
-67.08
-73.74
-75.37
-73.98
-71.85
-70.10
-68.47
-65.38
-58.90
-47.87
-29.27
-4.46
21.93
44.79
62.14
74.34
82.53
87.63
90.37
91.41
90.78
88.19
82.00
71.22
53.39
27.58
-5.06
-41.24
-76.45
-106.79
-124.86
-128.71
-120.26
-103.60
-82.90
-61.74
-42.58
-26.82
-14.86
-5.52
2.85
12.73
26.01
43.18
62.30
80.94
96.40
106.77
111.76
111.97
109.36
106.26
104.37
103.03
100.88
97.07
91.74
86.11
81.45
79.18
80.18
83.77
85.47
80.94
70.00
55.05
39.67
26.32
16.57
11.72
12.97
18.36
27.42
41.67
61.89
84.94
102.67
106.17
90.12
53.92
-2.92
-76.14
-156.88
-235.02
-303.27
-359.31
-402.44
-431.00
-411.63
-329.50
-201.20
-65.42
44.35
114.55
147.74
152.36
144.44
133.67
118.37
93.91
58.22
13.20
-28.83
-59.99
-76.04
-77.79
-71.49
-68.59
-76.95
-96.40
-120.03
-139.56
-151.63
-157.45
-161.98
-169.89
-183.36
-198.70
-208.47
-206.47
-191.28
-166.63
-136.80
-105.85
-76.33
-50.64
-31.67
-22.62
-25.75
-39.56
-57.51
-56.92
-20.85
49.39
132.80
204.66
252.37
277.83
291.37
303.87
320.93
338.83
349.19
348.20
333.93
309.79
281.40
253.31
228.00
205.77
183.72
158.63
129.34
96.85
63.27
33.40
8.68
-11.79
-30.20
-49.68
-71.97
-96.11
-119.26
-137.95
-150.15
-156.68
-159.83
-162.42
-167.38
-176.66
-190.76
-208.71
-227.95
-244.89
-255.81
-257.08
-246.26
-223.26
-190.31
-151.07
-109.44
-68.37
-29.67
5.35
35.77
60.72
79.64
92.54
100.09
103.14
102.35
97.76
88.93
75.57
58.04
37.46
15.41
-6.57
-27.25
-45.93
-62.30
-76.44
-88.65
-99.37
-108.81
-116.62
-121.55
-121.64
-114.73
-99.40
-75.88
-46.41
-15.03
13.50
34.84
46.06
45.95
34.81
14.00
-14.24
-46.85
-79.91
-109.01
-130.10
-140.53
-139.66
-128.84
-110.49
-87.00
-59.95
-29.98
2.94
38.86
77.62
118.52
160.04
199.62
233.73
258.49
270.83
269.66
256.41
234.44
207.85
180.13
153.63
129.34
107.06
85.24
60.85
30.02
-10.42
-60.97
-118.27
-175.65
-225.82
-263.87
-288.90
-303.49
-311.24
-314.16
-311.72
-301.93
-283.49
-257.45
-227.23
-196.97
-169.58
-145.77
-124.47
-104.16
-84.32
-65.93
-51.00
-41.42
-37.89
-39.48
-44.01
-48.76
-51.27
-49.79
-43.46
-32.25
-16.94
0.88
19.02
35.34
48.46
58.41
66.55
74.71
84.14
94.75
105.32
114.32
120.98
126.12
131.02
136.12
140.28
141.13
136.16
124.09
105.75
83.90
62.50
44.79
32.15
24.09
19.02
15.22
11.34
6.92
2.33
-0.24
1.59
9.70
25.19
48.35
78.10
111.38
143.50
168.72
184.36
188.73
181.22
162.98
137.75
110.69
86.16
67.33
55.47
55.87
71.09
99.27
135.70
176.14
217.71
257.44
293.43
323.74
355.26
392.03
431.63
467.12
492.60
505.40
504.51
492.89
474.85
465.96
475.79
502.05
533.54
559.26
573.36
573.95
565.25
485.42
316.44
92.95
-125.85
-302.36
-429.51
-507.62
-557.24
-588.91
-607.66
-606.44
-583.54
-545.84
-505.79
-472.72
-449.87
-436.86
-429.05
-421.49
-402.78
-367.91
-321.27
-272.91
-230.85
-198.38
-175.16
-157.08
-138.92
-111.86
-72.33
-23.93
25.63
70.11
106.45
134.54
146.32
137.15
111.44
78.22
44.63
13.49
-11.20
-31.75
-49.31
-64.14
-75.63
-83.24
-87.66
-90.72
-94.06
-97.87
-101.76
-104.72
-106.60
-107.36
-107.84
-109.39
-113.35
-120.22
-129.62
-141.25
-154.30
-168.19
-181.35
-191.71
-197.14
-195.95
-187.10
-170.18
-145.75
-114.65
-78.65
-40.22
-2.80
29.76
54.46
70.51
79.92
86.49
94.26
105.26
118.66
131.26
139.37
140.78
135.88
127.31
118.32
111.27
106.59
102.81
97.20
86.54
67.74
38.61
-1.02
-48.17
-96.23
-135.96
-158.20
-157.29
-133.64
-93.83
-48.15
-6.51
24.93
45.01
56.31
62.63
66.71
69.36
70.33
69.61
68.16
67.52
68.69
71.23
73.25
72.35
66.96
57.35
45.52
34.22
25.67
20.61
18.26
17.13
15.39
11.40
3.88
-7.78
-23.27
-41.07
-58.43
-71.82
-77.46
-73.25
-59.66
-39.31
-15.42
9.57
34.45
58.84
82.41
105.32
126.48
143.59
154.46
158.51
157.19
153.06
148.49
144.94
144.60
147.85
153.10
157.83
160.35
160.53
159.14
157.01
154.71
154.87
158.62
164.72
170.23
172.29
168.94
158.73
140.54
99.05
31.42
-50.28
-126.12
-181.94
-214.61
-228.43
-229.95
-224.92
-217.05
-205.73
-190.51
-172.86
-155.79
-141.83
-131.74
-124.88
-120.05
-116.02
-110.09
-100.97
-89.45
-77.70
-67.47
-59.31
-52.81
-47.34
-42.44
-36.83
-30.23
-23.67
-19.09
-17.26
-17.67
-18.69
-18.29
-15.02
-7.86
2.72
14.97
26.62
36.07
42.77
47.07
49.61
50.66
50.34
48.44
44.93
40.34
35.83
32.84
32.53
35.44
40.99
47.89
54.48
59.46
62.19
62.67
61.12
57.54
53.31
48.88
44.31
39.11
33.01
26.28
19.67
14.21
10.84
10.14
11.74
14.68
16.98
17.50
16.30
13.94
10.72
6.43
0.63
-7.36
-17.90
-32.44
-50.70
-70.84
-90.90
-109.86
-127.51
-143.60
-157.84
-169.80
-181.63
-193.85
-205.24
-214.73
-222.65
-230.09
-237.64
-245.18
-251.98
-260.12
-268.79
-274.10
-271.51
-258.15
-232.98
-196.30
-149.82
-77.88
13.05
100.65
165.26
202.28
217.66
219.80
215.44
208.77
201.65
191.82
179.05
165.77
154.74
146.84
141.43
137.50
134.16
130.53
124.31
115.95
108.35
103.99
102.05
98.27
86.97
63.82
27.95
-17.90
-66.65
-108.92
-137.08
-148.46
-145.54
-133.41
-115.10
-96.10
-79.16
-64.33
-51.12
-39.55
-30.64
-25.10
-21.70
-16.95
-6.82
12.02
39.69
71.60
100.93
120.98
128.29
124.34
114.09
102.11
88.34
72.60
50.03
19.20
-15.56
-45.29
-60.49
-56.49
-37.06
-12.65
4.52
6.44
-5.85
-23.76
-36.57
-37.01
-24.56
-4.76
15.19
31.06
43.15
55.63
72.31
90.19
102.51
101.89
85.16
56.57
26.69
7.17
5.08
18.84
38.99
51.33
45.47
21.25
-12.04
-43.75
-68.34
-85.19
-95.53
-99.98
-99.81
-94.21
-83.97
-72.74
-65.22
-64.21
-68.88
-75.38
-79.35
-76.21
-63.75
-42.60
-16.50
8.97
28.37
38.32
38.47
32.02
25.81
28.69
47.69
83.33
128.85
173.28
206.49
222.98
223.16
212.13
195.75
176.90
153.28
120.29
75.58
21.56
-36.28
-92.46
-143.52
-189.01
-223.06
-238.99
-234.48
-213.53
-182.26
-146.11
-109.34
-74.94
-45.25
-22.10
-7.66
-2.96
-6.44
-12.30
-14.79
-9.62
5.84
31.13
62.67
93.33
115.22
125.40
126.28
123.21
114.36
95.33
62.07
13.66
-46.25
-109.90
-167.91
-203.75
-207.05
-178.86
-129.20
-71.91
-19.20
21.18
46.42
57.80
59.40
54.74
46.19
35.68
24.24
11.87
-1.71
-16.31
-30.46
-41.49
-47.06
-45.31
-34.82
-14.60
10.86
34.97
52.02
59.58
59.01
53.41
45.86
38.21
30.78
22.93
14.88
7.88
3.74
3.58
6.71
11.00
14.05
13.97
10.27
4.27
-1.72
-5.63
-6.59
-5.52
-4.64
-6.35
-11.87
-21.07
-31.90
-41.45
-47.32
-48.56
-45.82
-40.74
-35.04
-29.92
-25.74
-22.47
-20.20
-19.36
-20.45
-23.65
-28.53
-34.20
-39.77
-44.46
-48.17
-51.24
-53.96
-56.21
-57.37
-56.65
-53.62
-48.67
-42.55
-36.53
-31.77
-28.76
-27.12
-25.69
-22.92
-17.12
-9.78
-1.59
6.57
13.76
19.24
22.56
23.62
22.63
19.95
16.00
11.55
7.13
3.04
-0.58
-3.76
-6.53
-8.90
-10.79
-11.94
-11.68
-9.41
-4.67
2.65
12.16
22.84
33.24
41.69
46.85
48.40
46.97
43.95
40.93
38.94
37.98
37.20
35.48
32.16
27.58
22.68
18.44
15.22
12.64
10.02
6.97
3.87
1.66
1.28
2.94
5.94
8.90
10.40
9.52
6.06
0.44
-6.39
-13.11
-18.09
-19.50
-15.85
-6.57
7.46
23.86
39.33
50.73
56.16
55.58
50.73
44.35
39.03
36.25
36.00
36.88
36.68
33.23
25.22
12.75
-2.53
-17.79
-29.85
-36.22
-35.98
-30.08
-20.82
-10.91
-2.52
3.40
7.04
9.34
11.37
14.01
17.87
23.45
31.12
41.01
52.80
65.60
78.09
88.96
97.40
103.34
107.31
109.96
111.65
112.24
111.22
107.97
101.93
92.70
80.17
64.84
47.97
31.32
16.42
3.46
-9.14
-24.04
-43.17
-65.86
-88.15
-104.01
-107.94
-97.51
-74.33
-43.20
-9.81
21.27
47.36
67.36
80.81
87.56
87.92
83.11
75.15
66.07
56.86
46.92
34.40
17.36
-5.02
-31.88
-60.84
-88.77
-112.52
-129.65
-138.79
-139.82
-133.90
-123.07
-109.73
-95.89
-82.84
-71.05
-60.62
-51.61
-44.19
-38.42
-33.89
-29.60
-24.28
-16.92
-7.14
4.78
18.34
33.25
49.53
67.26
86.05
104.63
120.97
132.83
138.64
138.08
132.24
123.12
112.97
103.59
96.01
90.56
87.18
85.68
85.90
87.71
90.90
95.15
100.04
105.12
110.12
115.06
120.37
126.86
135.44
146.77
160.72
176.34
192.13
206.62
218.90
228.72
236.12
240.86
242.07
238.33
228.30
211.30
187.60
158.21
124.28
86.76
46.38
4.18
-38.03
-77.59
-111.62
-137.94
-155.94
-166.76
-172.78
-176.60
-180.02
-183.55
-186.58
-188.03
-186.97
-182.92
-175.77
-165.68
-153.11
-138.98
-124.71
-112.03
-102.62
-97.60
-97.16
-100.45
-105.93
-111.71
-116.12
-117.97
-116.87
-113.19
-108.06
-102.87
-98.68
-95.65
-92.87
-88.90
-82.45
-73.20
-62.44
-53.15
-49.21
-53.90
-68.35
-90.49
-115.29
-135.98
-145.93
-140.20
-116.50
-75.39
-20.17
43.40
107.49
163.08
201.51
216.26
204.69
168.69
114.21
50.05
-14.23
-70.19
-112.42
-139.32
-153.38
-159.60
-163.45
-168.46
-174.57
-177.91
-172.30
-152.15
-115.41
-65.29
-9.86
40.37
75.79
90.49
83.35
57.42
18.10
-28.53
-76.44
-119.53
-151.74
-168.00
-165.95
-147.64
-119.17
-88.74
-63.80
-48.47
-42.84
-43.92
-47.68
-50.75
-51.55
-50.39
-48.92
-49.54
-54.50
-64.93
-79.99
-96.82
-111.28
-119.52
-119.63
-112.41
-100.98
-89.29
-80.35
-75.34
-73.65
-73.73
-74.09
-73.74
-72.05
-68.39
-62.14
-53.12
-42.03
-30.50
-20.42
-13.03
-8.32
-5.15
-1.98
2.25
7.64
13.48
18.87
23.34
26.95
30.17
33.38
36.73
39.88
42.59
44.82
46.62
47.64
46.99
43.67
37.14
27.82
16.74
5.39
-4.87
-13.27
-19.71
-24.53
-27.99
-29.84
-29.32
-26.09
-19.86
-10.41
2.25
17.58
34.51
51.88
68.97
85.70
100.85
113.64
124.36
134.10
143.87
154.05
164.80
176.37
189.07
199.52
204.75
204.39
200.90
197.49
196.13
196.98
198.41
197.51
185.57
156.12
109.18
51.27
-9.10
-65.62
-115.38
-158.19
-195.47
-236.04
-286.35
-346.22
-409.34
-468.96
-521.89
-568.34
-609.69
-603.28
-525.25
-386.41
-226.13
-80.51
34.90
119.97
180.22
222.35
252.69
269.51
271.87
263.40
251.66
243.36
240.87
242.43
245.54
248.23
244.09
228.91
204.02
176.31
153.79
141.65
139.58
144.12
150.34
149.81
137.36
113.77
84.92
57.40
34.79
15.03
-5.89
-25.97
-45.07
-62.26
-76.32
-86.88
-95.41
-93.02
-76.98
-49.83
-16.94
17.31
51.30
84.45
115.98
144.58
168.84
185.36
193.29
192.98
186.50
177.74
171.17
170.59
177.86
191.93
207.65
221.32
228.29
225.41
211.86
188.92
159.47
127.12
95.48
66.25
40.32
17.31
-3.95
-25.25
-48.06
-72.70
-97.86
-121.48
-142.51
-160.48
-175.28
-186.12
-191.49
-189.88
-181.08
-166.85
-150.79
-137.72
-130.62
-129.39
-130.86
-131.14
-127.71
-120.78
-112.55
-105.70
-103.70
-107.42
-114.44
-120.70
-123.27
-121.13
-115.82
-109.33
-103.21
-101.95
-107.53
-117.74
-128.02
-135.25
-137.99
-137.77
-135.80
-132.61
-134.10
-143.16
-156.92
-168.76
-173.94
-170.18
-159.99
-146.10
-130.99
-124.96
-135.17
-161.24
-196.08
-232.62
-265.17
-293.81
-318.91
-291.83
-195.56
-60.10
65.46
156.89
206.46
237.04
259.16
275.21
283.57
276.41
247.48
197.23
134.90
71.68
18.30
-19.99
-38.63
-34.76
-15.18
25.30
77.17
122.85
150.35
161.48
161.99
157.60
151.09
139.02
118.87
90.86
61.99
40.01
29.44
28.07
31.95
37.60
41.65
43.57
44.66
50.97
68.06
97.61
135.18
173.21
204.11
222.40
227.74
215.39
190.40
161.53
136.74
119.62
109.46
102.77
95.51
84.70
68.24
46.90
21.85
-5.78
-34.26
-60.43
-79.87
-88.16
-82.98
-65.64
-39.19
-8.30
22.20
48.24
66.74
75.50
73.64
62.41
45.79
30.77
24.57
31.96
53.04
82.83
113.07
135.28
143.79
137.33
118.87
93.19
64.57
35.61
7.42
-19.19
-42.65
-60.84
-72.22
-77.10
-77.96
-78.29
-80.86
-86.56
-94.43
-102.70
-109.90
-115.28
-118.32
-118.43
-115.08
-108.59
-100.58
-93.53
-89.23
-87.27
-84.83
-78.15
-65.00
-46.31
-25.95
-8.65
2.48
7.06
6.85
3.89
-1.12
-9.06
-21.34
-38.32
-58.48
-78.74
-95.82
-107.48
-113.17
-113.73
-110.60
-104.96
-97.33
-87.67
-75.81
-62.03
-47.37
-33.44
-21.79
-13.06
-6.38
0.54
10.40
25.09
44.60
66.79
88.25
105.62
116.82
121.41
120.11
114.15
104.64
92.62
79.46
66.99
57.22
51.67
50.63
53.14
57.54
62.34
66.87
71.25
75.96
81.19
86.74
92.43
98.68
106.74
118.13
133.84
153.54
175.65
197.84
218.01
234.80
247.51
255.59
258.11
253.75
241.37
220.81
193.40
161.88
129.87
101.01
78.36
63.70
57.17
57.08
60.34
63.30
62.88
57.66
48.09
36.11
24.03
13.41
4.49
-3.58
-12.03
-21.66
-32.47
-43.98
-55.67
-67.50
-79.91
-93.65
-109.29
-126.99
-146.59
-167.95
-191.07
-215.89
-241.71
-266.49
-287.11
-300.22
-303.81
-298.29
-286.40
-272.02
-258.39
-246.97
-237.54
-229.11
-221.01
-213.18
-205.76
-198.42
-190.16
-179.70
-166.33
-150.43
-133.31
-116.72
-102.01
-89.85
-80.15
-72.37
-65.86
-60.00
-54.45
-49.09
-43.88
-38.91
-34.24
-29.91
-26.09
-22.98
-20.74
-19.42
-18.87
-18.87
-19.37
-20.52
-22.48
-25.10
-27.97
-30.44
-32.16
-33.23
-33.95
-34.40
-33.94
-31.34
-25.41
-15.67
-2.61
12.45
27.95
42.66
55.85
67.14
76.25
82.78
86.36
86.61
83.47
77.21
68.53
58.52
48.40
39.13
31.12
24.07
17.34
10.37
3.22
-3.35
-8.26
-10.72
-10.68
-9.06
-7.12
-5.92
-5.78
-6.19
-6.24
-5.30
-3.37
-1.15
0.26
-0.04
-2.49
-7.03
-13.28
-20.88
-29.57
-38.98
-48.59
-57.75
-65.99
-73.41
-80.58
-88.13
-96.17
-104.02
-110.34
-113.90
-114.20
-111.46
-106.17
-98.45
-87.68
-73.17
-55.03
-34.75
-14.94
1.84
14.35
23.02
29.34
34.59
38.91
41.51
41.67
39.58
36.59
34.52
34.59
36.65
39.37
41.10
40.72
38.40
35.42
33.58
34.31
37.77
42.67
46.97
48.85
48.07
46.21
45.87
49.29
56.98
67.32
77.45
84.75
88.15
88.46
87.43
86.45
85.66
83.94
79.70
71.96
60.99
48.14
35.25
23.77
14.09
5.75
-2.11
-10.03
-17.70
-24.14
-28.40
-30.12
-29.62
-27.53
-24.01
-18.67
-10.90
-0.58
11.34
23.00
32.50
38.77
42.25
44.53
47.36
51.78
57.66
64.09
70.08
75.14
79.13
81.91
83.01
81.83
78.13
72.59
66.68
62.02
59.55
58.94
58.93
57.94
54.80
49.21
41.46
32.15
21.85
11.07
0.35
-9.77
-18.83
-26.73
-33.73
-40.34
-46.92
-53.67
-60.43
-67.07
-73.65
-80.33
-87.26
-94.42
-101.70
-108.99
-116.16
-122.85
-128.45
-131.91
-131.75
-126.64
-115.63
-98.48
-75.80
-49.04
-20.07
9.23
37.25
62.84
85.28
104.13
119.08
129.99
137.20
141.85
145.85
151.20
158.96
168.41
177.25
182.90
183.99
181.40
177.92
176.61
178.90
183.71
188.03
188.84
184.63
176.07
165.43
155.03
146.12
138.76
132.33
126.11
119.50
111.64
101.11
86.12
65.58
40.03
11.85
-15.52
-39.19
-57.83
-72.08
-83.67
-94.53
-105.65
-117.13
-128.49
-138.78
-146.33
-148.38
-141.24
-121.75
-89.54
-48.83
-8.33
21.31
31.21
17.44
-18.18
-69.95
-131.58
-198.80
-269.42
-341.28
-409.75
-466.89
-503.52
-512.94
-494.28
-453.55
-401.48
-349.36
-305.16
-271.38
-245.30
-221.53
-194.97
-163.05
-126.14
-86.42
-46.11
-6.19
33.57
73.57
113.35
150.95
183.79
210.24
230.07
244.39
254.36
260.30
261.41
256.70
246.51
232.72
218.27
205.68
195.88
188.23
181.39
174.25
166.28
157.58
148.32
138.64
128.68
119.04
110.91
105.73
104.68
107.75
113.54
119.36
122.12
119.63
111.76
100.29
87.93
77.14
68.98
63.04
58.28
54.21
51.03
48.87
46.92
43.06
34.94
21.66
4.89
-11.77
-24.90
-33.52
-39.49
-46.03
-54.98
-65.08
-72.86
-75.23
-72.00
-66.38
-62.84
-64.05
-69.08
-74.14
-75.44
-71.77
-65.17
-59.05
-55.68
-54.73
-54.12
-52.46
-50.78
-52.68
-62.15
-81.25
-109.01
-142.19
-177.50
-213.28
-249.87
-288.40
-328.84
-368.87
-403.92
-428.58
-438.36
-431.20
-407.77
-370.69
-323.36
-269.09
-210.58
-150.08
-90.02
-33.15
17.33
58.75
89.82
111.35
125.96
136.95
146.77
155.98
163.33
166.73
164.97
158.58
149.80
141.56
135.96
133.53
133.46
134.31
134.73
134.01
131.62
127.10
120.17
110.87
99.64
87.13
74.20
61.59
50.10
40.65
34.08
31.17
32.48
38.18
47.88
60.62
74.75
88.21
98.85
105.42
107.77
107.22
105.76
104.69
103.96
102.76
100.73
98.62
97.92
98.97
100.30
99.34
93.81
83.38
70.30
58.47
51.22
49.71
52.18
56.52
62.22
70.47
82.37
97.43
113.07
125.43
131.09
126.49
111.95
91.88
71.39
53.19
37.13
21.82
6.32
-9.02
-27.63
-50.46
-74.49
-95.99
-113.67
-127.97
-139.29
-147.38
-151.89
-160.76
-178.63
-202.93
-227.67
-249.29
-267.02
-281.22
-292.27
-300.38
-315.52
-342.24
-375.17
-405.39
-428.60
-445.83
-460.60
-476.59
-434.19
-317.89
-167.21
-33.90
61.82
125.56
169.55
203.09
231.09
255.16
265.78
259.13
241.61
223.60
210.49
202.12
195.97
190.20
184.79
173.82
156.02
136.61
122.03
113.95
110.03
107.20
103.93
100.45
93.34
81.69
68.21
56.81
48.99
44.41
42.42
42.72
44.89
45.53
42.03
34.33
24.80
16.35
11.31
10.73
13.58
17.19
17.51
12.34
2.55
-8.46
-17.18
-21.45
-21.23
-18.05
-14.07
-11.02
-9.61
-9.59
-10.11
-10.81
-11.92
-14.44
-19.54
-27.46
-36.85
-44.98
-49.61
-50.28
-48.88
-47.48
-47.00
-46.33
-43.00
-35.09
-23.02
-9.55
1.92
9.50
13.96
17.76
23.16
30.56
38.44
44.80
48.61
50.63
52.32
54.58
56.89
58.01
57.30
55.10
52.61
50.82
49.74
48.30
45.49
40.99
35.50
30.33
26.11
22.44
18.28
13.05
7.33
2.85
1.30
3.03
6.74
10.21
11.89
12.01
12.61
16.23
24.31
35.99
48.38
57.82
61.36
57.93
48.52
35.50
21.69
9.48
0.23
-5.70
-8.68
-9.45
-8.65
-6.57
-3.40
0.60
5.08
8.97
10.97
10.09
6.15
-0.27
-8.11
-16.60
-25.51
-35.03
-45.24
-55.52
-64.59
-71.09
-74.19
-73.81
-70.51
-64.98
-57.89
-50.09
-42.69
-37.07
-34.32
-34.66
-37.24
-40.62
-43.65
-46.33
-49.97
-56.42
-67.27
-83.08
-103.28
-126.44
-150.76
-174.42
-195.63
-212.61
-223.59
-227.37
-223.85
-214.02
-199.64
-182.36
-162.73
-140.13
-113.52
-82.65
-49.14
-16.38
11.84
32.97
46.89
55.96
63.90
74.10
88.27
105.98
125.19
143.51
159.24
171.99
182.41
191.33
198.97
204.70
207.51
206.54
201.53
192.79
181.06
167.10
151.44
134.89
118.62
104.05
92.54
84.75
80.15
77.28
74.10
68.67
59.56
46.36
29.76
11.63
-5.50
-19.17
-27.64
-30.25
-27.36
-20.28
-11.19
-3.03
1.14
-1.00
-9.80
-23.19
-37.23
-47.69
-51.89
-49.62
-42.75
-33.88
-24.98
-16.76
-8.99
-1.30
6.54
14.83
24.31
36.06
50.72
67.57
84.40
98.29
107.09
110.61
110.64
109.73
109.64
110.52
111.18
110.17
106.86
101.73
95.72
89.33
82.16
73.34
62.38
49.84
37.27
26.41
18.25
12.44
7.68
2.51
-3.75
-10.65
-16.98
-21.56
-23.96
-24.62
-24.49
-24.51
-25.11
-26.15
-27.34
-28.53
-29.85
-31.53
-33.75
-36.56
-40.05
-44.44
-49.97
-56.66
-64.06
-71.19
-76.97
-80.58
-81.79
-80.94
-78.73
-75.95
-73.33
-71.43
-70.50
-70.35
-70.34
-69.49
-67.04
-62.77
-57.14
-50.86
-44.42
-37.86
-30.92
-23.62
-16.59
-10.97
-7.85
-7.50
-9.09
-11.05
-11.77
-10.57
-7.98
-5.32
-3.90
-4.11
-5.24
-5.82
-4.68
-1.47
3.04
7.60
11.27
13.65
14.99
15.83
16.47
17.20
18.49
20.74
23.87
26.85
27.87
25.28
18.88
10.63
4.02
2.26
6.43
14.81
23.87
30.41
33.23
33.49
33.25
33.66
33.87
31.40
23.83
10.70
-6.13
-23.43
-38.48
-50.01
-58.08
-63.75
-68.10
-71.98
-76.58
-83.87
-95.71
-112.71
-133.07
-152.60
-166.69
-172.88
-172.51
-170.33
-172.36
-183.40
-205.05
-235.85
-271.64
-306.76
-334.81
-349.56
-346.24
-322.61
-279.88
-223.46
-162.40
-107.35
-67.68
-48.67
-49.92
-65.65
-86.99
-105.33
-115.32
-116.42
-111.81
-106.25
-103.28
-104.00
-107.57
-112.62
-118.48
-125.33
-133.36
-141.89
-149.05
-152.67
-150.95
-143.70
-132.16
-118.59
-105.09
-92.70
-81.27
-69.68
-56.61
-40.97
-23.87
-7.11
7.01
16.57
20.79
20.33
16.91
12.70
10.09
9.90
12.60
17.80
24.23
29.95
32.75
30.96
24.18
14.84
4.63
-3.29
-6.66
-4.97
0.52
7.81
15.08
21.47
29.89
37.81
45.61
53.27
60.48
67.10
73.47
80.26
88.25
103.70
120.20
137.15
153.76
169.37
183.79
197.31
210.52
223.99
247.36
270.46
292.93
314.31
334.29
352.83
370.12
386.34
401.40
426.96
449.15
467.08
480.06
487.83
490.57
488.87
483.39
398.17
329.05
261.50
195.52
131.55
70.62
14.14
-36.45
-80.21
-116.98
-135.29
-149.32
-160.17
-168.47
-174.27
-177.09
-176.08
-170.17
-158.29
-130.50
-97.35
-61.13
-25.95
3.11
21.65
27.71
22.63
10.49
2.26
-4.27
-7.33
-7.50
-6.73
-6.96
-9.03
-12.54
-16.18
-15.60
-12.84
-7.57
-0.15
8.59
17.65
26.31
34.24
41.43
49.24
56.92
64.91
73.63
83.46
94.49
106.46
118.65
129.98
139.24
145.17
146.72
143.19
134.62
122.27
108.55
96.54
88.85
86.55
88.74
93.19
97.49
100.19
100.89
99.27
94.23
83.98
67.42
45.55
21.80
0.13
-18.04
-35.69
-59.75
-97.39
-151.44
-217.50
-284.61
-339.08
-369.70
-371.41
-346.47
-302.81
-250.93
-200.94
-160.50
-133.77
-121.39
-121.01
-128.48
-139.04
-148.26
-152.37
-148.43
-134.56
-110.34
-77.66
-41.03
-6.71
19.13
32.54
33.34
24.93
12.68
1.83
-4.39
-5.29
-2.12
2.94
7.74
10.47
9.84
5.18
-3.21
-14.02
-25.12
-34.28
-39.95
-41.73
-40.09
-35.74
-29.09
-20.22
-9.36
2.62
14.19
23.66
29.87
32.64
32.77
31.65
30.91
32.07
36.37
44.52
56.43
71.21
87.26
102.80
116.30
126.86
134.20
138.43
139.76
138.42
134.77
129.46
123.47
117.84
113.55
111.16
110.86
112.42
115.24
118.36
120.65
121.09
119.08
114.72
108.62
101.50
93.82
85.74
77.41
69.46
63.15
60.04
61.38
67.35
76.85
87.76
97.65
104.47
106.82
103.94
95.38
80.80
60.02
33.51
2.89
-28.81
-57.55
-79.28
-91.22
-92.94
-86.40
-75.14
-62.68
-51.23
-41.21
-31.81
-22.16
-12.32
-3.27
3.82
8.61
11.88
15.12
19.36
24.43
28.88
30.79
28.85
23.07
14.84
6.29
-0.67
-5.04
-6.90
-7.13
-6.90
-7.18
-8.51
-11.11
-14.98
-20.15
-26.74
-34.65
-42.98
-49.61
-51.48
-45.67
-30.95
-8.90
16.19
38.79
54.29
60.62
58.51
50.48
39.26
26.66
13.45
-0.03
-13.20
-25.16
-35.16
-43.07
-49.38
-54.63
-58.62
-60.12
-57.34
-48.83
-34.48
-15.94
3.67
20.55
31.34
34.01
28.47
16.68
2.31
-10.25
-17.11
-16.13
-7.74
5.07
17.73
25.69
26.07
18.72
6.05
-8.10
-20.24
-28.57
-33.50
-36.93
-40.81
-45.87
-51.17
-54.70
-54.67
-50.79
-44.57
-38.51
-34.63
-33.16
-32.35
-29.65
-23.47
-14.40
-5.16
0.76
0.93
-4.89
-14.97
-26.81
-38.73
-50.71
-63.97
-79.77
-98.19
-117.60
-135.16
-147.89
-153.66
-151.75
-142.71
-127.94
-109.17
-88.28
-67.37
-48.80
-34.93
-27.35
-25.90
-28.01
-28.90
-22.85
-5.06
26.50
70.25
121.55
174.41
223.65
266.43
302.40
332.62
357.96
377.90
390.50
393.54
386.06
369.22
346.04
320.16
294.45
270.35
248.47
229.53
214.97
206.60
205.30
209.82
216.53
220.39
216.94
204.04
182.52
155.61
127.41
101.34
79.26
61.42
47.12
35.27
24.90
15.27
5.77
-4.15
-14.90
-26.73
-39.65
-53.56
-68.32
-83.79
-100.01
-117.07
-135.20
-154.47
-174.82
-195.87
-217.01
-237.61
-257.47
-277.34
-298.82
-323.43
-351.58
-381.29
-407.94
-425.37
-427.70
-411.09
-374.81
-321.27
-255.56
-185.06
-118.93
-67.14
-38.64
-39.11
-69.05
-123.41
-192.88
-266.48
-334.24
-388.81
-426.03
-444.63
-445.91
-433.00
-410.53
-383.45
-355.95
-330.61
-308.16
-288.09
-269.63
-252.01
-234.57
-216.28
-195.48
-170.04
-137.85
-97.60
-49.64
3.35
56.56
103.80
139.23
159.15
163.21
154.38
137.69
118.26
99.86
84.24
71.53
61.24
53.08
47.29
44.36
44.81
48.83
56.29
66.71
79.21
92.34
104.27
113.07
117.17
115.83
109.21
98.41
85.24
72.07
61.69
56.87
59.54
69.91
86.00
103.79
118.55
126.36
125.57
117.47
105.66
94.73
88.48
88.55
93.62
99.92
101.74
92.90
68.75
27.75
-27.43
-90.10
-151.01
-200.93
-232.42
-241.90
-229.92
-199.83
-156.50
-104.66
-48.78
6.89
57.86
100.74
132.48
149.89
152.15
142.25
126.88
112.83
106.60
106.97
109.71
109.84
103.14
87.33
60.63
25.84
-10.13
-38.38
-51.68
-46.91
-27.46
-2.17
18.97
29.52
30.73
30.42
37.72
58.21
92.43
136.88
186.92
239.10
284.31
312.12
312.65
278.56
207.99
106.08
-15.50
-140.37
-250.73
-331.43
-376.76
-386.64
-368.09
-334.55
-302.48
-285.51
-289.25
-309.03
-332.55
-344.98
-332.31
-291.41
-229.90
-160.90
-95.72
-39.44
9.01
53.05
94.71
133.51
166.40
190.92
207.56
220.18
233.03
247.49
261.16
269.31
268.55
258.16
240.90
221.82
207.19
201.32
205.25
216.71
231.36
245.33
255.74
261.39
261.92
258.45
251.22
239.26
220.73
194.05
159.85
119.41
72.89
12.18
-66.98
-162.89
-265.19
-357.07
-426.97
-468.18
-480.57
-466.73
-434.40
-391.47
-343.86
-294.31
-243.67
-192.79
-142.82
-96.10
-55.65
-24.49
-3.23
9.18
14.67
15.15
12.05
6.70
-1.00
-12.95
-32.69
-62.30
-100.48
-141.12
-174.51
-190.59
-182.81
-151.47
-103.91
-51.67
-5.34
28.97
50.73
63.22
70.33
74.36
75.37
72.59
66.23
58.77
54.19
55.97
64.91
78.26
90.56
96.26
92.42
80.31
65.03
53.37
50.86
59.59
77.54
99.74
120.32
134.55
139.88
136.00
124.21
106.59
85.40
62.77
40.50
19.99
2.31
-11.71
-21.36
-26.07
-25.61
-20.39
-11.36
0.19
13.13
26.86
41.28
56.44
72.09
87.29
100.53
110.10
114.67
113.80
108.22
99.80
91.11
84.66
82.08
83.55
87.77
92.65
96.29
97.77
97.38
96.09
94.92
94.28
94.05
94.00
94.17
95.05
97.12
100.34
103.74
105.67
104.34
98.62
88.47
74.89
59.56
44.22
30.08
17.57
6.34
-4.49
-15.78
-27.86
-40.31
-52.13
-62.20
-69.89
-75.30
-79.09
-81.99
-84.36
-86.15
-87.20
-87.69
-88.27
-89.67
-92.21
-95.55
-98.79
-101.22
-102.90
-104.57
-107.16
-111.04
-115.73
-120.08
-123.10
-124.45
-124.60
-124.39
-124.29
-124.10
-123.19
-120.89
-116.87
-111.30
-104.33
-95.87
-85.69
-73.13
-57.93
-40.75
-23.14
-7.12
5.19
12.90
16.20
16.04
14.54
13.77
14.93
18.09
22.42
26.07
28.27
28.94
28.40
28.47
30.97
36.78
45.71
56.82
68.23
79.88
92.41
106.19
122.65
142.66
165.83
190.82
216.12
239.50
261.18
282.15
291.79
282.12
250.30
200.21
140.04
86.45
40.14
-1.90
-41.95
-79.94
-114.01
-139.26
-151.85
-151.12
-140.60
-126.84
-114.73
-106.83
-103.00
-100.00
-94.45
-85.33
-74.09
-63.32
-55.93
-51.84
-49.37
-46.78
-42.63
-36.82
-30.98
-27.60
-28.70
-35.44
-46.22
-57.87
-67.06
-71.12
-68.89
-61.16
-50.02
-38.00
-27.61
-20.23
-16.50
-16.49
-19.70
-25.03
-30.89
-35.37
-36.84
-34.62
-28.95
-21.04
-12.29
-3.58
5.15
14.67
25.68
37.99
50.26
60.73
67.34
69.11
66.38
60.46
52.99
45.24
37.87
31.03
24.78
19.18
14.49
10.79
8.03
5.93
4.21
2.67
1.21
-0.06
-1.04
-1.40
-0.86
0.94
4.33
9.23
14.90
20.21
24.31
27.18
29.93
33.70
39.36
46.87
55.23
63.04
69.37
74.21
78.16
81.76
84.05
83.33
77.83
66.60
49.96
29.20
5.59
-20.68
-46.06
-68.77
-87.39
-100.50
-106.99
-106.84
-101.48
-93.71
-86.60
-82.35
-82.14
-85.39
-90.35
-95.24
-98.91
-100.96
-101.36
-99.82
-95.57
-88.04
-76.41
-59.96
-38.72
-13.98
11.67
34.61
51.34
59.10
56.31
43.37
22.74
-2.48
-29.75
-57.53
-85.43
-112.96
-139.73
-165.66
-190.49
-213.13
-232.61
-248.41
-260.06
-267.16
-268.02
-260.77
-244.10
-217.13
-178.62
-128.52
-68.86
-3.54
62.01
123.55
177.84
220.60
244.48
246.74
232.25
210.07
192.57
180.86
173.27
167.43
161.26
150.95
136.12
117.92
98.03
78.22
59.39
42.85
28.90
16.63
4.90
-6.03
-15.37
-22.39
-26.79
-29.20
-29.94
-29.68
-29.39
-29.85
-30.71
-31.52
-32.27
-33.37
-35.64
-39.03
-43.00
-46.80
-49.70
-50.96
-50.53
-48.95
-47.08
-45.75
-45.18
-45.25
-45.77
-46.47
-46.88
-46.54
-45.09
-42.53
-39.34
-36.23
-33.81
-32.22
-30.76
-28.00
-22.43
-13.11
-0.19
15.05
30.76
45.10
56.94
65.97
72.48
76.95
79.68
80.77
80.27
78.42
75.73
72.82
70.17
67.87
65.62
62.91
59.40
55.07
50.27
45.45
40.85
36.37
31.63
26.28
20.44
14.81
10.56
8.92
10.69
15.95
24.04
33.84
44.20
54.18
63.22
71.05
77.66
83.12
87.59
91.27
94.29
96.67
98.21
98.57
97.38
94.50
90.14
84.98
79.96
76.08
74.09
74.16
75.89
78.35
80.41
81.14
80.16
77.84
75.14
73.27
73.10
74.93
78.31
82.32
86.05
88.97
91.14
93.18
95.90
99.99
105.78
113.23
122.08
132.05
142.99
154.88
167.72
181.53
196.24
211.67
227.43
242.57
255.46
263.84
265.38
258.36
242.51
219.26
191.27
161.43
131.83
103.23
75.17
46.94
18.19
-10.51
-37.97
-63.08
-85.52
-106.02
-126.14
-147.52
-171.20
-197.15
-224.30
-251.27
-276.95
-301.18
-324.79
-349.24
-376.08
-406.81
-442.73
-484.74
-532.55
-583.56
-632.10
-670.11
-689.22
-683.74
-652.93
-601.31
-536.74
-467.25
-398.40
-332.39
-269.20
-208.68
-151.90
-101.19
-58.94
-26.20
-2.16
15.31
28.42
38.58
46.04
50.34
51.21
49.09
45.36
41.78
39.89
40.31
42.65
45.89
49.08
52.12
55.91
61.78
70.40
81.00
91.16
97.71
98.15
91.96
80.92
68.43
57.97
51.77
50.15
51.79
54.56
56.54
56.62
54.81
52.13
50.30
51.16
56.03
65.29
78.09
92.63
106.65
118.14
125.74
128.93
127.94
123.53
116.91
109.61
103.33
99.56
99.17
102.15
107.49
113.67
119.15
122.97
125.13
126.52
128.59
132.79
139.96
149.66
159.78
166.56
165.40
152.12
124.52
83.41
32.48
-22.75
-76.61
-124.82
-164.96
-196.13
-218.00
-230.19
-232.28
-224.46
-208.06
-185.61
-160.08
-133.93
-108.37
-83.46
-58.72
-34.00
-10.03
11.71
29.57
42.57
51.01
56.34
60.79
66.50
74.76
85.52
97.54
108.89
117.81
123.45
126.06
126.68
126.38
125.61
123.84
119.95
112.81
101.73
86.59
67.57
45.08
19.76
-7.03
-32.95
-54.84
-69.56
-75.09
-71.40
-60.51
-45.78
-30.77
-18.35
-10.41
-7.94
-11.38
-20.71
-35.30
-53.86
-74.48
-95.00
-113.37
-128.00
-137.88
-142.65
-142.61
-138.72
-132.51
-125.85
-120.38
-117.02
-115.48
-114.32
-111.15
-103.31
-88.58
-65.98
-36.25
-2.03
32.51
62.67
84.50
95.94
97.36
91.21
80.98
70.06
60.75
54.02
49.71
47.17
45.65
44.52
43.20
41.10
37.71
32.72
26.19
18.45
10.00
1.32
-7.12
-14.84
-21.29
-25.93
-28.34
-28.34
-25.96
-21.47
-15.21
-7.51
1.17
10.20
18.78
26.11
31.65
35.33
37.39
38.27
38.31
37.62
36.24
34.32
32.28
30.65
29.93
30.26
31.47
33.22
35.34
38.00
41.43
45.68
50.15
53.58
54.42
51.40
44.21
33.78
22.16
11.92
5.24
3.29
5.90
11.71
18.84
25.58
30.98
35.00
38.08
40.74
43.12
44.84
45.32
44.12
41.31
37.47
33.45
29.90
26.89
23.83
19.78
13.82
5.52
-4.78
-16.21
-27.60
-37.83
-46.00
-51.46
-53.66
-52.24
-47.14
-38.81
-28.26
-16.90
-6.22
2.57
8.73
11.98
12.43
10.42
6.41
0.92
-5.50
-12.33
-19.13
-25.56
-31.41
-36.55
-40.94
-44.58
-47.68
-50.60
-53.88
-58.09
-63.48
-69.67
-75.52
-79.15
-78.46
-71.77
-58.47
-39.42
-16.93
5.84
25.58
39.74
46.94
47.26
41.94
33.06
22.94
13.76
7.07
3.62
3.24
4.97
7.44
9.23
9.30
7.28
3.41
-1.65
-7.21
-12.86
-18.59
-24.67
-31.46
-39.02
-46.90
-54.10
-59.24
-60.96
-58.25
-50.70
-38.64
-23.11
-5.70
11.76
27.51
40.30
49.51
55.27
58.25
59.36
59.44
59.10
58.72
58.51
58.64
59.12
59.65
59.63
58.17
54.55
48.49
40.41
31.29
22.37
14.70
8.90
5.28
3.90
4.82
8.10
13.63
20.94
29.19
37.34
44.47
50.03
53.91
56.24
57.21
56.85
55.11
51.92
47.35
41.64
35.21
28.50
21.93
15.85
10.49
5.95
2.14
-1.20
-4.50
-8.24
-12.87
-18.57
-25.16
-32.10
-38.45
-43.13
-45.15
-43.90
-39.37
-32.26
-23.71
-15.03
-7.28
-1.01
3.72
7.26
9.98
12.12
13.59
14.11
13.36
11.16
7.62
3.03
-2.12
-7.35
-12.20
-16.32
-19.43
-21.39
-22.25
-22.34
-22.23
-22.54
-23.66
-25.44
-27.16
-27.64
-25.70
-20.61
-12.33
-1.55
10.58
22.81
34.06
43.62
51.08
56.24
59.01
59.42
57.68
54.21
49.63
44.52
39.34
34.16
28.75
22.72
15.75
7.83
-0.73
-9.42
-17.72
-25.37
-32.36
-38.83
-44.76
-49.76
-52.96
-53.20
-49.37
-40.82
-27.80
-11.44
6.48
24.03
39.57
52.14
61.49
67.90
71.98
74.45
75.95
76.81
76.85
75.10
69.81
58.88
40.58
14.52
-17.85
-53.36
-88.03
-118.26
-141.89
-158.54
-169.32
-176.03
-180.18
-182.49
-182.67
-179.71
-172.44
-159.96
-141.96
-118.79
-91.36
-60.93
-29.16
1.86
29.68
51.77
66.08
71.75
69.46
61.11
49.21
35.91
22.58
9.92
-1.52
-11.01
-17.53
-20.17
-18.61
-13.25
-5.12
4.50
14.43
23.64
31.21
36.17
37.61
34.89
28.08
18.11
6.71
-3.90
-11.80
-16.00
-16.85
-16.04
-15.92
-18.70
-25.62
-36.62
-50.41
-65.06
-78.25
-87.92
-92.50
-91.09
-83.47
-70.38
-53.51
-35.27
-18.11
-3.54
8.28
18.31
27.86
37.64
47.06
54.26
56.81
52.84
42.36
26.89
8.83
-9.39
-25.88
-39.47
-49.63
-56.15
-58.96
-57.16
-50.65
-40.86
-30.40
-21.69
-15.49
-10.29
-2.94
9.84
31.73
62.80
98.66
132.14
156.87
169.92
171.99
166.05
155.56
146.96
144.95
150.98
163.41
179.47
196.51
212.11
224.07
230.94
237.30
247.95
265.08
287.44
312.58
338.60
364.42
389.37
384.15
333.09
242.02
134.98
35.50
-45.33
-107.52
-156.11
-196.42
-231.93
-259.37
-275.32
-279.71
-277.14
-272.68
-269.52
-268.68
-269.44
-270.18
-265.89
-253.45
-233.67
-210.97
-190.42
-174.39
-163.84
-158.15
-155.76
-152.87
-146.80
-137.13
-125.40
-113.19
-101.05
-88.58
-75.01
-59.99
-43.01
-24.78
-7.15
7.47
17.46
22.44
23.14
21.26
18.95
18.62
21.98
29.70
41.26
55.43
70.48
84.52
96.34
105.67
112.97
118.94
124.50
130.34
137.17
145.09
153.31
160.47
165.08
165.59
160.93
151.02
136.36
117.57
94.12
63.98
25.29
-21.78
-74.51
-128.01
-176.52
-215.77
-240.33
-245.91
-233.54
-209.72
-182.13
-156.21
-135.57
-119.24
-106.51
-96.80
-89.72
-84.73
-81.20
-77.65
-72.78
-66.11
-57.84
-48.79
-39.33
-29.56
-19.39
-8.42
4.13
18.57
34.58
51.29
67.19
80.98
91.49
97.93
100.30
99.57
96.99
93.72
90.44
86.95
82.83
77.52
70.72
62.54
53.50
44.15
34.89
26.05
17.80
10.40
4.07
-1.23
-5.85
-10.35
-15.28
-20.81
-26.51
-31.45
-34.32
-33.99
-29.83
-22.01
-11.41
0.66
12.86
24.05
33.39
40.29
44.36
45.46
43.72
39.65
33.99
27.61
21.21
15.21
9.74
4.75
0.14
-4.11
-7.98
-11.34
-14.11
-16.28
-18.00
-19.53
-21.16
-23.18
-25.62
-28.27
-30.45
-31.23
-29.69
-25.24
-17.80
-7.78
3.96
16.26
27.95
38.08
46.07
51.64
54.72
55.38
53.87
50.43
45.28
38.45
30.24
21.11
11.63
2.39
-6.06
-12.86
-17.30
-19.17
-19.02
-17.18
-14.05
-10.13
-6.22
-3.32
-1.61
-1.21
-2.29
-5.61
-10.57
-15.83
-19.97
-22.34
-23.05
-21.66
-18.28
-13.73
-10.20
-7.85
-5.61
-1.83
4.75
14.99
30.81
53.14
80.91
109.88
136.96
159.87
177.16
187.87
182.29
156.07
112.68
69.87
31.47
-3.12
-36.91
-69.53
-99.45
-124.65
-141.93
-149.24
-146.95
-138.72
-126.78
-112.37
-96.34
-80.10
-65.50
-53.34
-44.20
-38.97
-39.16
-43.57
-49.46
-53.66
-54.11
-49.92
-40.59
-25.39
-6.27
12.13
26.36
35.63
41.44
45.58
50.11
55.48
61.71
68.51
75.53
83.31
92.73
102.50
110.16
112.91
108.72
97.11
78.81
55.31
28.73
1.20
-25.46
-50.76
-74.36
-95.72
-114.29
-130.10
-143.96
-156.91
-169.80
-176.00
-171.05
-154.94
-132.53
-110.34
-92.45
-79.34
-68.86
-58.37
-46.32
-33.83
-23.07
-15.51
-11.58
-10.33
-10.37
-10.39
-9.48
-6.76
-1.76
6.09
18.52
35.77
56.11
75.78
90.48
96.84
93.76
82.02
62.20
38.67
14.47
-8.35
-29.59
-47.83
-60.75
-66.17
-63.45
-53.91
-40.32
-26.64
-15.89
-9.26
-5.83
-3.48
0.18
5.51
12.40
20.25
27.62
33.43
37.17
39.08
39.71
39.65
39.33
39.13
39.37
40.08
41.73
44.63
48.64
52.84
55.83
56.27
53.37
47.04
37.79
27.34
17.17
7.69
-1.83
-12.35
-24.06
-36.00
-46.45
-53.83
-56.04
-52.49
-44.50
-34.35
-23.64
-12.45
0.17
15.03
31.85
50.97
71.88
93.16
113.21
131.33
147.77
162.86
176.46
177.18
159.07
125.75
88.15
55.92
32.45
15.77
1.63
-13.48
-31.18
-49.05
-63.84
-73.82
-79.62
-83.19
-86.18
-89.93
-93.32
-94.72
-91.66
-83.28
-71.19
-58.72
-49.06
-43.97
-43.39
-45.99
-50.24
-54.07
-56.26
-56.77
-56.45
-55.30
-53.49
-51.21
-48.58
-45.75
-42.18
-37.31
-30.62
-21.52
-9.71
4.58
20.27
35.54
48.33
57.49
62.75
65.68
69.71
78.46
93.85
114.97
137.87
156.69
165.38
158.10
131.60
86.59
27.16
-39.76
-105.19
-159.55
-194.09
-202.82
-185.33
-145.72
-90.68
-28.72
31.48
82.44
116.28
125.83
115.56
90.67
53.01
6.56
-43.35
-90.65
-129.46
-155.50
-166.79
-164.19
-152.43
-137.05
-121.82
-108.37
-96.32
-84.32
-71.47
-57.64
-43.53
-31.05
-21.36
-13.70
-6.46
1.90
12.14
23.61
34.79
43.96
49.22
49.80
46.50
40.93
34.65
28.67
23.04
17.19
10.51
2.46
-6.70
-15.97
-24.26
-30.89
-35.86
-39.79
-43.50
-47.58
-52.28
-57.36
-62.19
-65.97
-67.81
-66.84
-62.31
-53.76
-41.17
-25.22
-7.26
10.95
27.64
41.40
51.47
57.70
60.44
60.18
57.43
52.53
45.82
37.71
28.78
19.77
11.54
4.86
0.26
-2.09
-2.40
-1.18
0.84
2.93
4.63
6.06
7.89
11.08
16.53
24.71
35.42
47.76
60.42
71.99
81.47
88.24
92.00
92.71
90.56
85.95
79.48
71.87
63.96
57.09
52.25
49.71
49.02
49.35
49.94
50.32
50.29
49.83
50.18
52.11
55.44
59.00
61.37
61.68
60.00
57.19
54.71
55.94
63.27
77.03
95.21
114.68
132.59
146.95
156.76
161.78
164.57
167.23
170.40
173.20
174.56
174.23
172.52
169.35
149.57
104.90
37.53
-39.80
-112.20
-169.79
-208.96
-230.73
-238.86
-238.26
-231.25
-219.54
-204.85
-189.56
-175.96
-165.36
-157.70
-151.73
-145.43
-135.15
-118.92
-97.42
-74.06
-52.99
-37.04
-27.03
-22.12
-20.75
-20.28
-19.55
-18.40
-17.57
-17.75
-18.95
-20.70
-22.59
-24.53
-26.19
-27.56
-28.47
-28.89
-28.67
-27.57
-25.50
-22.64
-19.45
-16.23
-13.16
-9.85
-5.69
0.01
7.84
17.95
30.01
43.44
57.76
71.10
82.26
90.39
95.06
96.24
94.24
89.62
83.20
75.79
68.12
60.93
54.70
49.64
45.76
42.90
40.83
39.32
38.19
37.40
37.15
37.63
38.77
40.29
41.65
42.30
41.87
40.37
38.24
36.50
36.47
39.53
46.79
58.76
75.22
95.16
117.01
138.99
159.50
177.22
191.21
200.86
205.85
206.26
202.50
195.28
185.35
173.38
159.86
145.21
130.07
115.38
102.25
91.66
83.92
78.51
74.23
69.57
63.19
54.20
42.17
27.09
9.44
-9.78
-28.85
-45.60
-57.89
-64.37
-65.02
-61.19
-55.15
-49.34
-45.65
-45.13
-48.00
-53.91
-62.23
-72.12
-82.69
-93.10
-102.64
-110.83
-117.41
-122.23
-125.19
-126.31
-126.32
-126.06
-126.21
-127.07
-128.60
-130.31
-131.40
-131.24
-129.69
-127.64
-126.04
-125.32
-125.26
-125.17
-124.15
-121.17
-115.32
-106.07
-94.46
-81.74
-68.97
-57.24
-47.92
-42.32
-41.20
-44.64
-52.24
-66.06
-86.24
-110.07
-133.37
-152.94
-167.46
-177.33
-184.26
-190.61
-204.13
-228.08
-259.19
-290.82
-318.14
-339.69
-356.31
-369.85
-382.32
-404.45
-441.32
-489.53
-541.43
-591.16
-634.94
-668.51
-686.40
-683.60
-669.70
-651.63
-629.27
-599.08
-560.22
-514.68
-464.62
-411.68
-285.83
-76.40
166.32
375.30
518.48
600.28
639.48
654.07
656.20
653.00
635.66
599.70
550.83
499.86
454.08
415.38
382.91
355.19
329.63
296.44
252.21
202.52
156.95
121.72
97.80
82.97
74.05
68.34
59.05
44.30
28.58
18.92
19.61
30.75
49.67
72.67
96.22
114.99
126.48
131.66
133.31
133.46
132.72
130.89
127.75
123.43
117.46
109.92
101.42
92.41
82.65
71.65
59.37
46.64
34.76
24.91
17.37
11.40
5.68
-1.06
-9.46
-19.27
-29.52
-38.89
-45.99
-49.63
-49.01
-43.76
-34.09
-20.69
-4.72
12.49
29.56
45.27
58.62
68.86
75.51
78.43
77.88
74.52
69.33
63.40
57.75
53.05
49.55
47.09
45.21
43.35
41.03
38.01
34.25
29.81
24.77
19.16
12.92
5.96
-1.74
-10.15
-19.12
-28.34
-37.23
-44.88
-50.14
-51.87
-49.24
-42.11
-31.06
-17.32
-2.40
12.27
25.54
36.63
45.03
50.48
52.94
52.65
50.15
46.30
42.02
38.06
34.82
32.28
30.07
27.73
24.91
21.55
17.87
14.31
11.22
8.73
6.60
4.33
1.30
-3.03
-8.81
-15.67
-22.68
-28.50
-31.65
-30.94
-25.84
-16.60
-4.20
9.93
24.28
37.51
48.66
57.09
62.45
64.66
63.95
60.85
56.21
51.01
46.10
41.94
38.56
35.62
32.64
29.26
25.34
21.02
16.53
12.15
8.02
4.13
0.33
-3.70
-8.33
-13.86
-20.32
-27.26
-33.68
-38.21
-39.47
-36.50
-29.16
-18.14
-4.80
9.18
22.19
32.95
40.66
44.96
45.91
43.89
39.57
33.75
27.25
20.81
14.97
10.07
6.15
3.05
0.44
-2.07
-4.80
-7.87
-11.22
-14.63
-17.89
-20.98
-24.09
-27.65
-32.04
-37.45
-43.56
-49.52
-54.05
-55.74
-53.53
-47.01
-36.71
-23.92
-10.35
2.29
12.75
20.30
24.82
26.55
25.93
23.49
19.79
15.44
11.03
7.15
4.18
2.15
0.79
-0.10
-0.67
-1.05
-1.32
-1.52
-1.55
-1.41
-1.33
-1.76
-2.94
-4.82
-6.95
-8.48
-8.30
-5.08
1.73
11.60
22.94
34.15
43.84
51.08
55.42
56.93
56.81
55.85
54.04
50.52
45.72
40.60
36.21
33.25
32.10
34.49
40.81
49.58
57.60
64.26
69.89
74.89
79.25
82.81
88.27
96.95
107.79
117.30
125.97
135.70
148.17
163.99
182.93
207.66
238.21
270.67
297.25
315.05
323.14
321.32
309.73
267.34
192.12
103.13
38.15
-2.23
-25.31
-39.06
-47.25
-52.51
-56.47
-56.50
-51.76
-44.82
-41.64
-42.89
-47.19
-53.16
-60.55
-69.71
-78.31
-84.94
-89.77
-94.76
-97.83
-96.45
-89.71
-79.08
-67.26
-55.30
-44.43
-36.55
-34.49
-38.31
-46.96
-59.01
-72.92
-86.94
-98.71
-107.21
-113.34
-119.74
-127.99
-138.59
-150.98
-164.01
-176.44
-187.15
-195.89
-203.19
-210.06
-217.11
-224.84
-233.84
-244.50
-256.33
-267.43
-274.57
-274.35
-264.89
-247.27
-225.69
-206.11
-193.81
-191.25
-197.40
-208.70
-221.08
-231.65
-239.37
-244.41
-247.02
-246.86
-243.18
-235.63
-224.88
-212.32
-199.20
-185.61
-170.20
-150.78
-125.61
-94.35
-58.46
-20.51
16.89
52.02
84.36
114.41
143.01
170.72
197.54
222.72
244.96
262.71
274.45
279.07
276.12
265.95
249.65
229.00
206.18
183.59
163.44
147.35
135.87
128.36
123.10
117.98
111.18
101.66
89.37
75.14
60.27
46.01
33.13
21.52
10.19
-2.18
-16.57
-32.87
-49.44
-63.56
-72.29
-73.62
-67.24
-54.35
-36.99
-17.17
3.52
23.80
42.37
57.90
69.30
76.30
79.80
81.78
84.65
90.38
99.67
111.78
124.77
136.40
144.87
149.41
150.38
148.74
145.45
140.89
134.64
125.66
112.79
95.12
72.35
44.96
14.24
-17.72
-48.24
-74.55
-94.44
-106.84
-112.26
-112.58
-110.43
-108.34
-107.94
-109.57
-112.41
-114.99
-115.82
-114.04
-109.79
-104.17
-98.90
-95.73
-95.86
-99.63
-106.53
-115.53
-125.61
-136.03
-146.44
-156.78
-166.99
-176.96
-186.53
-195.68
-204.70
-214.08
-224.24
-234.98
-245.33
-253.46
-257.13
-254.35
-243.91
-225.73
-200.79
-170.82
-137.78
-103.62
-70.05
-38.45
-9.85
15.17
36.58
54.85
70.73
84.89
97.61
108.66
117.36
122.96
124.90
123.06
117.78
109.62
99.20
87.13
74.04
60.82
48.58
38.60
32.02
29.60
31.63
38.04
48.51
62.49
79.05
96.79
113.81
128.15
138.36
144.03
145.90
145.48
144.35
143.51
143.11
142.66
141.51
139.29
136.03
132.01
127.45
122.29
116.29
109.23
101.23
92.77
84.58
77.35
71.38
66.47
61.90
56.70
49.98
41.14
30.15
17.43
3.83
-9.70
-22.28
-33.34
-42.75
-50.80
-58.12
-65.41
-73.17
-81.38
-89.34
-95.82
-99.39
-98.89
-93.83
-84.44
-71.56
-56.33
-39.84
-22.97
-6.35
9.59
24.52
38.19
50.39
61.00
69.95
77.21
82.80
86.72
88.98
89.58
88.49
85.70
81.20
75.10
67.54
58.73
48.92
38.38
27.40
16.36
5.67
-4.35
-13.52
-21.83
-29.37
-36.06
-41.49
-44.94
-45.48
-42.35
-35.28
-24.63
-11.47
2.67
16.08
27.19
34.82
38.39
37.92
34.03
27.71
20.11
12.22
4.69
-2.23
-8.63
-14.73
-20.75
-26.73
-32.52
-37.79
-42.15
-45.23
-46.90
-47.21
-46.55
-45.46
-44.51
-44.00
-43.72
-42.93
-40.55
-35.69
-27.89
-17.52
-5.59
6.53
17.53
26.45
32.77
36.33
37.26
35.93
32.90
28.98
25.07
21.96
20.24
20.05
21.20
23.18
25.39
27.22
28.19
28.01
26.65
24.30
21.29
17.90
14.23
10.11
5.30
-0.30
-6.38
-12.07
-16.15
-17.40
-15.00
-8.83
0.46
11.67
23.41
34.43
43.87
51.26
56.48
59.54
60.41
59.05
55.45
49.76
42.40
34.01
25.34
17.05
9.49
2.70
-3.50
-9.32
-14.86
-20.02
-24.58
-28.33
-31.18
-33.26
-34.87
-36.37
-38.05
-40.03
-42.30
-44.77
-47.36
-49.97
-52.39
-54.29
-55.21
-54.65
-52.24
-47.89
-41.84
-34.52
-26.36
-17.63
-8.53
0.77
9.90
18.29
25.30
30.46
33.64
35.19
35.77
36.12
36.78
37.95
39.44
40.85
41.75
41.91
41.35
40.42
39.62
39.47
40.23
41.83
43.97
46.29
48.49
50.51
52.53
55.02
58.67
64.19
72.16
82.82
95.73
109.74
123.03
133.46
139.15
139.06
133.46
124.17
114.23
106.92
104.59
107.56
113.50
117.88
115.13
100.36
70.85
27.12
-27.09
-85.63
-141.48
-188.42
-222.36
-241.86
-247.92
-243.08
-230.26
-211.84
-189.20
-162.84
-132.86
-99.35
-62.68
-23.62
16.77
57.11
95.53
129.90
158.25
179.31
193.11
200.96
204.61
205.36
203.33
197.33
185.66
167.08
141.44
109.75
73.91
36.26
-0.48
-33.24
-58.81
-74.43
-78.86
-73.16
-60.89
-47.16
-36.95
-33.57
-37.75
-47.84
-60.59
-72.52
-80.94
-84.42
-82.90
-77.22
-68.62
-58.39
-47.67
-37.35
-28.25
-21.12
-16.59
-14.96
-16.06
-19.25
-23.59
-28.16
-32.37
-36.12
-39.72
-43.52
-47.77
-52.34
-56.88
-60.90
-63.98
-66.03
-67.32
-68.36
-69.68
-71.63
-74.24
-77.24
-80.10
-82.16
-82.73
-81.11
-76.68
-69.06
-58.29
-44.90
-29.95
-14.73
-0.50
11.83
21.85
29.64
35.47
39.70
42.57
44.27
45.02
45.14
44.98
44.85
44.89
44.95
44.71
43.84
42.19
39.80
36.95
33.93
30.93
27.95
24.88
21.54
17.80
13.61
9.17
4.88
1.25
-1.16
-1.96
-1.08
1.23
4.53
8.23
11.80
14.77
16.72
17.33
16.42
14.07
10.69
6.97
3.64
1.12
-0.63
-2.15
-4.22
-7.54
-12.38
-18.50
-25.25
-31.86
-37.79
-42.84
-47.18
-51.05
-54.63
-57.86
-60.48
-62.25
-62.89
-62.12
-59.57
-54.80
-47.41
-37.37
-25.20
-12.00
0.86
12.16
21.23
28.07
33.13
36.96
39.96
42.22
43.66
44.24
44.11
43.61
43.12
42.80
42.53
41.96
40.64
38.29
34.90
30.74
26.22
21.63
17.08
12.43
7.41
1.79
-4.52
-11.47
-18.87
-26.38
-33.51
-39.67
-44.18
-46.43
-46.11
-43.34
-38.73
-33.34
-28.26
-24.37
-22.06
-21.19
-21.25
-21.60
-21.72
-21.31
-20.28
-18.65
-16.44
-13.62
-10.29
-6.69
-3.28
-0.65
0.66
0.33
-1.68
-5.15
-9.71
-14.96
-20.49
-25.86
-30.63
-34.32
-36.47
-36.64
-34.47
-29.89
-23.08
-14.61
-5.28
3.99
12.48
19.78
25.86
30.96
35.29
38.92
41.69
43.30
43.42
41.89
38.72
34.12
28.56
22.67
17.18
12.68
9.54
7.75
6.95
6.59
6.16
5.45
4.53
3.68
3.14
2.93
2.81
2.45
1.71
1.01
1.19
3.13
7.38
13.81
21.72
30.04
37.75
44.22
49.50
53.83
57.14
58.97
58.33
54.24
46.09
33.91
18.52
1.48
-15.36
-30.40
-42.46
-51.21
-56.82
-59.52
-60.88
-63.70
-70.03
-79.45
-89.22
-95.58
-95.86
-89.49
-78.05
-64.38
-51.38
-41.12
-34.69
-32.42
-32.19
-31.01
-25.37
-12.56
7.75
32.89
57.79
76.52
84.51
80.20
65.04
42.63
16.94
-8.99
-32.87
-51.71
-63.01
-65.38
-58.96
-45.76
-29.17
-13.07
-0.84
5.64
6.27
2.20
-4.78
-12.93
-21.05
-28.63
-35.76
-42.85
-50.15
-57.47
-64.22
-69.37
-71.54
-69.39
-61.83
-48.72
-31.06
-10.72
9.89
28.43
43.18
53.54
60.07
64.11
66.56
67.31
65.44
59.99
50.79
38.92
26.78
17.53
14.25
18.19
28.30
41.89
55.90
68.00
77.04
83.18
87.66
92.05
96.45
98.95
96.55
86.62
67.87
40.42
5.19
-38.37
-85.45
-126.82
-152.35
-154.94
-132.28
-87.81
-30.94
25.13
67.95
90.57
92.63
78.91
56.25
30.55
5.43
-17.27
-35.94
-48.41
-52.56
-48.28
-38.18
-26.37
-16.45
-10.54
-8.48
-8.99
-10.78
-12.89
-15.41
-19.44
-26.69
-38.57
-54.51
-73.05
-90.64
-102.42
-103.94
-93.42
-72.69
-46.52
-20.44
1.48
17.73
29.10
37.28
43.44
47.49
48.61
46.30
41.16
35.02
29.97
27.40
27.44
28.93
29.98
28.59
23.93
16.10
6.40
-3.38
-11.65
-17.62
-21.35
-23.55
-25.05
-26.43
-27.87
-29.13
-29.71
-29.01
-26.49
-22.02
-16.09
-9.74
-4.30
-1.03
-0.50
-2.47
-5.93
-9.49
-11.88
-12.34
-10.71
-7.36
-3.15
0.91
3.77
4.58
2.88
-1.38
-7.96
-16.22
-25.25
-34.10
-41.82
-47.70
-51.82
-54.21
-55.21
-55.31
-54.96
-54.41
-53.67
-52.63
-51.30
-49.91
-48.87
-48.64
-49.43
-50.95
-52.34
-52.36
-49.74
-43.50
-33.19
-18.89
-1.15
19.03
40.39
61.38
80.30
95.51
105.70
110.11
108.67
101.94
90.90
76.79
60.96
44.68
29.07
14.94
2.76
-7.36
-15.60
-22.21
-27.44
-31.41
-34.22
-35.96
-36.84
-37.17
-37.28
-37.56
-38.30
-39.77
-42.10
-45.23
-48.78
-52.00
-53.81
-53.04
-48.70
-40.39
-28.43
-13.79
2.03
17.48
31.18
42.17
49.98
54.58
56.35
55.89
53.90
51.00
47.66
44.14
40.46
36.56
32.37
27.93
23.45
19.26
15.61
12.64
10.29
8.30
6.30
3.89
0.79
-3.12
-7.58
-12.00
-15.45
-16.86
-15.37
-10.68
-3.21
5.97
15.39
23.65
29.73
33.09
33.71
31.89
28.17
23.25
17.88
12.84
8.76
5.98
4.49
3.99
3.96
3.94
3.64
3.00
2.11
1.10
-0.00
-1.34
-3.11
-5.53
-8.56
-11.82
-14.63
-16.09
-15.37
-12.02
-6.11
1.73
10.54
19.24
26.96
33.11
37.45
39.97
40.79
40.15
38.35
35.80
32.99
30.38
28.26
26.73
25.68
24.83
23.91
22.75
21.27
19.52
17.56
15.35
12.80
9.78
6.21
2.07
-2.56
-7.45
-12.27
-16.50
-19.53
-20.76
-19.83
-16.77
-12.10
-6.69
-1.52
2.59
5.13
5.95
5.16
3.03
-0.04
-3.58
-7.06
-9.95
-11.88
-12.71
-12.58
-11.79
-10.69
-9.54
-8.47
-7.51
-6.75
-6.36
-6.59
-7.71
-9.76
-12.53
-15.44
-17.69
-18.39
-16.89
-12.97
-6.93
0.42
8.07
14.96
20.39
24.03
25.90
26.24
25.35
23.50
20.92
17.89
14.73
11.73
9.11
6.91
5.05
3.46
2.06
0.89
-0.09
-0.94
-1.85
-3.02
-4.62
-6.61
-8.74
-10.59
-11.60
-11.24
-9.08
-4.95
0.96
8.08
15.56
22.45
27.96
31.65
33.41
33.43
32.07
29.70
26.67
23.36
20.08
17.09
14.58
12.54
10.85
9.29
7.66
5.84
3.84
1.77
-0.30
-2.32
-4.44
-6.84
-9.74
-13.18
-16.91
-20.35
-22.78
-23.53
-22.26
-19.09
-14.60
-9.55
-4.70
-0.53
2.73
5.13
6.80
7.89
8.48
8.66
8.54
8.27
8.05
8.10
8.49
9.22
10.13
10.97
11.48
11.52
11.11
10.40
9.61
8.89
8.25
7.57
6.65
5.31
3.54
1.44
-0.75
-2.72
-4.13
-4.67
-4.07
-2.17
0.94
4.92
9.19
13.06
15.92
17.42
17.53
16.49
14.69
12.51
10.22
8.00
5.96
4.21
2.86
2.01
1.72
1.89
2.36
2.87
3.21
3.26
3.01
2.54
1.95
1.28
0.49
-0.49
-1.71
-3.13
-4.59
-5.89
-6.85
-7.37
-7.48
-7.33
-7.23
-7.43
-8.05
-8.89
-9.56
-9.52
-8.29
-5.56
-1.35
3.86
9.35
14.36
18.30
20.91
22.18
22.32
21.78
20.97
20.11
19.31
18.60
18.06
17.77
17.74
17.92
18.73
20.42
22.87
25.58
28.05
29.99
31.37
32.27
32.88
34.50
37.98
43.26
49.46
55.49
60.65
64.71
67.77
70.18
74.14
81.22
91.62
104.16
117.23
129.56
140.33
148.97
155.10
160.74
167.13
173.86
178.90
179.95
175.54
165.37
150.05
117.09
62.95
-5.66
-74.54
-130.99
-169.66
-191.81
-201.86
-204.77
-204.59
-201.89
-196.75
-189.73
-181.91
-173.96
-165.68
-156.43
-146.14
-135.63
-124.70
-113.83
-104.02
-96.42
-91.38
-88.34
-86.28
-84.47
-82.61
-79.57
-74.66
-67.91
-60.12
-52.41
-45.68
-40.51
-37.10
-35.23
-33.85
-31.94
-28.95
-24.91
-20.11
-14.83
-9.17
-3.29
2.65
8.56
14.26
19.44
23.68
26.76
28.45
28.69
27.49
25.02
21.67
17.94
14.40
11.43
9.24
7.68
6.57
5.69
4.95
4.50
4.74
6.03
8.53
12.04
15.91
19.34
21.70
22.51
21.80
20.00
17.81
15.87
14.70
14.64
15.90
18.47
21.97
25.91
29.82
33.44
36.62
39.43
41.98
44.42
46.84
48.90
50.42
51.28
51.53
51.22
50.32
48.51
44.98
41.13
37.06
32.72
28.01
23.06
18.30
14.48
12.33
12.42
14.90
19.08
23.98
28.60
32.01
33.50
32.63
29.24
23.50
16.06
7.52
-1.21
-9.32
-16.16
-21.44
-25.12
-27.34
-28.45
-28.88
-29.31
-30.21
-31.73
-33.57
-35.11
-35.76
-35.29
-34.01
-32.64
-32.02
-32.69
-34.70
-37.67
-40.86
-43.38
-44.24
-42.50
-37.36
-28.58
-16.62
-2.77
11.11
23.16
31.97
36.98
38.39
36.90
33.38
28.58
23.05
17.23
11.54
6.43
2.24
-0.90
-3.11
-4.68
-5.94
-7.12
-8.36
-9.71
-11.27
-13.24
-15.85
-19.27
-23.47
-28.12
-32.72
-36.71
-39.73
-41.72
-42.96
-43.90
-44.97
-46.41
-48.13
-49.80
-50.97
-51.40
-51.12
-50.47
-49.99
-50.20
-51.35
-53.23
-55.16
-56.06
-54.70
-49.95
-41.11
-28.20
-12.14
5.40
22.34
36.66
46.91
52.39
53.27
50.28
44.46
36.93
28.71
20.65
13.49
7.73
3.56
0.84
-0.82
-1.96
-3.03
-4.32
-5.84
-7.44
-8.93
-10.22
-11.52
-13.14
-15.45
-18.63
-22.57
-26.87
-30.96
-34.34
-36.75
-38.19
-38.99
-39.62
-40.58
-42.29
-44.79
-47.57
-49.53
-49.11
-44.75
-35.44
-21.20
-3.13
16.72
36.00
52.55
64.88
72.34
75.02
73.57
68.98
62.41
55.05
48.00
42.12
37.90
35.50
34.67
34.84
35.34
35.55
35.05
33.67
31.54
28.88
25.87
22.55
18.78
14.44
9.52
4.25
-0.98
-5.72
-9.74
-13.06
-16.04
-19.14
-22.76
-27.10
-32.09
-37.42
-42.64
-47.41
-51.41
-54.64
-57.30
-59.76
-62.44
-65.43
-68.33
-70.15
-69.46
-64.76
-55.00
-40.09
-21.07
0.00
20.55
38.12
50.96
58.33
60.48
58.37
53.20
46.17
38.26
30.33
23.04
16.93
12.34
9.28
7.46
6.26
5.03
3.21
0.56
-2.82
-6.58
-10.27
-13.52
-16.17
-18.37
-20.42
-22.73
-25.55
-28.89
-32.50
-35.92
-38.70
-40.49
-41.17
-40.89
-39.95
-38.78
-37.79
-37.23
-37.08
-36.92
-35.91
-32.96
-27.06
-17.67
-5.01
9.82
25.02
38.65
49.03
55.26
57.22
55.48
50.83
44.20
36.40
28.18
20.21
13.06
7.11
2.45
-1.09
-3.86
-6.13
-7.97
-9.36
-10.29
-10.93
-11.72
-13.31
-16.26
-20.80
-26.72
-33.39
-39.89
-45.33
-49.01
-50.63
-50.42
-49.04
-47.49
-46.66
-46.97
-47.93
-48.13
-45.66
-38.75
-26.67
-10.08
8.95
27.61
43.21
53.95
59.35
60.02
57.28
52.54
46.95
41.32
36.16
31.83
28.47
25.95
23.92
21.78
19.03
15.48
11.43
7.54
4.50
2.69
1.94
1.54
0.58
-1.68
-5.48
-10.48
-15.98
-21.19
-25.57
-28.92
-31.51
-33.84
-36.36
-39.04
-41.16
-41.24
-37.40
-28.01
-12.51
8.18
31.58
54.45
73.70
87.32
94.74
96.57
94.00
88.15
79.82
69.59
58.04
46.02
34.56
24.60
16.73
10.95
6.75
3.43
0.31
-2.92
-6.24
-9.41
-12.19
-14.53
-16.74
-19.23
-22.36
-26.31
-30.89
-35.71
-40.39
-44.71
-48.76
-52.85
-57.24
-61.99
-66.90
-71.51
-75.35
-78.11
-79.80
-80.66
-81.05
-81.29
-81.61
-82.09
-82.64
-82.88
-82.10
-79.24
-73.20
-63.32
-49.76
-33.60
-16.55
-0.42
13.38
24.09
31.57
35.93
37.38
36.20
32.96
28.67
24.72
22.61
23.41
27.39
33.88
41.48
48.50
53.51
55.64
54.74
51.19
45.57
38.47
30.32
21.48
12.30
3.15
-5.69
-14.20
-22.62
-31.27
-40.19
-48.78
-55.68
-59.12
-57.48
-50.07
-37.55
-21.77
-5.27
9.60
21.19
28.71
32.09
31.64
27.83
21.20
12.52
2.80
-6.79
-15.13
-21.46
-25.55
-27.71
-28.57
-28.84
-28.97
-29.09
-29.00
-28.33
-26.79
-24.38
-21.44
-18.60
-16.70
-16.55
-18.72
-23.23
-29.38
-35.61
-39.77
-39.66
-33.75
-21.84
-5.25
13.55
31.78
47.18
58.55
65.64
68.77
68.39
64.79
58.34
49.79
40.47
32.01
25.97
23.16
23.40
25.59
28.12
29.55
29.11
26.82
23.31
19.43
15.66
11.99
7.83
2.29
-5.43
-15.76
-28.40
-42.24
-55.34
-65.08
-68.65
-63.75
-49.40
-26.43
2.43
33.19
61.63
84.35
99.42
106.47
106.38
100.60
90.66
77.87
63.38
48.25
33.65
20.76
10.56
3.54
-0.50
-2.48
-3.74
-5.59
-8.96
-14.10
-20.67
-28.02
-35.48
-42.66
-49.47
-56.09
-62.88
-70.23
-78.53
-87.95
-98.28
-108.58
-116.95
-120.65
-116.72
-102.96
-78.85
-46.11
-8.36
29.77
63.81
90.61
108.66
118.04
119.82
115.49
106.70
95.16
82.68
70.92
61.22
54.12
49.41
46.16
43.23
39.72
35.30
30.21
24.94
19.95
15.23
10.34
4.58
-2.56
-11.09
-20.38
-29.37
-36.98
-42.63
-46.56
-49.79
-53.80
-59.93
-68.89
-80.18
-91.86
-100.78
-103.13
-95.61
-76.58
-46.92
-10.02
29.07
65.09
93.97
113.60
123.85
125.87
121.42
112.22
99.90
86.05
72.28
60.03
50.25
43.27
38.70
35.81
33.76
31.85
29.59
26.62
22.60
17.20
10.26
1.77
-7.93
-18.29
-28.69
-38.65
-47.92
-56.55
-64.97
-73.84
-83.88
-95.40
-107.65
-118.50
-124.57
-122.08
-108.30
-82.84
-48.12
-8.85
29.56
62.55
87.41
103.41
111.14
111.72
106.40
96.62
84.18
71.20
59.80
51.28
45.86
42.63
40.13
37.09
33.01
28.14
23.15
18.66
14.71
10.75
5.88
-0.70
-9.30
-19.57
-30.64
-41.39
-50.86
-58.58
-64.63
-69.71
-74.90
-81.41
-89.99
-100.49
-111.38
-119.64
-121.44
-113.34
-93.56
-62.94
-24.92
15.52
53.32
84.81
108.29
123.88
132.65
135.91
134.75
130.15
123.26
115.49
108.33
102.93
99.78
98.57
98.53
98.67
98.32
97.25
95.57
93.57
91.42
88.99
85.90
81.69
76.02
68.91
60.78
52.32
44.25
37.04
30.68
24.75
18.60
11.63
3.64
-5.08
-13.81
-21.75
-28.45
-34.05
-39.28
-45.11
-52.33
-61.09
-70.82
-80.46
-88.88
-95.42
-100.06
-103.45
-106.66
-110.82
-116.82
-124.90
-134.29
-142.96
-147.76
-145.06
-131.96
-107.46
-73.19
-33.26
6.90
42.12
68.87
85.88
93.74
94.04
88.57
78.88
66.35
52.53
39.19
28.07
20.40
16.41
15.29
15.56
15.67
14.53
11.86
8.05
3.90
0.14
-2.92
-5.49
-8.24
-12.00
-17.39
-24.60
-33.17
-42.21
-50.76
-58.07
-63.96
-68.75
-73.09
-77.78
-83.51
-90.72
-99.44
-108.97
-117.65
-122.87
-121.49
-110.82
-89.72
-59.28
-22.77
15.22
50.17
78.77
99.50
112.41
118.47
118.89
114.77
107.09
96.91
85.48
74.07
63.75
55.09
48.14
42.51
37.69
33.20
28.79
24.35
19.80
15.01
9.76
3.85
-2.79
-10.01
-17.40
-24.44
-30.70
-36.03
-40.72
-45.47
-51.19
-58.65
-67.85
-77.65
-85.62
-88.54
-83.44
-68.74
-45.08
-15.29
16.33
45.51
69.06
85.54
95.10
98.72
97.52
92.32
83.79
72.72
60.29
48.03
37.42
29.46
24.33
21.36
19.31
16.92
13.24
8.03
1.59
-5.46
-12.46
-19.01
-25.01
-30.64
-36.23
-42.25
-49.14
-57.30
-66.86
-77.32
-87.33
-94.60
-96.45
-90.49
-75.64
-52.68
-24.29
5.73
33.50
56.06
71.89
80.83
83.58
81.20
74.81
65.57
54.83
44.07
34.66
27.54
22.99
20.50
19.03
17.43
14.81
10.83
5.79
0.35
-4.78
-9.16
-12.89
-16.46
-20.66
-26.18
-33.49
-42.66
-53.31
-64.44
-74.30
-80.51
-80.53
-72.47
-55.97
-32.58
-5.47
21.46
44.72
62.06
72.65
76.71
74.94
68.15
57.30
43.65
28.96
15.23
4.21
-3.21
-7.29
-9.22
-10.64
-12.87
-16.48
-21.12
-25.94
-30.04
-33.03
-35.08
-36.90
-39.45
-43.60
-49.89
-58.30
-68.01
-77.32
-83.80
-84.78
-78.21
-63.50
-41.89
-16.22
9.89
33.10
51.11
62.89
68.39
68.07
62.65
53.08
40.75
27.43
15.13
5.48
-0.78
-3.97
-5.33
-6.43
-8.50
-12.05
-16.83
-22.01
-26.78
-30.68
-33.77
-36.63
-40.08
-44.94
-51.73
-60.44
-70.26
-79.47
-85.55
-85.67
-77.55
-60.36
-35.14
-4.84
26.64
55.49
79.02
96.07
106.81
112.14
113.06
110.46
105.15
98.14
90.66
84.02
79.23
76.66
75.92
76.08
76.07
75.10
72.91
69.69
65.96
62.17
58.56
55.03
51.22
46.75
41.26
34.61
26.83
18.18
9.14
0.28
-7.80
-14.66
-20.18
-24.72
-28.94
-33.63
-39.37
-46.28
-53.99
-61.81
-69.00
-75.11
-80.17
-84.61
-89.19
-94.79
-102.10
-111.37
-121.91
-131.92
-138.43
-137.97
-127.62
-106.32
-75.52
-39.10
-2.19
30.30
55.06
70.89
78.34
78.95
74.38
66.11
55.55
44.28
34.04
26.46
22.51
22.21
24.61
28.20
31.46
33.37
33.58
32.36
30.23
27.70
24.97
21.98
18.44
14.03
8.47
1.68
-6.19
-14.74
-23.38
-31.51
-38.66
-44.66
-49.68
-54.19
-58.90
-64.50
-71.52
-79.95
-89.05
-97.15
-101.79
-100.16
-90.02
-70.57
-42.99
-10.27
23.52
54.49
79.83
98.29
109.96
115.66
116.43
113.12
106.64
98.09
88.91
80.65
74.55
71.07
69.76
69.52
69.10
67.65
65.00
61.59
58.01
54.55
50.99
46.68
40.92
33.40
24.35
14.49
4.69
-4.42
-12.71
-20.57
-28.72
-37.82
-48.12
-59.34
-70.70
-81.07
-89.60
-96.17
-101.37
-106.26
-112.03
-119.63
-129.50
-141.23
-153.12
-162.44
-166.04
-161.15
-146.26
-121.92
-90.91
-57.66
-26.97
-2.12
15.28
25.01
27.78
24.78
17.27
6.36
-6.88
-21.21
-33.72
-42.04
-45.71
-46.08
-45.06
-44.28
-44.74
-46.92
-50.85
-53.25
-51.83
-46.97
-40.96
-35.42
-30.33
-24.71
-17.74
-9.30
4.73
26.46
53.66
81.25
105.37
125.06
141.33
155.75
169.85
190.98
224.16
268.36
317.84
367.31
414.20
457.83
498.20
496.56
434.05
326.12
209.25
109.80
34.88
-19.22
-58.94
-89.70
-115.00
-130.47
-132.89
-124.59
-112.70
-103.86
-101.73
-107.07
-118.81
-134.76
-147.61
-152.07
-148.22
-140.75
-134.49
-132.17
-134.43
-140.62
-149.42
-156.24
-158.06
-154.19
-146.66
-137.64
-128.36
-119.37
-110.89
-102.94
-93.81
-81.76
-66.04
-46.96
-24.89
-0.52
24.78
48.68
68.35
81.87
88.31
87.87
81.51
70.84
57.30
41.90
25.35
8.59
-6.80
-18.66
-24.81
-25.43
-20.96
-13.16
-4.57
2.37
6.06
6.09
3.17
-1.26
-5.51
-7.86
-7.40
-4.22
0.60
5.32
7.99
7.00
1.57
-7.89
-19.67
-31.32
-40.33
-44.85
-44.24
-39.28
-31.71
-23.33
-15.11
-6.93
1.67
10.66
19.06
25.26
27.89
26.72
22.90
18.33
14.68
12.50
11.12
9.27
6.02
1.28
-4.14
-9.07
-12.70
-15.02
-16.83
-19.30
-23.44
-29.58
-37.29
-45.65
-53.73
-60.98
-67.30
-72.72
-77.00
-79.40
-78.67
-73.51
-63.12
-47.62
-28.20
-6.83
14.28
33.08
48.15
58.86
65.26
67.94
67.72
65.44
61.87
57.63
53.23
49.10
45.60
42.95
41.15
40.03
39.22
38.33
37.07
35.28
32.90
29.95
26.43
22.38
17.94
13.24
8.39
3.41
-1.81
-7.49
-13.81
-20.69
-27.63
-33.69
-37.70
-38.51
-35.45
-28.56
-18.54
-6.69
5.52
16.73
26.03
32.96
37.50
39.84
40.29
39.26
37.15
34.47
31.64
29.01
26.72
24.71
22.82
20.85
18.74
16.55
14.45
12.53
10.83
9.21
7.48
5.45
2.96
-0.09
-3.72
-7.76
-11.89
-15.55
-17.95
-18.17
-15.38
-9.06
0.69
13.05
26.70
40.06
51.72
60.68
66.46
68.93
68.06
63.81
56.19
45.38
31.86
16.33
-0.45
-17.81
-35.27
-52.48
-69.03
-84.32
-97.60
-108.22
-115.79
-120.37
-122.45
-122.70
-121.71
-119.71
-116.57
-111.91
-105.47
-97.20
-87.34
-76.16
-63.71
-49.66
-33.46
-14.74
6.28
28.54
50.27
69.45
84.39
94.16
98.69
98.66
95.12
89.19
81.94
74.28
67.02
60.88
56.48
54.14
53.84
55.08
57.05
58.92
60.06
60.22
59.54
58.42
57.23
56.22
55.40
54.58
53.51
51.80
48.95
44.34
37.33
27.54
15.17
1.09
-13.13
-25.68
-35.01
-40.23
-41.40
-39.44
-35.79
-31.96
-29.06
-27.62
-27.49
-28.10
-28.72
-28.71
-27.69
-25.55
-22.34
-18.17
-13.22
-7.73
-2.08
3.20
7.52
10.39
11.65
11.47
10.37
8.98
7.85
7.23
7.11
7.14
6.85
5.71
3.30
-0.54
-5.59
-11.19
-16.25
-19.49
-19.88
-16.94
-11.03
-3.25
4.98
12.28
17.75
21.06
22.33
21.92
20.28
17.94
15.46
13.48
12.49
12.77
14.14
15.98
17.45
17.71
16.24
12.98
8.30
2.79
-2.92
-8.32
-13.18
-17.44
-21.16
-24.47
-27.49
-30.29
-32.84
-34.96
-36.19
-35.91
-33.42
-28.24
-20.36
-10.28
0.97
12.11
21.88
29.35
34.02
35.90
35.35
32.95
29.37
25.26
21.22
17.66
14.78
12.55
10.74
8.97
6.93
4.41
1.48
-1.53
-4.25
-6.37
-7.84
-8.86
-9.89
-11.38
-13.72
-16.99
-20.87
-24.62
-27.25
-27.78
-25.56
-20.60
-13.55
-5.63
1.79
7.58
11.12
12.35
11.58
9.25
5.82
1.72
-2.64
-6.84
-10.57
-13.63
-15.97
-17.63
-18.48
-18.19
-16.31
-12.51
-6.94
-0.30
6.22
11.27
13.74
13.01
9.06
2.44
-5.87
-14.61
-22.40
-28.03
-30.56
-29.59
-25.25
-18.24
-9.62
-0.61
7.64
14.21
18.53
20.54
20.55
19.16
16.96
14.40
11.73
9.07
6.52
4.24
2.47
1.35
0.89
0.92
1.22
1.64
2.17
2.92
3.93
5.02
5.85
5.92
4.91
2.78
-0.08
-3.02
-5.28
-6.23
-5.51
-3.13
0.56
5.00
9.57
13.74
17.13
19.60
21.12
21.68
21.22
19.64
16.90
13.23
9.08
5.08
1.79
-0.53
-2.07
-3.31
-4.76
-6.69
-8.96
-11.12
-12.62
-13.19
-12.95
-12.43
-12.35
-13.33
-15.68
-19.24
-23.39
-27.08
-29.08
-28.28
-23.95
-16.04
-5.25
7.14
19.55
30.41
38.55
43.25
44.28
41.95
36.91
30.19
22.94
16.25
10.96
7.54
6.04
6.17
7.43
9.22
11.00
12.36
13.07
13.09
12.52
11.54
10.30
8.84
7.12
5.04
2.52
-0.42
-3.67
-7.03
-10.29
-13.29
-15.89
-18.08
-19.87
-21.29
-22.43
-23.34
-24.04
-24.49
-24.53
-23.95
-22.43
-19.73
-15.65
-10.25
-3.86
2.95
9.44
14.88
18.73
20.71
20.83
19.37
16.74
13.39
9.77
6.30
3.37
1.26
0.08
-0.21
0.21
1.05
2.06
3.03
3.86
4.56
5.07
5.38
5.41
5.08
4.37
3.27
1.88
0.30
-1.32
-2.82
-4.11
-5.18
-6.10
-7.04
-8.16
-9.50
-11.00
-12.38
-13.18
-12.94
-11.31
-8.26
-4.09
0.57
5.02
8.66
11.16
12.47
12.74
12.19
11.00
9.34
7.34
5.20
3.13
1.34
-0.04
-1.00
-1.58
-1.91
-2.07
-2.14
-2.19
-2.26
-2.40
-2.69
-3.18
-3.85
-4.65
-5.45
-6.15
-6.67
-7.03
-7.30
-7.61
-8.06
-8.74
-9.75
-11.12
-12.74
-14.31
-15.29
-15.07
-13.24
-9.73
-4.97
0.27
5.11
8.83
11.09
11.89
11.51
10.26
8.47
6.37
4.13
1.94
-0.04
-1.68
-2.85
-3.51
-3.73
-3.63
-3.44
-3.34
-3.46
-3.84
-4.43
-5.17
-6.00
-6.90
-7.80
-8.63
-9.32
-9.92
-10.58
-11.51
-12.79
-14.29
-15.60
-16.12
-15.29
-12.86
-8.92
-3.97
1.31
6.27
10.40
13.35
14.98
15.27
14.29
12.27
9.50
6.37
3.30
0.65
-1.35
-2.64
-3.31
-3.55
-3.59
-3.60
-3.69
-3.90
-4.20
-4.59
-5.05
-5.61
-6.33
-7.28
-8.53
-10.13
-12.07
-14.23
-16.34
-18.02
-18.76
-18.12
-15.81
-11.82
-6.54
-0.59
5.24
10.26
13.97
16.18
16.94
16.42
14.85
12.46
9.53
6.36
3.37
0.92
-0.70
-1.44
-1.46
-1.04
-0.54
-0.27
-0.37
-0.92
-1.85
-3.06
-4.41
-5.80
-7.16
-8.47
-9.77
-11.14
-12.65
-14.34
-16.04
-17.45
-18.03
-17.20
-14.56
-10.06
-4.11
2.48
8.76
13.92
17.48
19.32
19.60
18.61
16.61
13.89
10.77
7.61
4.77
2.53
1.01
0.21
0.00
0.23
0.72
1.29
1.75
1.90
1.59
0.81
-0.35
-1.66
-2.92
-4.02
-5.03
-6.12
-7.51
-9.32
-11.51
-13.87
-15.95
-17.20
-17.10
-15.32
-11.80
-6.89
-1.20
4.43
9.25
12.72
14.67
15.20
14.59
13.18
11.31
9.17
6.98
4.89
3.11
1.80
1.06
0.85
1.04
1.40
1.67
1.69
1.34
0.64
-0.36
-1.57
-2.89
-4.21
-5.49
-6.67
-7.79
-8.94
-10.22
-11.71
-13.34
-14.83
-15.74
-15.52
-13.80
-10.47
-5.79
-0.35
5.13
9.94
13.57
15.69
16.21
15.17
12.82
9.55
5.91
2.52
-0.06
-1.52
-1.83
-1.22
-0.09
1.15
2.14
2.66
2.64
2.09
1.09
-0.21
-1.63
-3.01
-4.31
-5.64
-7.24
-9.29
-11.73
-14.21
-16.12
-16.77
-15.66
-12.74
-8.50
-3.88
0.03
2.31
2.32
-0.18
-5.05
-11.85
-19.83
-28.05
-35.45
-40.96
-43.64
-42.97
-38.90
-31.91
-22.87
-12.86
-2.91
6.12
13.71
19.59
23.73
26.21
27.17
26.73
25.01
22.24
18.67
14.62
10.47
6.70
3.87
2.53
3.05
5.49
9.60
14.71
19.96
24.50
27.71
29.29
29.26
27.79
25.19
21.78
17.94
14.09
10.69
8.12
6.61
6.10
6.29
6.75
7.03
6.79
5.93
4.52
2.80
1.00
-0.74
-2.40
-4.05
-5.81
-7.77
-9.92
-12.17
-14.31
-16.01
-16.87
-16.46
-14.49
-10.91
-6.02
-0.42
5.14
9.92
13.40
15.37
15.87
15.10
13.36
10.93
8.10
5.27
2.85
1.25
0.72
1.25
2.54
4.05
5.21
5.61
5.12
3.92
2.38
0.84
-0.50
-1.68
-2.87
-4.27
-5.95
-7.88
-9.95
-12.06
-14.13
-16.01
-17.39
-17.79
-16.61
-13.46
-8.40
-2.05
4.59
10.43
14.67
16.97
17.46
16.52
14.59
12.08
9.35
6.78
4.77
3.60
3.37
3.88
4.76
5.54
5.88
5.58
4.65
3.18
1.34
-0.67
-2.65
-4.41
-5.81
-6.84
-7.61
-8.32
-9.23
-10.51
-12.16
-14.02
-15.74
-16.87
-16.93
-15.53
-12.54
-8.10
-2.70
2.96
8.11
12.16
14.81
16.05
16.06
15.09
13.39
11.22
8.91
6.83
5.31
4.56
4.53
4.98
5.56
5.97
6.03
5.74
5.13
4.25
3.14
1.81
0.33
-1.21
-2.73
-4.15
-5.45
-6.62
-7.64
-8.49
-9.18
-9.76
-10.39
-11.27
-12.51
-14.00
-15.34
-15.90
-15.04
-12.35
-7.90
-2.25
3.67
8.88
12.63
14.56
14.80
13.72
11.86
9.66
7.45
5.45
3.83
2.72
2.17
2.16
2.49
2.91
3.12
2.90
2.22
1.21
0.07
-0.99
-1.89
-2.65
-3.35
-4.02
-4.67
-5.25
-5.72
-6.18
-6.76
-7.65
-8.90
-10.44
-11.96
-13.00
-13.07
-11.77
-8.98
-4.89
-0.07
4.72
8.69
11.30
12.35
12.03
10.74
8.90
6.82
4.67
2.55
0.60
-0.95
-1.91
-2.22
-2.02
-1.64
-1.39
-1.48
-1.92
-2.55
-3.16
-3.62
-3.92
-4.16
-4.49
-5.01
-5.74
-6.64
-7.65
-8.70
-9.71
-10.56
-11.05
-10.88
-9.76
-7.47
-4.06
0.15
4.56
8.51
11.45
13.09
13.44
12.75
11.33
9.45
7.31
5.06
2.94
1.21
0.10
-0.25
0.08
0.82
1.58
1.98
1.79
1.00
-0.23
-1.66
-3.08
-4.33
-5.35
-6.19
-6.93
-7.73
-8.68
-9.78
-10.87
-11.60
-11.53
-10.30
-7.77
-4.16
0.06
4.29
7.99
10.82
12.62
13.36
13.09
11.88
9.91
7.47
4.95
2.80
1.41
0.93
1.27
2.10
3.00
3.56
3.54
2.90
1.79
0.44
-0.92
-2.16
-3.25
-4.25
-5.24
-6.30
-7.50
-8.83
-10.23
-11.46
-12.21
-12.10
-10.83
-8.37
-4.90
-0.86
3.22
6.85
9.67
11.46
12.11
11.62
10.09
7.79
5.12
2.59
0.65
-0.39
-0.48
0.21
1.34
2.49
3.27
3.43
2.92
1.89
0.62
-0.58
-1.53
-2.25
-2.96
-3.93
-5.36
-7.23
-9.27
-11.02
-12.02
-11.91
-10.51
-7.92
-4.41
-0.46
3.42
6.72
9.11
10.41
10.63
9.90
8.40
6.39
4.17
2.07
0.42
-0.59
-0.92
-0.75
-0.34
0.03
0.19
0.11
-0.15
-0.47
-0.80
-1.13
-1.56
-2.18
-3.08
-4.25
-5.62
-7.00
-8.17
-8.90
-8.94
-8.12
-6.37
-3.74
-0.46
3.07
6.35
8.95
10.54
11.00
10.40
8.92
6.80
4.35
1.90
-0.17
-1.55
-2.07
-1.79
-0.97
0.01
0.76
1.04
0.85
0.30
-0.36
-0.95
-1.39
-1.74
-2.18
-2.91
-4.08
-5.66
-7.45
-9.08
-10.09
-10.11
-8.92
-6.55
-3.31
0.31
3.74
6.47
8.21
8.90
8.67
7.68
6.12
4.17
1.93
