1699538477.00
64.000000
-0.00
-0.00
-0.00
-0.00
-0.00
-0.00
-0.00
-0.00
-0.00
-0.00
0.00
0.01
0.01
-0.00
-0.03
-0.05
-0.05
0.00
0.13
0.36
0.66
1.01
1.37
1.72
2.06
2.40
2.79
3.24
3.80
4.42
5.06
5.66
6.20
6.68
7.15
7.68
8.31
9.14
10.09
11.04
11.88
12.56
13.14
13.76
14.65
15.96
17.91
20.32
22.90
25.38
27.58
29.57
31.68
34.32
37.81
42.54
48.15
54.10
59.83
64.97
69.58
74.14
79.34
85.71
93.76
103.00
112.62
121.73
129.77
136.75
143.30
150.75
157.77
166.64
177.95
191.79
206.97
220.57
228.25
225.36
208.53
176.87
132.76
80.05
23.07
-34.94
-92.44
-149.16
-205.23
-260.37
-313.74
-363.87
-409.83
-450.91
-486.50
-515.74
-537.23
-549.22
-549.96
-538.37
-514.21
-478.68
-433.88
-382.46
-327.02
-269.83
-212.61
-156.63
-102.94
-52.41
-6.01
35.39
71.17
101.05
125.19
144.09
158.43
168.88
176.06
180.37
182.12
181.55
178.98
174.74
169.21
162.77
155.70
148.24
140.54
132.72
124.89
117.16
109.59
102.19
94.92
87.72
80.54
73.45
66.59
60.13
54.25
48.97
44.16
39.59
34.99
30.21
25.33
20.63
16.44
13.07
10.55
8.61
6.80
4.66
1.97
-1.15
-4.23
-6.72
-8.24
-8.79
-8.76
-8.73
-9.21
-10.46
-12.49
-15.18
-18.26
-21.25
-23.18
-22.77
-18.86
-11.07
-0.24
11.55
21.80
28.60
31.46
31.29
29.65
27.76
25.82
23.23
19.26
13.99
8.45
4.26
2.65
3.76
6.53
9.21
10.17
8.75
5.40
1.39
-1.88
-3.53
-3.54
-2.58
-1.60
-1.35
-1.96
-3.01
-3.84
-3.87
-2.82
-0.74
2.16
5.62
9.32
12.84
15.61
17.01
16.67
14.59
11.22
7.23
3.16
-0.73
-4.40
-7.83
-10.81
-12.91
-13.66
-12.82
-10.49
-7.12
-3.25
0.73
4.69
8.74
12.99
17.36
21.58
25.16
27.63
28.67
28.21
26.39
23.50
19.96
15.88
11.37
6.51
1.37
-3.93
-9.15
-13.92
-17.76
-20.14
-20.64
-19.04
-15.55
-10.87
-6.01
-2.04
0.25
0.63
-0.51
-2.42
-4.22
-5.32
-5.49
-4.87
-3.79
-2.58
-1.45
-0.56
0.01
0.22
0.06
-0.41
-1.11
-1.92
-2.82
-3.85
-5.12
-6.76
-8.74
-10.91
-13.04
-14.90
-16.36
-17.40
-18.09
-18.58
-19.03
-19.54
-20.15
-20.73
-21.09
-21.00
-20.36
-19.28
-18.17
-17.54
-17.68
-18.36
-18.77
-17.79
-14.38
-8.08
0.83
11.49
22.22
31.49
38.28
42.30
43.95
43.90
42.77
40.96
38.55
35.52
31.96
28.20
24.72
22.05
20.57
20.48
21.65
23.80
26.48
29.21
31.49
32.93
33.20
32.17
29.83
26.31
21.81
16.55
10.87
5.20
-0.02
-4.33
-7.47
-9.47
-10.66
-11.54
-12.67
-14.41
-16.86
-19.79
-22.68
-24.75
-25.16
-23.24
-18.79
-12.30
-4.80
2.41
8.16
11.82
13.41
13.34
12.19
10.39
8.13
5.51
2.67
-0.03
-2.10
-3.06
-2.67
-0.97
1.68
4.79
7.86
10.59
12.89
14.89
16.84
18.97
21.41
24.04
26.55
28.52
29.60
29.68
28.99
28.03
27.41
27.58
28.65
30.33
31.93
32.55
31.23
27.10
19.59
8.71
-4.70
-18.82
-31.17
-39.28
-41.56
-37.99
-30.14
-20.63
-12.14
-6.45
-4.16
-4.77
-7.35
-10.99
-15.15
-19.48
-23.69
-27.40
-30.24
-32.07
-33.05
-33.64
-34.31
-35.43
-37.01
-38.76
-40.32
-41.40
-42.01
-42.43
-43.12
-44.43
-46.49
-49.12
-51.91
-54.40
-56.28
-57.53
-58.42
-59.41
-61.05
-63.78
-67.78
-72.77
-78.01
-82.24
-83.92
-81.68
-74.76
-63.45
-49.11
-33.73
-19.32
-7.26
2.01
8.73
13.46
16.65
18.52
19.33
19.52
19.86
21.06
23.40
26.45
29.28
30.99
31.21
30.42
29.56
29.54
30.69
32.57
34.30
34.98
34.18
32.07
29.24
26.35
23.87
21.93
20.43
19.13
17.76
16.06
13.81
11.02
8.04
5.55
4.50
5.76
9.75
16.27
24.52
33.37
41.69
48.63
53.71
56.73
57.66
56.60
53.71
49.30
43.78
37.67
31.47
25.55
20.09
15.12
10.55
6.34
2.52
-0.78
-3.54
-5.87
-8.06
-10.51
-13.57
-17.42
-22.05
-27.24
-32.67
-37.88
-42.35
-45.57
-47.08
-46.73
-44.83
-42.16
-39.89
-39.23
-41.12
-45.83
-52.91
-61.28
-69.49
-76.21
-80.51
-82.01
-80.64
-76.36
-68.81
-57.40
-41.65
-21.64
1.64
26.28
49.92
70.39
86.37
97.68
105.26
110.79
116.22
123.47
134.06
148.72
166.84
186.05
202.23
210.39
206.03
186.83
153.56
109.93
61.43
13.45
-30.05
-67.09
-97.38
-121.55
-140.40
-154.69
-165.05
-172.03
-175.93
-176.69
-173.92
-167.29
-157.03
-144.28
-130.97
-119.17
-110.23
-104.19
-99.64
-94.30
-85.93
-73.14
-55.81
-34.99
-12.51
9.46
28.58
42.62
49.89
49.81
43.48
33.62
23.92
17.70
16.73
20.70
27.53
34.60
39.75
42.00
41.42
38.79
35.00
30.97
27.62
25.88
26.55
29.99
35.68
42.18
47.25
48.21
42.56
28.68
6.53
-22.06
-53.51
-83.40
-107.95
-125.23
-135.68
-141.47
-145.16
-148.36
-151.16
-152.61
-151.65
-147.87
-141.62
-133.37
-123.08
-110.10
-93.84
-74.74
-54.77
-36.92
-23.73
-15.78
-11.13
-6.01
3.42
19.29
41.07
65.89
89.83
109.42
122.71
129.56
131.10
128.99
124.68
119.09
112.55
104.94
95.88
84.90
71.56
55.65
37.72
19.53
4.53
-2.63
2.36
21.31
51.74
86.57
116.21
132.02
129.82
111.47
83.70
54.92
31.68
16.62
8.69
5.07
3.30
2.43
2.78
4.78
8.07
11.27
12.81
11.86
9.05
6.24
5.56
8.30
14.15
21.21
26.85
28.84
26.31
20.16
12.50
5.70
1.38
-0.21
-0.14
-0.21
-2.17
-7.05
-14.80
-24.31
-33.68
-40.69
-43.33
-40.31
-31.56
-18.44
-3.54
9.93
19.17
22.74
21.04
16.04
10.32
6.01
4.03
4.07
5.12
6.27
7.22
8.24
9.73
11.79
14.05
15.87
16.78
16.78
16.31
15.90
15.82
15.90
15.59
14.24
11.48
7.33
2.24
-3.06
-7.80
-11.36
-13.40
-14.01
-13.61
-12.90
-12.54
-12.89
-13.84
-14.77
-14.73
-12.89
-8.85
-2.89
4.16
11.20
17.25
21.72
24.44
25.56
25.35
24.07
21.93
19.20
16.27
13.65
11.84
11.21
11.82
13.46
15.72
18.15
20.36
22.11
23.30
23.89
23.91
23.32
22.03
19.96
17.09
13.51
9.47
5.33
1.42
-2.00
-4.87
-7.35
-9.76
-12.48
-15.74
-19.46
-23.17
-26.04
-27.10
-25.56
-21.12
-14.16
-5.61
3.34
11.59
18.43
23.60
27.14
29.22
30.01
29.66
28.40
26.56
24.58
22.91
21.88
21.61
22.04
22.88
23.80
24.43
24.46
23.73
22.21
20.04
17.47
14.80
12.32
10.20
8.47
6.93
5.29
3.28
0.77
-2.11
-5.06
-7.75
-10.00
-11.88
-13.65
-15.66
-18.22
-21.42
-25.13
-28.97
-32.30
-34.24
-33.88
-30.56
-24.19
-15.49
-5.76
3.47
10.98
16.19
19.21
20.53
20.64
19.90
18.42
16.28
13.73
11.14
8.98
7.58
7.01
7.04
7.29
7.37
7.05
6.26
5.08
3.69
2.23
0.81
-0.57
-1.93
-3.31
-4.71
-6.07
-7.34
-8.49
-9.55
-10.63
-11.84
-13.30
-15.00
-16.90
-18.91
-21.04
-23.36
-25.96
-28.75
-31.32
-32.94
-32.79
-30.27
-25.32
-18.48
-10.78
-3.30
3.05
7.84
11.03
12.89
13.77
14.00
13.88
13.64
13.51
13.68
14.28
15.36
16.80
18.42
19.96
21.16
21.84
21.93
21.49
20.72
19.88
19.20
18.81
18.62
18.35
17.61
16.03
13.45
9.98
6.01
1.95
-1.86
-5.30
-8.42
-11.39
-14.33
-17.35
-20.50
-23.77
-27.03
-29.95
-31.93
-32.27
-30.41
-26.21
-20.05
-12.80
-5.47
1.02
6.15
9.72
11.87
12.82
12.84
12.16
11.01
9.64
8.34
7.41
7.06
7.38
8.27
9.43
10.46
11.00
10.82
9.97
8.65
7.17
5.74
4.45
3.29
2.16
0.98
-0.28
-1.68
-3.24
-5.00
-6.94
-8.97
-10.94
-12.71
-14.21
-15.44
-16.53
-17.61
-18.89
-20.52
-22.61
-25.08
-27.58
-29.46
-29.89
-28.13
-23.86
-17.38
-9.58
-1.65
5.26
10.45
13.73
15.36
15.80
15.47
14.67
13.62
12.54
11.67
11.26
11.42
12.08
13.01
13.90
14.49
14.67
14.49
14.09
13.55
12.89
12.05
10.93
9.47
7.72
5.79
3.84
1.97
0.20
-1.54
-3.37
-5.38
-7.54
-9.77
-11.87
-13.68
-15.08
-16.09
-16.87
-17.66
-18.82
-20.64
-23.31
-26.68
-30.23
-33.09
-34.28
-33.08
-29.35
-23.57
-16.72
-9.96
-4.27
-0.19
2.14
2.90
2.42
1.02
-0.97
-3.27
-5.58
-7.64
-9.25
-10.37
-11.07
-11.58
-12.11
-12.84
-13.83
-15.02
-16.21
-17.19
-17.71
-17.58
-16.64
-14.78
-11.99
-8.32
-3.97
0.79
5.63
10.22
14.30
17.67
20.21
21.84
22.54
22.36
21.37
19.66
17.28
14.28
10.67
6.58
2.34
-1.47
-4.09
-4.84
-3.35
0.22
5.19
10.59
15.43
19.04
21.21
22.08
21.98
21.21
19.93
18.21
16.15
13.97
12.03
10.72
10.22
10.43
10.97
11.40
11.36
10.76
9.72
8.50
7.26
6.10
4.99
3.90
2.85
1.85
0.94
0.04
-0.98
-2.24
-3.79
-5.54
-7.34
-8.95
-10.22
-11.06
-11.56
-11.96
-12.61
-13.82
-15.76
-18.30
-20.99
-23.08
-23.75
-22.39
-18.79
-13.33
-6.81
-0.26
5.40
9.59
12.17
13.40
13.70
13.46
12.92
12.17
11.26
10.32
9.53
9.03
8.85
8.82
8.71
8.32
7.61
6.76
6.00
5.51
5.27
5.07
4.62
3.70
2.27
0.47
-1.47
-3.30
-4.93
-6.42
-7.87
-9.45
-11.23
-13.19
-15.25
-17.28
-19.23
-21.08
-22.93
-24.87
-27.03
-29.50
-32.31
-35.38
-38.41
-40.95
-42.44
-42.40
-40.55
-37.02
-32.28
-27.00
-21.86
-17.24
-13.23
-9.60
-6.03
-2.27
1.77
6.07
10.59
15.36
20.48
25.99
31.82
37.62
42.88
47.04
49.72
50.82
50.54
49.27
47.43
45.30
42.96
40.32
37.26
33.71
29.79
25.76
21.90
18.42
15.35
12.53
9.72
6.78
3.74
0.77
-1.93
-4.23
-6.26
-8.31
-10.74
-13.81
-17.56
-21.80
-26.20
-30.33
-33.73
-35.96
-36.68
-35.66
-32.97
-29.00
-24.39
-19.87
-16.05
-13.19
-11.17
-9.56
-7.86
-5.66
-2.79
0.67
4.50
8.45
12.32
15.91
19.04
21.45
22.88
23.19
22.45
20.98
19.21
17.51
16.03
14.65
13.10
11.23
9.08
6.89
4.96
3.46
2.32
1.24
-0.09
-1.87
-4.07
-6.48
-8.79
-10.75
-12.22
-13.21
-13.79
-14.13
-14.45
-15.05
-16.22
-18.10
-20.53
-22.97
-24.57
-24.50
-22.28
-18.00
-12.34
-6.27
-0.71
3.76
7.00
9.15
10.41
10.89
10.61
9.66
8.24
6.76
5.64
5.17
5.37
6.01
6.75
7.23
7.28
6.90
6.19
5.32
4.45
3.61
2.77
1.82
0.59
-1.00
-2.96
-5.13
-7.31
-9.27
-10.89
-12.19
-13.34
-14.57
-16.09
-18.04
-20.40
-23.06
-25.82
-28.47
-30.90
-33.16
-35.40
-37.85
-40.65
-43.79
-47.11
-50.33
-53.07
-54.86
-55.16
-53.35
-48.94
-41.76
-32.15
-20.96
-9.35
1.57
11.01
18.70
24.77
29.50
33.16
35.90
37.84
39.20
40.32
41.61
43.29
45.29
47.18
48.39
48.48
47.38
45.41
43.09
40.92
39.16
37.78
36.55
35.23
33.66
31.74
29.44
26.70
23.50
19.91
16.11
12.38
9.01
6.19
3.95
2.19
0.70
-0.69
-2.09
-3.53
-4.99
-6.48
-8.07
-9.82
-11.84
-14.16
-16.72
-19.44
-22.14
-24.57
-26.35
-27.06
-26.23
-23.64
-19.39
-14.06
-8.50
-3.61
0.04
2.35
3.62
4.39
5.07
5.82
6.57
7.13
7.41
7.48
7.52
7.73
8.21
8.86
9.51
9.97
10.12
9.98
9.69
9.39
9.20
9.10
8.94
8.53
7.77
6.64
5.32
4.07
3.14
2.64
2.57
2.78
3.07
3.29
3.35
3.22
2.89
2.35
1.61
0.67
-0.42
-1.66
-3.11
-4.88
-7.13
-9.99
-13.42
-17.12
-20.55
-23.04
-24.03
-23.30
-21.08
-17.96
-14.71
-11.99
-10.19
-9.42
-9.55
-10.33
-11.59
-13.14
-14.84
-16.56
-18.12
-19.35
-20.18
-20.60
-20.67
-20.51
-20.18
-19.68
-18.96
-17.93
-16.47
-14.52
-12.05
-9.08
-5.67
-1.85
2.36
6.94
11.82
16.85
21.74
26.07
29.39
31.33
31.72
30.66
28.44
25.49
22.21
18.90
15.70
12.63
9.62
6.60
3.50
0.36
-2.70
-5.47
-7.63
-8.83
-8.80
-7.38
-4.70
-1.06
3.04
7.07
10.57
13.21
14.88
15.61
15.57
14.93
13.88
12.60
11.23
9.93
8.83
7.98
7.38
6.93
6.57
6.28
6.10
6.07
6.18
6.25
6.05
5.28
3.74
1.37
-1.66
-5.05
-8.47
-11.63
-14.33
-16.48
-18.06
-19.06
-19.44
-19.13
-18.09
-16.38
-14.21
-11.93
-9.93
-8.47
-7.60
-7.20
-6.97
-6.63
-5.96
-4.87
-3.34
-1.39
0.91
3.41
5.81
7.72
8.68
8.31
6.49
3.41
-0.48
-4.59
-8.33
-11.26
-13.15
-13.97
-13.89
-13.18
-12.17
-11.12
-10.22
-9.47
-8.77
-8.03
-7.23
-6.50
-6.03
-5.94
-6.22
-6.68
-7.08
-7.22
-6.96
-6.21
-4.92
-3.11
-0.93
1.28
3.00
3.74
3.21
1.57
-0.56
-2.32
-2.89
-1.75
1.13
5.38
10.35
15.32
19.70
23.02
25.04
25.69
25.04
23.32
20.83
17.97
15.15
12.73
10.99
10.04
9.85
10.18
10.67
10.91
10.58
9.58
8.02
6.17
4.32
2.60
1.00
-0.67
-2.51
-4.51
-6.46
-8.10
-9.27
-9.98
-10.39
-10.70
-11.02
-11.33
-11.50
-11.48
-11.32
-11.21
-11.35
-11.90
-12.83
-14.00
-15.21
-16.24
-16.89
-16.97
-16.25
-14.57
-11.90
-8.42
-4.56
-0.90
2.00
3.78
4.39
4.09
3.32
2.50
1.91
1.63
1.57
1.59
1.62
1.70
1.97
2.58
3.59
4.84
6.06
6.91
7.20
6.92
6.26
5.47
4.78
4.22
3.71
3.10
2.32
1.42
0.56
-0.08
-0.44
-0.56
-0.58
-0.69
-0.99
-1.49
-2.13
-2.84
-3.64
-4.61
-5.85
-7.27
-8.57
-9.24
-8.75
-6.81
-3.55
0.48
4.55
7.96
10.25
11.31
11.22
10.16
8.30
5.80
2.88
-0.13
-2.81
-4.77
-5.74
-5.66
-4.71
-3.21
-1.52
-0.03
0.96
1.23
0.70
-0.53
-2.28
-4.26
-6.22
-8.00
-9.59
-11.09
-12.62
-14.27
-16.01
-17.75
-19.39
-20.88
-22.23
-23.46
-24.58
-25.59
-26.53
-27.49
-28.64
-30.08
-31.76
-33.41
-34.53
-34.50
-32.82
-29.25
-23.86
-17.05
-9.35
-1.33
6.49
13.71
20.04
25.26
29.25
31.96
33.40
33.70
33.07
31.82
30.28
28.74
27.42
26.39
25.59
24.84
23.93
22.66
20.95
18.83
16.47
14.07
11.84
9.90
8.20
6.65
5.14
3.65
2.24
1.00
0.00
-0.80
-1.46
-2.07
-2.64
-3.14
-3.59
-4.07
-4.74
-5.71
-6.94
-8.18
-9.03
-9.04
-7.92
-5.65
-2.51
0.99
4.31
7.04
9.00
10.24
10.93
11.25
11.31
11.12
10.70
10.12
9.49
9.00
8.81
8.98
9.48
10.13
10.74
11.10
11.06
10.57
9.69
8.60
7.48
6.47
5.64
4.96
4.35
3.75
3.14
2.54
1.95
1.35
0.70
-0.03
-0.82
-1.62
-2.37
-3.09
-3.80
-4.57
-5.39
-6.21
-6.91
-7.43
-7.73
-7.91
-8.15
-8.60
-9.40
-10.60
-12.11
-13.70
-15.00
-15.60
-15.10
-13.33
-10.39
-6.72
-2.88
0.55
3.20
4.96
5.95
6.43
6.63
6.74
6.86
7.05
7.38
7.90
8.67
9.63
10.65
11.50
11.95
11.86
11.27
10.38
9.45
8.71
8.22
7.88
7.51
7.00
6.33
5.61
4.99
4.53
4.22
3.91
3.49
2.91
2.21
1.52
0.92
0.40
-0.10
-0.68
-1.39
-2.21
-3.05
-3.82
-4.46
-4.96
-5.33
-5.65
-5.97
-6.40
-7.05
-8.02
-9.37
-11.03
-12.80
-14.32
-15.21
-15.14
-13.99
-11.91
-9.32
-6.77
-4.78
-3.71
-3.69
-4.59
-6.19
-8.19
-10.37
-12.59
-14.76
-16.84
-18.80
-20.56
-22.04
-23.16
-23.88
-24.14
-23.90
-23.09
-21.59
-19.31
-16.20
-12.34
-7.93
-3.23
1.47
5.91
9.95
13.49
16.48
18.86
20.55
21.45
21.53
20.82
19.46
17.59
15.38
12.90
10.24
7.47
4.71
2.08
-0.29
-2.35
-4.03
-5.29
-5.99
-5.94
-4.97
-3.04
-0.33
2.80
5.89
8.56
10.56
11.82
12.38
12.32
11.75
10.81
9.66
8.50
7.51
6.81
6.42
6.32
6.44
6.69
6.97
7.17
7.15
6.78
6.00
4.88
3.59
2.37
1.40
0.75
0.36
0.10
-0.16
-0.51
-0.98
-1.57
-2.24
-2.99
-3.81
-4.69
-5.65
-6.71
-7.91
-9.25
-10.68
-12.13
-13.48
-14.68
-15.70
-16.53
-17.10
-17.22
-16.64
-15.14
-12.76
-9.86
-7.07
-5.07
-4.31
-4.82
-6.19
-7.73
-8.84
-9.25
-9.10
-8.82
-8.91
-9.60
-10.75
-11.85
-12.32
-11.81
-10.40
-8.69
-7.59
-7.91
-9.94
-13.25
-16.79
-19.23
-19.50
-17.12
-12.23
-5.27
3.31
13.27
24.32
36.08
48.12
60.38
73.47
88.47
106.00
125.01
142.06
151.87
149.25
131.32
99.19
57.79
14.22
-24.70
-54.45
-73.49
-82.72
-84.17
-79.76
-70.77
-57.84
-41.60
-23.07
-3.86
14.03
28.73
39.08
44.83
46.50
44.84
40.18
32.23
20.35
4.37
-14.64
-34.06
-50.20
-59.44
-59.64
-50.93
-35.81
-18.11
-1.64
11.14
19.67
24.92
28.45
31.50
34.50
37.17
39.05
39.96
40.19
40.16
40.07
39.57
37.88
34.17
28.05
19.89
10.77
2.03
-5.30
-10.87
-15.11
-18.90
-23.06
-27.99
-33.48
-38.87
-43.47
-46.86
-49.05
-50.35
-51.18
-51.84
-52.42
-52.81
-52.82
-52.23
-50.87
-48.66
-45.68
-42.13
-38.36
-34.70
-31.42
-28.58
-26.11
-23.85
-21.69
-19.63
-17.76
-16.27
-15.35
-15.20
-15.97
-17.69
-20.17
-23.05
-25.76
-27.73
-28.48
-27.77
-25.56
-22.03
-17.44
-12.17
-6.72
-1.65
2.49
5.39
7.10
7.99
8.61
9.47
10.80
12.45
14.09
15.36
16.09
16.33
16.34
16.34
16.43
16.46
16.14
15.18
13.38
10.79
7.63
4.24
0.93
-2.04
-4.52
-6.45
-7.77
-8.48
-8.65
-8.45
-8.14
-7.96
-8.10
-8.56
-9.15
-9.55
-9.46
-8.69
-7.20
-5.16
-2.78
-0.39
1.70
3.23
4.05
4.11
3.56
2.66
1.77
1.23
1.33
2.23
3.95
6.41
9.39
12.58
15.60
18.10
19.79
20.59
20.56
19.89
18.76
17.28
15.48
13.37
11.02
8.62
6.42
4.68
3.48
2.68
1.94
0.79
-1.12
-3.90
-7.31
-10.82
-13.74
-15.51
-15.88
-15.06
-13.70
-12.72
-13.03
-15.29
-19.71
-25.92
-32.98
-39.51
-44.04
-45.52
-43.74
-39.68
-35.26
-32.84
-34.27
-40.19
-49.74
-60.90
-71.38
-79.48
-84.61
-87.33
-88.75
-89.92
-91.33
-92.74
-93.40
-92.29
-88.57
-81.78
-71.93
-59.50
-45.30
-30.33
-15.65
-2.20
9.51
19.73
29.62
40.85
54.87
71.99
90.86
108.74
122.58
130.34
131.90
129.09
124.78
121.63
121.24
123.95
129.29
136.57
145.03
153.86
161.99
168.18
171.35
171.03
167.61
162.26
156.51
151.83
149.16
148.88
150.82
154.46
159.04
163.71
167.55
169.60
168.84
164.20
154.66
139.36
118.07
91.41
60.92
28.84
-2.59
-31.66
-57.61
-80.46
-100.63
-118.39
-133.61
-145.89
-154.73
-159.90
-161.47
-159.80
-155.41
-148.98
-141.43
-133.76
-127.01
-121.94
-118.86
-117.58
-117.50
-117.75
-117.37
-115.43
-111.19
-104.28
-94.74
-83.00
-69.79
-55.90
-42.02
-28.69
-16.39
-5.59
3.21
9.47
12.78
12.90
9.83
3.78
-4.80
-15.17
-26.35
-37.25
-46.82
-54.36
-59.60
-62.69
-64.03
-64.05
-63.01
-60.99
-57.84
-53.38
-47.48
-40.23
-31.96
-23.27
-14.93
-7.73
-2.25
1.26
2.90
3.03
2.13
0.65
-1.07
-2.81
-4.45
-5.99
-7.47
-9.04
-10.80
-12.80
-14.96
-17.12
-19.11
-20.87
-22.44
-24.00
-25.75
-27.85
-30.34
-33.01
-35.42
-36.88
-36.64
-34.10
-29.08
-21.89
-13.35
-4.48
3.74
10.67
16.08
20.10
22.97
24.92
26.10
26.60
26.60
26.33
26.10
26.13
26.49
27.07
27.59
27.78
27.43
26.51
25.21
23.76
22.35
21.05
19.75
18.23
16.35
14.12
11.72
9.36
7.22
5.33
3.56
1.75
-0.18
-2.17
-4.11
-5.89
-7.52
-9.13
-10.88
-12.87
-14.97
-16.84
-17.95
-17.72
-15.78
-12.04
-6.82
-0.74
5.40
10.84
14.96
17.43
18.19
17.44
15.63
13.30
11.06
9.36
8.45
8.30
8.69
9.27
9.68
9.68
9.14
8.15
6.93
5.76
4.93
4.61
4.79
5.31
5.92
6.34
6.38
5.97
5.16
4.07
2.82
1.47
-0.04
-1.79
-3.85
-6.09
-8.25
-9.85
-10.39
-9.48
-6.94
-2.89
2.29
8.07
13.88
19.23
23.77
27.26
29.56
30.65
30.60
29.63
28.08
26.42
25.03
24.20
23.98
24.25
24.75
25.18
25.28
24.86
23.85
22.34
20.51
18.63
16.88
15.35
13.99
12.67
11.24
9.61
7.75
5.74
3.69
1.72
-0.08
-1.67
-3.14
-4.67
-6.42
-8.43
-10.47
-12.10
-12.75
-11.98
-9.67
-6.08
-1.80
2.48
6.18
9.00
10.93
12.13
12.81
13.10
13.02
12.55
11.72
10.71
9.79
9.27
9.28
9.77
10.41
10.85
10.80
10.24
9.36
8.46
7.73
7.13
6.43
5.37
3.84
1.95
-0.05
-1.89
-3.42
-4.62
-5.52
-6.19
-6.65
-6.99
-7.33
-7.88
-8.77
-9.96
-11.13
-11.79
-11.43
-9.78
-6.89
-3.21
0.62
3.92
6.29
7.60
8.04
7.94
7.66
7.40
7.28
7.28
7.37
7.54
7.80
8.16
8.65
9.25
9.86
10.35
10.57
10.44
9.98
9.33
8.67
8.12
7.67
7.16
6.42
5.35
4.06
2.80
1.79
1.06
0.46
-0.36
-1.70
-3.70
-6.19
-8.84
-11.21
-12.95
-13.90
-14.06
-13.54
-12.51
-11.08
-9.38
-7.56
-5.81
-4.34
-3.32
-2.82
-2.74
-2.90
-3.08
-3.13
-3.01
-2.80
-2.67
-2.77
-3.23
-4.07
-5.20
-6.50
-7.82
-9.06
-10.26
-11.56
-13.14
-15.10
-17.39
-19.76
-21.92
-23.61
-24.78
-25.59
-26.29
-27.09
-27.95
-28.57
-28.39
-26.78
-23.21
-17.37
-9.32
0.43
10.95
20.94
29.00
34.04
35.64
34.32
31.32
28.28
26.55
26.81
28.91
32.09
35.41
38.15
39.95
40.81
40.90
40.42
39.53
38.41
37.29
36.52
36.48
37.43
39.36
41.88
44.29
45.76
45.64
43.67
40.05
35.29
30.01
24.62
19.33
14.13
8.94
3.75
-1.34
-6.18
-10.56
-14.30
-17.23
-19.29
-20.53
-21.13
-21.41
-21.62
-21.96
-22.42
-22.94
-23.42
-23.91
-24.59
-25.73
-27.51
-29.89
-32.57
-35.11
-37.07
-38.23
-38.64
-38.60
-38.56
-38.88
-39.75
-41.15
-42.93
-44.89
-46.93
-49.08
-51.56
-54.72
-59.03
-64.87
-72.33
-80.90
-89.28
-95.47
-97.18
-92.53
-80.60
-61.66
-37.03
-8.54
21.92
52.73
82.37
109.29
131.62
147.35
154.70
152.64
141.33
122.28
98.21
72.59
48.95
30.20
18.15
13.18
14.44
20.15
28.14
36.35
43.20
47.84
50.11
50.39
49.27
47.20
44.26
40.24
34.84
27.92
19.65
10.38
0.50
-9.73
-20.04
-29.98
-38.81
-45.57
-49.49
-50.38
-48.88
-46.26
-44.02
-43.41
-45.12
-49.18
-55.13
-62.20
-69.51
-76.22
-81.57
-84.95
-86.01
-84.62
-80.87
-74.90
-66.75
-56.30
-43.29
-27.48
-8.94
11.85
33.99
56.26
77.37
96.04
111.19
121.96
127.71
128.16
123.39
113.92
100.66
84.80
67.57
50.15
33.44
18.12
4.65
-6.53
-15.01
-20.34
-22.28
-20.93
-16.89
-11.15
-4.76
1.52
7.47
13.31
19.38
25.76
32.04
37.36
40.74
41.37
38.84
33.23
24.94
14.57
2.74
-10.01
-23.25
-36.72
-50.22
-63.62
-76.68
-88.95
-99.75
-108.20
-113.45
-114.88
-112.35
-106.24
-97.42
-87.00
-76.05
-65.34
-55.21
-45.57
-36.18
-26.86
-17.66
-8.96
-1.23
5.11
9.84
12.92
14.40
14.31
12.65
9.57
5.41
0.71
-3.92
-8.02
-11.35
-13.82
-15.34
-15.66
-14.47
-11.58
-7.07
-1.41
4.70
10.58
15.70
19.79
22.77
24.66
25.51
25.43
24.63
23.41
22.15
21.25
21.02
21.71
23.32
25.68
28.40
30.94
32.77
33.45
32.80
30.87
27.94
24.35
20.48
16.58
12.84
9.33
6.12
3.24
0.69
-1.47
-3.21
-4.51
-5.47
-6.30
-7.33
-8.89
-11.24
-14.37
-17.99
-21.61
-24.67
-26.78
-27.90
-28.30
-28.60
-29.63
-32.25
-37.16
-44.51
-53.57
-62.68
-69.43
-71.41
-66.98
-55.92
-39.60
-20.51
-1.41
15.38
28.53
37.67
43.10
45.49
45.58
44.18
42.08
39.99
38.43
37.63
37.45
37.53
37.39
36.67
35.32
33.58
31.93
30.87
30.68
31.30
32.36
33.29
33.62
33.16
32.08
30.86
29.98
29.78
30.26
31.14
32.04
32.66
32.99
33.26
33.90
35.35
37.87
41.34
45.17
48.26
49.13
46.20
38.31
25.17
7.71
-12.10
-31.76
-48.89
-61.93
-70.24
-74.00
-73.83
-70.49
-64.75
-57.44
-49.55
-42.05
-35.74
-30.97
-27.57
-25.04
-22.79
-20.46
-18.00
-15.61
-13.59
-12.17
-11.36
-10.98
-10.72
-10.18
-9.08
-7.32
-5.08
-2.74
-0.74
0.61
1.30
1.56
1.75
2.13
2.80
3.67
4.56
5.32
5.89
6.28
6.51
6.60
6.53
6.32
6.04
5.80
5.71
5.77
5.92
6.04
6.01
5.78
5.41
5.00
4.70
4.58
4.64
4.76
4.80
4.61
4.15
3.48
2.76
2.13
1.70
1.52
1.57
1.80
2.20
2.76
3.47
4.27
5.03
5.58
5.76
5.50
4.80
3.79
2.64
1.52
0.53
-0.27
-0.86
-1.30
-1.63
-1.86
-2.01
-2.06
-1.99
-1.83
-1.66
-1.58
-1.74
-2.25
-3.15
-4.39
-5.83
-7.26
-8.51
-9.44
-10.01
-10.25
-10.21
-9.87
-9.19
-8.12
-6.68
-5.03
-3.45
-2.26
-1.68
-1.73
-2.25
-2.95
-3.57
-3.94
-4.01
-3.77
-3.22
-2.38
-1.28
-0.04
1.14
2.05
2.56
2.65
2.47
2.17
1.90
1.67
1.44
1.15
0.78
0.41
0.10
-0.12
-0.33
-0.74
-1.65
-3.35
-5.97
-9.42
-13.36
-17.29
-20.67
-23.17
-24.60
-25.00
-24.48
-23.13
-21.09
-18.55
-15.82
-13.32
-11.46
-10.46
-10.29
-10.65
-11.15
-11.50
-11.62
-11.57
-11.53
-11.61
-11.76
-11.86
-11.75
-11.35
-10.71
-9.98
-9.33
-8.89
-8.74
-8.85
-9.13
-9.47
-9.76
-9.98
-10.15
-10.38
-10.80
-11.50
-12.43
-13.40
-14.03
-13.88
-12.62
-10.11
-6.59
-2.56
1.36
4.60
6.82
7.99
8.29
8.05
7.60
7.20
7.08
7.36
8.07
9.15
10.39
11.55
12.42
12.89
12.90
12.50
11.71
10.59
9.23
7.79
6.43
5.24
4.21
3.21
2.05
0.66
-0.95
-2.65
-4.33
-5.90
-7.31
-8.41
-8.94
-8.52
-6.87
-3.96
-0.10
4.13
8.12
11.43
13.94
15.79
17.21
18.37
19.28
19.79
19.79
19.30
18.54
17.92
17.76
18.27
19.35
20.76
22.18
23.38
24.25
24.67
24.56
23.89
22.85
21.91
21.64
22.42
24.13
26.12
27.47
27.50
26.16
24.03
22.02
20.87
20.90
22.10
24.37
27.75
32.39
38.27
44.90
51.33
56.43
59.32
59.78
58.17
55.15
51.29
46.73
41.10
33.82
24.38
12.66
-0.98
-15.79
-30.87
-45.52
-59.43
-72.70
-85.78
-99.18
-113.17
-127.45
-141.04
-152.28
-159.29
-160.51
-155.28
-144.23
-129.27
-113.07
-98.43
-87.58
-81.85
-81.56
-86.20
-94.63
-105.22
-115.99
-124.89
-130.16
-130.78
-126.68
-118.75
-108.46
-97.51
-87.36
-79.09
-73.22
-69.69
-67.67
-65.64
-61.57
-53.45
-39.86
-20.54
3.49
30.14
56.77
80.86
100.52
114.76
123.52
127.46
127.68
125.41
121.74
117.44
113.02
108.64
104.34
100.02
95.61
91.02
86.14
80.90
75.36
69.78
64.63
60.52
57.99
57.31
58.32
60.49
63.07
65.42
67.14
68.17
68.64
68.74
68.52
67.96
66.95
65.44
63.40
60.82
57.65
53.87
49.52
44.75
39.85
35.14
30.92
27.32
24.29
21.70
19.35
17.15
15.03
12.98
10.97
8.89
6.68
4.33
1.97
-0.23
-2.08
-3.56
-4.84
-6.16
-7.72
-9.53
-11.28
-12.57
-12.99
-12.38
-10.87
-8.85
-6.78
-5.04
-3.80
-3.06
-2.65
-2.37
-2.04
-1.59
-1.02
-0.47
-0.20
-0.52
-1.73
-3.98
-7.14
-10.82
-14.39
-17.24
-18.87
-19.11
-18.04
-15.98
-13.32
-10.38
-7.32
-4.24
-1.12
1.96
4.85
7.27
8.93
9.60
9.27
8.14
6.60
5.05
3.74
2.67
1.69
0.55
-0.86
-2.49
-4.16
-5.68
-6.93
-7.93
-8.73
-9.34
-9.70
-9.72
-9.39
-8.88
-8.41
-8.23
-8.39
-8.74
-8.97
-8.77
-7.94
-6.47
-4.48
-2.08
0.63
3.57
6.62
9.55
12.09
14.07
15.53
16.76
18.19
20.17
22.79
25.81
28.79
31.29
33.12
34.41
35.55
37.04
39.31
42.58
46.82
51.69
56.54
60.37
62.00
60.28
54.48
44.56
31.27
15.95
0.11
-14.97
-28.54
-40.47
-51.09
-60.98
-70.66
-80.35
-89.87
-98.66
-106.00
-111.26
-114.12
-114.69
-113.38
-110.75
-107.37
-103.65
-99.95
-96.59
-93.84
-91.68
-89.52
-86.16
-80.00
-69.84
-55.58
-38.61
-21.52
-7.14
2.50
6.91
7.13
5.01
2.39
0.37
-0.74
-1.07
-0.73
0.43
2.65
6.02
10.30
14.97
19.46
23.39
26.71
29.63
32.42
35.20
37.86
40.10
41.58
42.06
41.50
39.98
37.64
34.60
30.90
26.58
21.73
16.52
11.22
6.09
1.33
-2.93
-6.66
-9.97
-13.05
-16.13
-19.34
-22.62
-25.62
-27.74
-28.32
-26.88
-23.37
-18.25
-12.39
-6.77
-2.18
0.97
2.66
3.09
2.54
1.29
-0.38
-2.08
-3.31
-3.56
-2.45
0.06
3.65
7.70
11.51
14.50
16.39
17.18
17.10
16.45
15.48
14.39
13.26
12.11
10.98
9.88
8.85
7.90
6.96
5.92
4.64
3.07
1.20
-0.84
-2.88
-4.87
-6.85
-9.04
-11.68
-14.98
-18.87
-22.96
-26.57
-28.90
-29.26
-27.31
-23.25
-17.75
-11.74
-6.13
-1.54
1.89
4.32
6.08
7.46
8.55
9.34
9.78
9.94
10.02
10.24
10.80
11.71
12.85
14.01
14.98
15.63
15.96
16.02
15.89
15.64
15.33
15.01
14.73
14.50
14.25
13.86
13.15
11.95
10.24
8.08
5.68
3.27
1.02
-1.02
-2.99
-5.12
-7.64
-10.69
-14.17
-17.67
-20.55
-22.03
-21.52
-18.79
-14.10
-8.14
-1.79
4.11
9.03
12.81
15.53
17.41
18.60
19.13
18.96
18.09
16.68
15.05
13.59
12.66
12.40
12.75
13.46
14.21
14.75
14.96
14.80
14.31
13.51
12.36
10.87
9.10
7.22
5.45
4.02
3.04
2.44
2.04
1.60
0.90
-0.22
-1.81
-3.88
-6.41
-9.33
-12.57
-16.01
-19.39
-22.33
-24.33
-24.86
-23.54
-20.33
-15.55
-9.90
-4.18
0.91
4.92
7.74
9.43
10.14
10.02
9.27
8.13
7.02
6.31
6.30
7.05
8.35
9.85
11.16
12.03
12.35
12.14
11.48
10.44
9.08
7.44
5.57
3.59
1.63
-0.21
-1.80
-3.11
-4.17
-5.11
-6.16
-7.54
-9.42
-11.80
-14.42
-16.77
-18.18
-18.00
-15.85
-11.79
-6.33
-0.29
5.43
10.16
13.52
15.49
16.30
16.28
15.77
15.05
14.31
13.71
13.33
13.19
13.30
13.62
14.06
14.47
14.67
14.44
13.69
12.43
10.86
9.21
7.70
6.42
5.33
4.27
3.09
1.69
0.08
-1.67
-3.45
-5.15
-6.70
-8.10
-9.43
-10.80
-12.35
-14.23
-16.46
-18.93
-21.30
-23.08
-23.65
-22.55
-19.62
-15.10
-9.59
-3.88
1.37
5.68
8.89
11.01
12.16
12.51
12.30
11.78
11.28
11.04
11.20
11.71
12.39
13.05
13.49
13.59
13.30
12.58
11.43
9.94
8.27
6.67
5.34
4.29
3.38
2.35
0.96
-0.77
-2.66
-4.37
-5.64
-6.39
-6.83
-7.25
-7.96
-9.08
-10.54
-12.16
-13.73
-15.06
-15.94
-16.13
-15.32
-13.30
-10.01
-5.64
-0.63
4.45
9.10
12.99
15.94
17.92
18.93
18.99
18.18
16.70
14.87
13.09
11.68
10.75
10.25
9.96
9.62
9.08
8.28
7.30
6.32
5.47
4.84
4.38
3.97
3.43
2.65
1.70
0.76
0.05
-0.28
-0.29
-0.18
-0.21
-0.57
-1.27
-2.20
-3.19
-4.12
-4.93
-5.65
-6.33
-7.04
-7.87
-8.91
-10.31
-12.16
-14.43
-16.85
-18.95
-20.12
-19.84
-17.90
-14.49
-10.21
-5.85
-2.08
0.67
2.36
3.25
3.67
3.88
3.97
3.94
3.79
3.57
3.45
3.55
3.96
4.60
5.31
5.91
6.31
6.57
6.83
7.21
7.72
8.19
8.36
8.04
7.16
5.90
4.59
3.57
3.01
2.91
3.02
3.01
2.62
1.68
0.24
-1.53
-3.36
-5.03
-6.35
-7.28
-7.85
-8.19
-8.50
-9.01
-9.93
-11.42
-13.45
-15.75
-17.81
-18.98
-18.67
-16.55
-12.74
-7.77
-2.44
2.45
6.30
8.83
10.07
10.21
9.51
8.20
6.50
4.65
2.94
1.67
1.05
1.13
1.78
2.69
3.55
4.12
4.36
4.42
4.50
4.78
5.25
5.76
6.07
5.96
5.31
4.15
2.60
0.82
-0.97
-2.61
-3.91
-4.77
-5.19
-5.27
-5.26
-5.41
-5.94
-6.90
-8.19
-9.59
-10.78
-11.44
-11.30
-10.23
-8.27
-5.65
-2.76
0.02
2.31
3.93
4.82
5.05
4.67
3.79
2.51
1.04
-0.33
-1.27
-1.60
-1.34
-0.70
-0.07
0.25
0.07
-0.59
-1.53
-2.51
-3.35
-3.93
-4.25
-4.38
-4.41
-4.45
-4.59
-4.93
-5.54
-6.45
-7.67
-9.17
-10.88
-12.66
-14.33
-15.60
-16.12
-15.54
-13.66
-10.56
-6.59
-2.34
1.58
4.72
6.95
8.37
9.22
9.71
9.90
9.74
9.18
8.21
6.96
5.59
4.26
3.08
2.10
1.36
0.86
0.54
0.30
-0.02
-0.62
-1.61
-3.01
-4.68
-6.38
-7.87
-9.00
-9.75
-10.24
-10.59
-10.91
-11.25
-11.66
-12.22
-13.06
-14.21
-15.51
-16.54
-16.67
-15.34
-12.32
-7.85
-2.62
2.56
6.99
10.35
12.68
14.24
15.31
16.08
16.63
17.02
17.33
17.69
18.17
18.71
19.13
19.15
18.59
17.38
15.65
13.66
11.66
9.80
8.07
6.35
4.49
2.39
0.05
-2.47
-5.05
-7.56
-9.86
-11.77
-13.15
-13.96
-14.26
-14.31
-14.47
-15.10
-16.38
-18.27
-20.45
-22.36
-23.41
-23.11
-21.22
-17.84
-13.39
-8.46
-3.67
0.51
3.85
6.33
8.07
9.20
9.84
10.05
9.91
9.59
9.28
9.17
9.40
9.94
10.68
11.43
12.03
12.36
12.37
12.08
11.53
10.79
9.93
8.98
7.93
6.78
5.54
4.29
3.12
2.15
1.45
0.94
0.48
-0.15
-1.14
-2.57
-4.40
-6.45
-8.41
-9.88
-10.45
-9.83
-7.97
-5.09
-1.64
1.81
4.78
7.03
8.52
9.39
9.77
9.74
9.31
8.50
7.40
6.23
5.20
4.48
4.10
3.94
3.83
3.62
3.25
2.72
2.07
1.35
0.54
-0.37
-1.37
-2.45
-3.55
-4.60
-5.54
-6.32
-6.91
-7.30
-7.54
-7.71
-7.87
-8.11
-8.47
-9.00
-9.71
-10.59
-11.63
-12.78
-13.96
-15.11
-16.14
-16.90
-17.16
-16.67
-15.20
-12.69
-9.27
-5.36
-1.48
1.88
4.39
5.96
6.70
6.82
6.54
6.06
5.56
5.17
5.01
5.17
5.68
6.48
7.43
8.32
8.95
9.15
8.88
8.18
7.20
6.12
5.09
4.15
3.29
2.41
1.48
0.48
-0.52
-1.43
-2.17
-2.77
-3.31
-3.95
-4.84
-6.02
-7.37
-8.58
-9.27
-9.07
-7.84
-5.71
-3.03
-0.28
2.12
3.92
5.06
5.56
5.50
4.94
3.99
2.81
1.65
0.78
0.37
0.46
0.91
1.54
2.20
2.81
3.39
3.99
4.63
5.26
5.81
6.24
6.55
6.78
6.94
6.98
6.81
6.37
5.67
4.77
3.79
2.81
1.88
0.95
-0.02
-1.06
-2.16
-3.31
-4.49
-5.67
-6.76
-7.59
-7.91
-7.44
-6.04
-3.76
-0.85
2.30
5.30
7.92
10.08
11.85
13.35
14.64
15.71
16.54
17.15
17.66
18.26
19.08
20.15
21.37
22.53
23.46
24.07
24.38
24.48
24.50
24.48
24.43
24.29
24.04
23.66
23.19
22.71
22.25
21.79
21.20
20.30
18.89
16.84
14.11
10.84
7.22
3.48
-0.14
-3.43
-6.21
-8.33
-9.71
-10.44
-10.76
-11.10
-11.92
-13.55
-16.10
-19.35
-22.84
-26.03
-28.46
-29.90
-30.39
-30.17
-29.56
-28.81
-28.06
-27.34
-26.61
-25.87
-25.12
-24.38
-23.67
-23.00
-22.35
-21.69
-21.00
-20.26
-19.47
-18.63
-17.76
-16.86
-15.99
-15.22
-14.66
-14.43
-14.58
-15.04
-15.53
-15.61
-14.84
-12.96
-10.03
-6.36
-2.47
1.18
4.30
6.78
8.64
9.91
10.64
10.83
10.57
9.95
9.15
8.31
7.58
7.05
6.76
6.67
6.66
6.58
6.27
5.63
4.70
3.59
2.43
1.30
0.22
-0.83
-1.86
-2.81
-3.63
-4.30
-4.87
-5.50
-6.31
-7.39
-8.69
-10.07
-11.35
-12.33
-12.85
-12.75
-11.87
-10.15
-7.64
-4.60
-1.45
1.29
3.21
4.19
4.38
4.19
4.09
4.44
5.38
6.78
8.32
9.65
10.47
10.68
10.31
9.53
8.55
7.57
6.70
6.05
5.64
5.47
5.52
5.72
5.99
6.24
6.42
6.41
6.09
5.27
3.80
1.63
-1.06
-3.85
-6.25
-7.82
-8.39
-8.12
-7.42
-6.81
-6.71
-7.30
-8.53
-10.15
-11.82
-13.22
-14.06
-14.11
-13.22
-11.30
-8.45
-4.92
-1.14
2.40
5.31
7.40
8.74
9.57
10.18
10.74
11.27
11.70
11.98
12.16
12.35
12.68
13.18
13.79
14.34
14.69
14.79
14.66
14.38
14.04
13.72
13.45
13.28
13.28
13.56
14.22
15.35
16.92
18.80
20.72
22.38
23.55
24.11
24.14
23.87
23.54
23.35
23.43
23.76
24.24
24.62
24.46
23.15
20.01
14.55
6.71
-3.02
-13.62
-23.88
-32.67
-39.29
-43.54
-45.64
-46.08
-45.35
-43.86
-41.87
-39.46
-36.58
-33.06
-28.68
-23.36
-17.34
-11.26
-6.13
-3.00
-2.54
-4.73
-8.84
-13.62
-17.76
-20.31
-20.91
-19.81
-17.56
-14.78
-11.94
-9.22
-6.65
-4.22
-2.04
-0.27
0.93
1.70
2.49
3.91
6.43
9.91
13.51
15.88
15.70
12.19
5.48
-3.41
-12.82
-20.90
-25.89
-26.43
-21.82
-12.13
1.62
17.61
33.48
46.87
55.96
59.92
59.06
54.64
48.39
41.92
36.33
31.96
28.54
25.51
22.35
18.75
14.68
10.18
5.26
-0.10
-5.84
-11.69
-17.13
-21.56
-24.47
-25.67
-25.32
-23.79
-21.52
-18.76
-15.48
-11.51
-6.72
-1.25
4.35
9.20
12.32
12.98
10.92
6.45
0.24
-6.99
-14.68
-22.41
-29.74
-35.93
-39.98
-40.91
-38.30
-32.61
-25.19
-17.76
-11.70
-7.59
-5.13
-3.53
-2.01
-0.28
1.55
3.27
4.86
6.65
9.16
12.76
17.39
22.53
27.34
31.07
33.37
34.31
34.35
34.02
33.64
33.17
32.37
30.94
28.83
26.27
23.67
21.39
19.50
17.78
15.89
13.57
10.85
8.05
5.56
3.64
2.26
1.16
0.01
-1.36
-2.93
-4.45
-5.64
-6.35
-6.63
-6.68
-6.73
-7.00
-7.56
-8.40
-9.39
-10.37
-11.18
-11.73
-12.04
-12.18
-12.23
-12.15
-11.76
-10.84
-9.23
-6.99
-4.41
-1.89
0.19
1.69
2.69
3.41
3.98
4.42
4.56
4.27
3.52
2.52
1.55
0.91
0.73
0.98
1.50
2.12
2.69
3.10
3.29
3.22
2.86
2.23
1.43
0.58
-0.20
-0.83
-1.33
-1.75
-2.20
-2.76
-3.50
-4.37
-5.26
-6.04
-6.57
-6.81
-6.82
-6.73
-6.67
-6.67
-6.66
-6.52
-6.13
-5.47
-4.61
-3.65
-2.72
-1.88
-1.14
-0.49
0.04
0.41
0.51
0.28
-0.32
-1.20
-2.16
-2.93
-3.24
-2.94
-2.09
-0.89
0.36
1.37
1.96
2.07
1.68
0.83
-0.44
-2.06
-3.87
-5.62
-7.01
-7.80
-7.92
-7.52
-6.96
-6.66
-6.98
-8.03
-9.65
-11.52
-13.18
-14.28
-14.63
-14.25
-13.40
-12.43
-11.76
-11.69
-12.31
-13.46
-14.79
-15.94
-16.66
-16.96
-16.97
-16.81
-16.50
-15.91
-14.90
-13.42
-11.67
-9.97
-8.64
-7.82
-7.44
-7.25
-7.01
-6.65
-6.21
-5.86
-5.69
-5.72
-5.88
-6.04
-6.18
-6.35
-6.72
-7.42
-8.51
-9.86
-11.17
-12.04
-12.04
-10.92
-8.66
-5.52
-1.95
1.56
4.64
7.11
9.01
10.46
11.58
12.41
12.88
12.93
12.57
11.85
10.95
9.98
9.04
8.16
7.33
6.62
6.16
6.11
6.61
7.67
9.17
10.94
12.84
14.81
16.85
18.98
21.15
23.20
24.92
26.12
26.65
26.36
25.08
22.64
18.97
14.23
8.83
3.32
-1.78
-6.29
-10.43
-14.71
-19.56
-25.13
-31.05
-36.66
-41.27
-44.49
-46.32
-47.06
-46.98
-46.14
-44.35
-41.42
-37.39
-32.72
-28.16
-24.47
-22.07
-20.88
-20.42
-20.09
-19.45
-18.33
-16.88
-15.39
-14.18
-13.56
-13.75
-14.88
-16.90
-19.54
-22.33
-24.72
-26.21
-26.49
-25.45
-23.20
-19.94
-15.98
-11.65
-7.35
-3.48
-0.36
1.85
3.21
3.95
4.40
4.85
5.50
6.41
7.48
8.51
9.31
9.74
9.83
9.72
9.57
9.50
9.46
9.27
8.71
7.61
5.95
3.86
1.58
-0.69
-2.84
-4.90
-7.01
-9.23
-11.47
-13.39
-14.48
-14.25
-12.48
-9.30
-5.19
-0.76
3.47
7.25
10.60
13.62
16.28
18.45
19.90
20.54
20.49
20.07
19.68
19.61
19.93
20.53
21.22
21.85
22.33
22.63
22.72
22.51
21.93
20.92
19.55
17.98
16.38
14.91
13.65
12.57
11.61
10.68
9.71
8.64
7.44
6.08
4.56
2.94
1.32
-0.19
-1.51
-2.66
-3.77
-4.94
-6.23
-7.56
-8.65
-9.13
-8.63
-7.00
-4.33
-1.00
2.50
5.71
8.36
10.42
11.94
12.98
13.56
13.64
13.30
12.78
12.41
12.42
12.88
13.57
14.20
14.52
14.54
14.40
14.28
14.22
14.08
13.64
12.72
11.38
9.83
8.35
7.14
6.20
5.40
4.57
3.66
2.73
1.92
1.34
1.04
0.89
0.72
0.36
-0.23
-0.95
-1.67
-2.33
-2.97
-3.72
-4.71
-5.88
-7.00
-7.71
-7.63
-6.60
-4.65
-2.03
0.93
3.92
6.65
8.86
10.32
10.88
10.56
9.58
8.34
7.26
6.66
6.65
7.18
8.13
9.35
10.73
12.16
13.50
14.58
15.24
15.41
15.11
14.45
13.63
12.80
12.13
11.72
11.60
11.71
11.88
11.91
11.64
10.96
9.93
8.74
7.60
6.66
5.92
5.22
4.33
3.03
1.29
-0.74
-2.75
-4.38
-5.40
-5.77
-5.65
-5.31
-5.02
-4.94
-5.14
-5.57
-6.11
-6.67
-7.17
-7.60
-7.96
-8.25
-8.46
-8.53
-8.43
-8.17
-7.85
-7.65
-7.73
-8.18
-8.93
-9.77
-10.43
-10.75
-10.68
-10.35
-9.91
-9.43
-8.88
-8.15
-7.18
-6.03
-4.90
-4.08
-3.80
-4.16
-5.04
-6.20
-7.37
-8.32
-8.90
-9.12
-9.00
-8.64
-8.10
-7.41
-6.57
-5.56
-4.44
-3.28
-2.26
-1.54
-1.26
-1.40
-1.82
-2.27
-2.49
-2.35
-1.81
-0.99
-0.08
0.74
1.33
1.66
1.75
1.69
1.56
1.41
1.23
0.98
0.64
0.21
-0.26
-0.70
-1.12
-1.56
-2.10
-2.85
-3.82
-4.99
-6.30
-7.68
-9.06
-10.31
-11.24
-11.59
-11.16
-9.92
-8.02
-5.80
-3.61
-1.72
-0.16
1.16
2.38
3.56
4.61
5.44
5.97
6.30
6.59
7.02
7.66
8.38
8.95
9.12
8.78
7.96
6.84
5.63
4.50
3.50
2.64
1.88
1.16
0.38
-0.61
-2.01
-3.98
-6.55
-9.53
-12.61
-15.35
-17.40
-18.60
-18.93
-18.48
-17.36
-15.65
-13.45
-10.86
-8.07
-5.27
-2.61
-0.21
1.88
3.58
4.84
5.65
6.10
6.45
7.07
8.30
10.32
13.02
16.07
19.03
21.48
23.15
23.93
23.91
23.19
21.97
20.36
18.42
16.20
13.76
11.23
8.75
6.49
4.52
2.77
1.12
-0.53
-2.17
-3.61
-4.57
-4.81
-4.22
-2.87
-1.03
0.96
2.74
4.07
4.83
4.99
4.64
3.91
2.88
1.61
0.16
-1.45
-3.13
-4.77
-6.28
-7.65
-8.91
-10.14
-11.42
-12.75
-14.09
-15.37
-16.56
-17.70
-18.88
-20.23
-21.82
-23.62
-25.52
-27.40
-29.18
-30.87
-32.55
-34.27
-35.94
-37.30
-37.90
-37.32
-35.31
-31.92
-27.51
-22.59
-17.66
-13.06
-8.94
-5.36
-2.35
0.02
1.78
3.09
4.32
5.94
8.31
11.58
15.55
19.79
23.83
27.31
30.07
32.07
33.30
33.74
33.44
32.67
31.99
32.19
33.99
37.67
42.84
48.38
52.82
54.83
53.67
49.53
43.32
36.34
29.83
24.59
20.90
18.62
17.33
16.57
15.96
15.22
14.23
12.97
11.54
10.09
8.81
7.80
7.14
6.77
6.59
6.50
6.43
6.34
6.25
6.19
6.20
6.32
6.55
6.87
7.21
7.47
7.51
7.23
6.65
5.88
5.13
4.62
4.41
4.38
4.23
3.60
2.19
-0.04
-2.85
-5.71
-8.03
-9.36
-9.48
-8.47
-6.63
-4.34
-1.96
0.22
1.98
3.16
3.65
3.42
2.61
1.49
0.43
-0.31
-0.62
-0.59
-0.43
-0.35
-0.36
-0.35
-0.10
0.54
1.49
2.38
2.66
1.77
-0.58
-4.27
-8.78
-13.19
-16.41
-17.40
-15.42
-10.31
-2.57
6.67
15.96
23.91
29.56
32.53
32.96
31.25
27.82
23.03
17.17
10.61
3.82
-2.73
-8.61
-13.63
-17.75
-21.08
-23.67
-25.46
-26.25
-25.80
-23.94
-20.69
-16.30
-11.28
-6.28
-1.91
1.45
3.81
5.56
7.44
10.16
14.22
19.55
25.58
31.42
36.20
39.40
41.00
41.41
41.31
41.40
42.19
43.76
45.65
46.88
46.29
43.04
37.09
29.42
21.67
15.48
11.75
10.28
10.04
9.76
8.59
6.34
3.25
-0.49
-5.01
-10.71
-17.92
-26.46
-35.50
-43.76
-49.99
-53.44
-54.19
-53.03
-51.14
-49.58
-48.89
-48.97
-49.17
-48.68
-46.95
-43.93
-40.01
-35.70
-31.30
-26.61
-21.15
-14.42
-6.36
2.46
11.01
18.07
22.71
24.46
23.31
19.56
13.61
5.94
-2.83
-11.91
-20.41
-27.58
-33.15
-37.40
-41.11
-45.07
-49.67
-54.62
-59.04
-61.91
-62.60
-61.12
-58.02
-54.04
-49.67
-44.99
-39.79
-33.86
-27.29
-20.41
-13.63
-7.27
-1.51
3.54
7.57
10.14
10.82
9.56
6.85
3.63
0.93
-0.59
-0.89
-0.43
0.23
0.84
1.68
3.31
6.14
10.05
14.28
17.75
19.62
19.75
18.83
18.15
19.12
22.71
29.23
38.14
48.17
57.48
63.92
65.47
60.80
49.94
34.52
17.58
2.70
-7.24
-10.86
-8.67
-2.47
5.50
13.47
20.44
25.98
29.86
31.72
31.20
28.17
23.10
17.00
11.11
6.41
3.30
1.51
0.37
-0.77
-2.26
-4.05
-5.88
-7.44
-8.65
-9.53
-10.23
-10.83
-11.45
-12.27
-13.57
-15.58
-18.19
-20.79
-22.39
-22.12
-19.82
-16.34
-13.32
-12.36
-14.16
-18.10
-22.50
-25.46
-25.82
-23.66
-20.19
-17.01
-15.26
-15.20
-16.21
-17.34
-17.88
-17.72
-17.25
-17.06
-17.47
-18.31
-19.10
-19.29
-18.64
-17.32
-15.77
-14.41
-13.42
-12.65
-11.85
-10.85
-9.69
-8.60
-7.92
-7.89
-8.66
-10.26
-12.66
-15.76
-19.38
-23.29
-27.27
-31.20
-35.04
-38.76
-42.14
-44.71
-45.82
-44.87
-41.64
-36.37
-29.73
-22.51
-15.34
-8.60
-2.41
3.14
7.93
11.77
14.50
16.11
16.75
16.73
16.30
15.65
14.84
13.93
12.97
12.06
11.26
10.51
9.68
8.58
7.06
5.10
2.82
0.37
-2.15
-4.76
-7.58
-10.76
-14.33
-18.21
-22.25
-26.28
-30.25
-34.16
-38.03
-41.77
-45.20
-48.10
-50.41
-52.29
-54.04
-55.95
-58.12
-60.32
-62.15
-63.22
-63.37
-62.62
-61.09
-58.75
-55.33
-50.46
-43.92
-35.79
-26.45
-16.19
-4.85
8.44
24.84
45.25
69.48
95.99
122.11
144.86
161.88
172.02
175.48
173.30
166.90
157.69
147.03
136.37
127.33
121.50
119.97
122.88
129.09
136.43
142.17
143.84
139.84
129.80
114.38
94.87
72.65
48.92
24.68
0.92
-21.15
-40.09
-54.55
-63.57
-66.94
-65.26
-59.85
-52.38
-44.46
-37.41
-31.97
-28.33
-26.22
-25.11
-24.48
-24.01
-23.61
-23.33
-23.17
-23.01
-22.59
-21.66
-20.16
-18.28
-16.41
-14.91
-13.87
-13.03
-11.89
-9.93
-6.92
-3.00
1.27
5.19
8.15
9.80
10.17
9.56
8.36
6.90
5.28
3.44
1.17
-1.64
-4.96
-8.54
-12.03
-15.10
-17.59
-19.54
-21.08
-22.40
-23.60
-24.70
-25.70
-26.57
-27.29
-27.77
-27.92
-27.59
-26.70
-25.22
-23.18
-20.68
-17.78
-14.47
-10.73
-6.61
-2.27
1.91
5.49
8.06
9.40
9.58
8.89
7.68
6.27
4.81
3.29
1.57
-0.45
-2.81
-5.45
-8.19
-10.81
-13.02
-14.56
-15.20
-14.84
-13.56
-11.66
-9.58
-7.78
-6.61
-6.13
-6.16
-6.33
-6.22
-5.53
-4.18
-2.28
-0.04
2.33
4.77
7.36
10.30
13.73
17.64
21.76
25.54
28.35
29.60
28.96
26.47
22.47
17.48
12.02
6.46
1.01
-4.23
-9.19
-13.79
-17.99
-21.77
-25.09
-27.82
-29.75
-30.57
-30.05
-28.21
-25.39
-22.16
-19.08
-16.50
-14.41
-12.55
-10.59
-8.30
-5.63
-2.72
0.24
3.02
5.47
7.51
9.19
10.75
12.57
15.08
18.62
23.17
28.30
33.22
37.01
38.92
38.56
35.97
31.53
25.75
19.13
12.10
5.01
-1.83
-8.15
-13.79
-18.74
-23.11
-27.11
-30.91
-34.58
-38.10
-41.33
-44.13
-46.29
-47.62
-47.92
-47.07
-45.04
-41.98
-38.20
-34.16
-30.33
-27.09
-24.56
-22.61
-20.86
-18.87
-16.25
-12.82
-8.54
-3.47
2.33
8.76
15.65
22.70
29.49
35.69
41.14
45.89
50.06
53.55
55.93
56.57
54.90
50.77
44.59
37.23
29.61
22.46
16.07
10.38
5.10
-0.04
-5.22
-10.55
-16.06
-21.76
-27.58
-33.37
-38.90
-43.86
-47.98
-50.99
-52.80
-53.43
-53.05
-51.90
-50.18
-47.98
-45.23
-41.78
-37.49
-32.35
-26.48
-20.10
-13.44
-6.69
0.04
6.65
12.97
18.84
24.04
28.44
31.98
34.75
36.98
39.04
41.30
44.05
47.34
50.86
53.91
55.65
55.27
52.36
47.00
39.69
31.18
22.18
13.20
4.50
-3.82
-11.72
-19.16
-26.10
-32.51
-38.44
-43.94
-49.10
-53.88
-58.05
-61.15
-62.62
-61.93
-58.86
-53.59
-46.72
-39.03
-31.23
-23.83
-17.10
-11.22
-6.36
-2.75
-0.52
0.48
0.73
1.03
2.19
4.81
9.05
14.56
20.62
26.40
31.23
34.79
37.19
38.83
40.23
41.79
43.73
45.92
47.97
49.23
48.90
46.24
40.76
32.44
21.77
9.73
-2.48
-13.75
-23.25
-30.51
-35.35
-37.79
-38.06
-36.59
-33.99
-31.02
-28.36
-26.46
-25.42
-25.07
-25.05
-25.04
-24.83
-24.34
-23.56
-22.44
-20.93
-18.97
-16.58
-13.90
-11.16
-8.63
-6.47
-4.63
-2.91
-0.95
1.53
4.65
8.28
12.10
15.75
18.89
21.31
22.89
23.63
23.64
23.18
22.64
22.37
22.58
23.21
23.89
24.12
23.53
21.97
19.62
16.78
13.82
11.00
8.57
6.75
5.80
5.88
6.98
8.78
10.75
12.28
12.96
12.63
11.37
9.39
6.86
3.86
0.45
-3.26
-7.03
-10.49
-13.25
-15.00
-15.54
-14.81
-12.87
-9.88
-6.03
-1.61
3.06
7.67
11.96
15.79
19.08
21.87
24.22
26.28
28.19
30.11
32.10
34.01
35.50
36.09
35.28
32.72
28.26
22.00
14.26
5.53
-3.60
-12.45
-20.39
-26.97
-32.02
-35.72
-38.44
-40.59
-42.48
-44.20
-45.72
-46.98
-47.97
-48.70
-49.17
-49.31
-48.94
-47.84
-45.83
-42.86
-39.12
-34.93
-30.68
-26.67
-23.01
-19.64
-16.40
-13.19
-10.09
-7.35
-5.28
-4.00
-3.37
-3.09
-2.87
-2.61
-2.55
-3.05
-4.42
-6.71
-9.68
-12.89
-15.91
-18.33
-19.81
-20.01
-18.57
-15.27
-10.15
-3.68
3.32
9.84
14.97
18.19
19.44
19.17
18.08
16.96
16.36
16.49
17.21
18.17
19.03
19.63
20.01
20.34
20.75
21.22
21.59
21.62
21.07
19.78
17.67
14.75
11.17
7.19
3.23
-0.18
-2.58
-3.79
-4.00
-3.79
-3.92
-4.99
-7.17
-10.09
-13.01
-15.15
-16.06
-15.69
-14.34
-12.36
-10.01
-7.42
-4.76
-2.33
-0.55
0.28
0.16
-0.51
-1.15
-1.24
-0.59
0.63
2.14
3.76
5.60
7.92
10.90
14.50
18.43
22.26
25.61
28.28
30.14
31.12
31.09
29.90
27.51
24.07
19.92
15.43
10.90
6.38
1.74
-3.22
-8.67
-14.66
-21.20
-28.27
-35.83
-43.76
-51.68
-58.89
-64.43
-67.29
-66.81
-62.82
-55.81
-46.72
-36.71
-26.80
-17.76
-10.07
-3.97
0.40
2.99
3.88
3.36
1.97
0.41
-0.63
-0.71
0.25
1.92
3.79
5.34
6.26
6.54
6.39
6.11
5.89
5.78
5.65
5.31
4.55
3.29
1.62
-0.27
-2.11
-3.71
-5.01
-6.25
-7.86
-10.34
-14.02
-18.82
-24.08
-28.67
-31.27
-30.76
-26.59
-18.97
-8.82
2.59
14.00
24.45
33.41
40.74
46.57
51.21
55.04
58.45
61.73
64.96
68.01
70.55
72.32
73.18
73.19
72.54
71.35
69.63
67.24
64.04
59.94
54.89
48.83
41.55
32.75
22.18
9.83
-3.95
-18.42
-32.70
-45.98
-57.70
-67.37
-74.40
-77.95
-76.97
-70.50
-58.10
-40.09
-17.75
6.79
30.86
51.63
66.76
74.87
75.95
71.35
63.33
54.26
45.77
38.36
31.50
24.27
16.08
7.09
-1.90
-9.83
-15.88
-19.66
-21.28
-21.26
-20.41
-19.67
-19.97
-22.03
-26.20
-32.31
-39.84
-47.99
-56.01
-63.23
-69.14
-73.43
-75.94
-76.87
-76.74
-76.18
-75.53
-74.36
-71.46
-65.26
-54.60
-39.39
-20.76
-0.57
19.37
37.94
54.89
70.45
84.71
97.23
107.10
113.28
115.11
112.59
106.30
97.22
86.47
75.15
64.19
54.26
45.72
38.69
33.14
29.04
26.38
25.14
25.15
26.05
27.34
28.51
29.19
29.18
28.35
26.55
23.61
19.33
13.59
6.39
-2.20
-12.07
-23.10
-34.99
-47.05
-58.15
-66.73
-71.21
-70.43
-64.13
-53.07
-38.89
-23.63
-9.20
3.01
12.29
18.55
22.08
23.37
23.03
21.76
20.39
19.86
21.08
24.81
31.41
40.81
52.33
64.81
76.74
86.46
92.55
94.12
90.99
83.71
73.31
60.97
47.72
34.32
21.26
8.91
-2.43
-12.56
-21.44
-29.22
-36.15
-42.36
-47.72
-51.78
-54.00
-54.03
-51.93
-48.24
-43.75
-39.13
-34.79
-30.68
-26.51
-21.94
-16.70
-10.70
-3.93
3.55
11.63
20.09
28.60
36.75
44.10
50.37
55.37
59.02
61.23
61.81
60.52
57.16
51.61
43.75
33.46
20.63
5.43
-11.44
-28.56
-44.02
-56.01
-63.40
-66.13
-65.07
-61.55
-56.73
-51.31
-45.61
-39.85
-34.46
-29.97
-26.70
-24.49
-22.65
-20.39
-17.20
-13.22
-9.07
-5.57
-3.26
-2.22
-2.15
-2.63
-3.42
-4.48
-6.01
-8.24
-11.28
-15.12
-19.57
-24.23
-28.54
-31.89
-33.81
-34.17
-33.23
-31.58
-29.82
-28.41
-27.51
-27.11
-27.16
-27.62
-28.39
-29.24
-29.68
-29.17
-27.30
-24.04
-19.78
-15.13
-10.67
-6.76
-3.46
-0.68
1.65
3.58
5.08
6.17
6.90
7.40
7.83
8.32
8.99
9.84
10.73
11.38
11.42
10.54
8.64
5.96
2.95
0.10
-2.31
-4.38
-6.48
-9.04
-12.31
-16.23
-20.45
-24.55
-28.14
-30.98
-32.94
-33.90
-33.71
-32.24
-29.48
-25.61
-21.03
-16.24
-11.72
-7.88
-4.97
-3.11
-2.31
-2.41
-3.09
-3.88
-4.28
-3.90
-2.56
-0.32
2.62
5.96
9.44
12.83
15.98
18.80
21.32
23.62
25.82
27.98
30.04
31.75
32.67
32.21
29.77
24.89
17.53
8.15
-2.19
-12.06
-20.00
-24.93
-26.46
-24.99
-21.46
-17.07
-12.90
-9.82
-8.42
-9.10
-12.10
-17.38
-24.56
-32.96
-41.75
-50.21
-57.92
-64.77
-70.73
-75.65
-79.18
-80.92
-80.76
-78.98
-76.14
-72.80
-69.19
-65.14
-60.32
-54.48
-47.66
-40.12
-32.20
-24.15
-16.19
-8.63
-1.81
3.97
8.65
12.50
16.01
19.59
23.35
27.17
30.87
34.45
38.13
42.14
46.52
51.06
55.38
59.29
62.97
66.90
71.57
77.09
82.95
88.12
91.39
91.78
88.93
83.07
74.81
64.91
53.93
42.20
29.98
17.54
5.34
-6.06
-16.18
-24.78
-31.99
-38.15
-43.72
-49.04
-54.30
-59.51
-64.55
-69.17
-72.99
-75.46
-75.93
-73.82
-68.80
-60.96
-50.89
-39.49
-27.82
-16.81
-7.13
0.86
7.03
11.43
14.17
15.41
15.44
14.57
13.24
11.89
10.97
10.79
11.59
13.40
16.10
19.42
22.96
26.31
29.09
31.03
32.00
32.08
31.47
30.49
29.50
28.76
28.38
28.24
28.05
27.52
26.51
25.20
24.08
23.84
25.12
28.33
33.44
40.00
47.31
54.61
61.21
66.68
70.77
73.36
74.38
73.80
71.61
67.94
63.09
57.45
51.42
45.28
39.12
32.89
26.45
19.69
12.59
5.22
-2.25
-9.59
-16.55
-22.94
-28.66
-33.72
-38.28
-42.54
-46.66
-50.71
-54.50
-57.63
-59.49
-59.52
-57.27
-52.68
-46.06
-38.10
-29.64
-21.46
-14.13
-7.91
-2.81
1.30
4.56
7.04
8.74
9.64
9.83
9.46
8.81
8.13
7.58
7.13
6.62
5.80
4.49
2.62
0.25
-2.42
-5.15
-7.75
-10.10
-12.16
-14.04
-15.95
-18.19
-21.07
-24.73
-29.07
-33.63
-37.58
-39.93
-39.82
-36.80
-31.02
-23.19
-14.38
-5.68
2.14
8.64
13.77
17.64
20.41
22.24
23.25
23.60
23.46
22.93
21.97
20.43
18.13
15.03
11.37
7.56
4.11
1.27
-1.02
-3.12
-5.53
-8.48
-11.80
-15.00
-17.48
-18.95
-19.55
-19.74
-20.04
-20.60
-21.15
-21.12
-19.93
-17.25
-13.05
-7.45
-0.58
7.48
16.55
26.22
35.79
44.34
51.01
55.29
57.10
56.78
54.91
52.10
48.85
45.54
42.38
39.48
36.84
34.30
31.53
28.08
23.49
17.44
10.00
1.63
-6.87
-14.63
-20.92
-25.42
-28.21
-29.66
-30.26
-30.32
-29.89
-28.85
-26.99
-24.28
-20.91
-17.25
-13.63
-10.17
-6.66
-2.78
1.70
6.65
11.64
16.05
19.47
21.80
23.30
24.44
25.60
26.98
28.52
30.02
31.19
31.82
31.74
30.87
29.20
26.73
23.52
19.74
15.64
11.65
8.30
6.04
5.15
5.53
6.77
8.29
9.60
10.46
10.97
11.39
12.08
13.23
14.99
17.36
20.22
23.29
25.98
27.47
26.84
23.47
17.40
9.45
0.96
-6.74
-12.93
-17.76
-22.11
-27.04
-33.24
-40.67
-48.70
-56.38
-62.89
-67.77
-70.86
-72.14
-71.56
-69.13
-64.98
-59.59
-53.66
-47.94
-42.91
-38.67
-34.86
-30.99
-26.64
-21.78
-16.78
-12.30
-9.13
-7.95
-9.19
-12.86
-18.45
-24.87
-30.61
-34.17
-34.56
-31.73
-26.58
-20.66
-15.45
-11.81
-9.67
-8.33
-6.82
-4.57
-1.57
1.75
4.77
7.11
8.70
9.69
10.28
10.60
10.71
10.77
11.11
12.18
14.37
17.69
21.71
25.63
28.66
30.35
30.76
30.37
29.79
29.37
29.10
28.67
27.73
26.15
24.07
21.87
19.90
18.39
17.37
16.77
16.45
16.29
16.23
16.15
15.97
15.58
14.90
13.93
12.73
11.37
9.90
8.35
6.76
5.20
3.76
2.52
1.47
0.52
-0.44
-1.45
-2.35
-2.78
-2.36
-0.85
1.57
4.34
6.70
7.98
7.96
6.97
5.63
4.58
4.05
3.68
2.58
-0.47
-6.80
-17.55
-33.35
-53.91
-77.56
-101.28
-121.07
-132.92
-133.90
-123.04
-101.55
-72.40
-39.42
-6.28
24.14
50.08
70.75
86.10
96.49
102.50
104.88
104.45
102.15
98.92
95.50
92.35
89.43
86.30
82.42
77.41
71.32
64.50
57.36
49.99
42.01
32.63
21.13
7.27
-8.35
-24.45
-39.42
-51.96
-61.55
-68.60
-74.20
-79.56
-85.50
-92.02
-98.24
-102.72
-103.91
-100.66
-92.64
-80.48
-65.59
-49.81
-34.88
-22.04
-11.83
-4.14
1.57
5.84
9.01
11.18
12.27
12.34
11.65
10.66
9.81
9.30
8.94
8.32
7.05
5.05
2.60
0.19
-1.78
-3.25
-4.49
-5.98
-8.03
-10.63
-13.41
-15.81
-17.35
-17.88
-17.60
-16.99
-16.59
-16.80
-17.69
-19.04
-20.37
-21.17
-21.04
-19.81
-17.61
-14.74
-11.60
-8.56
-5.90
-3.79
-2.31
-1.44
-1.11
-1.20
-1.58
-2.14
-2.76
-3.21
-3.18
-2.34
-0.40
2.69
6.62
10.80
14.53
17.34
19.17
20.52
22.21
25.04
29.38
34.91
40.60
44.94
46.35
43.66
36.46
25.25
11.34
-3.50
-17.46
-29.09
-37.46
-42.26
-43.54
-41.56
-36.69
-29.38
-20.34
-10.47
-0.84
7.56
14.04
18.32
20.47
20.76
19.40
16.50
12.14
6.47
-0.14
-7.11
-13.69
-19.15
-22.82
-24.26
-23.24
-19.81
-14.26
-7.13
0.72
8.17
13.94
16.89
16.27
12.03
4.83
-4.15
-13.60
-22.37
-29.68
-35.08
-38.21
-38.76
-36.41
-31.12
-23.23
-13.61
-3.45
5.95
13.42
18.05
19.23
16.75
10.91
2.56
-6.92
-16.01
-23.44
-28.50
-31.04
-31.30
-29.49
-25.61
-19.55
-11.37
-1.63
8.55
17.74
24.58
28.13
27.97
24.09
16.66
6.01
-7.25
-22.01
-36.55
-48.91
-57.32
-60.87
-59.76
-55.20
-48.79
-41.93
-35.35
-29.12
-23.00
-16.90
-11.09
-6.17
-2.74
-1.10
-1.12
-2.30
-4.09
-6.14
-8.41
-11.10
-14.40
-18.35
-22.56
-26.33
-28.69
-28.67
-25.52
-18.86
-8.79
4.01
18.42
32.96
46.05
56.34
62.94
65.64
64.85
61.42
56.33
50.45
44.43
38.71
33.61
29.43
26.44
24.85
24.72
25.95
28.26
31.28
34.57
37.66
40.15
41.68
42.05
41.25
39.43
36.93
34.19
31.63
29.61
28.26
27.55
27.25
27.11
26.93
26.58
26.06
25.34
24.38
23.07
21.38
19.34
17.08
14.80
12.68
10.83
9.23
7.78
6.31
4.64
2.64
0.25
-2.47
-5.25
-7.69
-9.31
-9.68
-8.60
-6.18
-2.79
0.98
4.63
7.80
10.33
12.21
13.39
13.75
13.11
11.40
8.80
5.77
2.91
0.75
-0.45
-0.77
-0.53
-0.09
0.28
0.35
-0.16
-1.66
-4.72
-9.74
-16.68
-24.74
-32.64
-39.05
-43.15
-44.74
-44.00
-41.03
-35.61
-27.43
-16.65
-4.26
8.16
19.04
27.53
33.73
38.21
41.20
42.12
39.70
32.88
21.66
7.47
-7.26
-20.00
-28.87
-32.93
-31.93
-26.09
-15.96
-2.60
12.14
25.73
35.45
39.31
36.79
29.08
18.64
8.26
0.02
-5.27
-7.97
-9.01
-9.15
-8.58
-7.02
-4.18
-0.14
4.47
8.75
12.04
14.20
15.53
16.39
16.80
16.29
14.22
10.27
4.77
-1.31
-6.83
-10.98
-13.62
-15.15
-16.22
-17.28
-18.50
-19.77
-20.97
-22.02
-22.96
-23.87
-24.83
-26.01
-27.66
-30.04
-33.26
-37.05
-40.79
-43.64
-44.79
-43.77
-40.61
-35.75
-29.98
-24.24
-19.36
-15.86
-13.74
-12.46
-11.03
-8.35
-3.67
3.16
11.68
21.00
30.24
38.72
46.07
52.06
56.49
59.14
59.81
58.59
55.81
52.11
48.18
44.55
41.46
38.86
36.54
34.30
32.10
30.09
28.55
27.69
27.52
27.75
27.82
27.12
25.30
22.45
19.14
16.19
14.19
13.03
11.79
9.08
3.77
-4.42
-14.70
-25.67
-35.93
-44.65
-51.67
-57.14
-61.11
-63.38
-63.72
-62.17
-59.29
-55.88
-52.46
-49.08
-45.31
-40.87
-36.11
-32.24
-30.77
-32.62
-37.29
-42.60
-45.20
-41.91
-31.28
-14.61
4.23
20.19
29.14
29.60
23.30
14.31
7.01
4.16
5.82
9.81
13.14
13.65
11.02
6.63
2.58
0.48
0.78
2.76
5.26
7.38
8.96
10.50
12.71
15.93
19.93
24.02
27.51
30.03
31.64
32.60
33.12
33.08
32.09
29.66
25.40
19.23
11.43
2.61
-6.42
-14.87
-22.12
-27.95
-32.48
-36.11
-39.18
-41.85
-43.92
-45.04
-44.97
-43.77
-41.91
-40.08
-38.87
-38.66
-39.49
-41.17
-43.39
-45.77
-47.79
-48.92
-48.72
-47.14
-44.53
-41.51
-38.55
-35.43
-31.21
-24.49
-14.12
0.09
17.11
35.01
51.67
65.60
76.22
83.76
88.72
91.40
91.82
89.91
85.88
80.41
74.47
68.91
64.04
59.54
54.69
48.84
41.82
33.99
26.01
18.42
11.38
4.63
-2.24
-9.47
-16.92
-24.07
-30.28
-35.02
-37.99
-39.11
-38.28
-35.32
-29.99
-22.22
-12.44
-1.67
8.56
16.58
21.16
21.87
19.12
13.92
7.40
0.28
-7.20
-15.26
-24.24
-34.39
-45.76
-58.23
-71.55
-85.25
-98.54
-110.30
-119.27
-124.45
-125.43
-122.50
-116.37
-107.72
-96.69
-82.80
-65.23
-43.58
-18.49
8.06
33.09
53.51
67.17
73.54
73.77
70.05
64.65
59.21
54.44
50.46
47.27
45.11
44.35
45.10
46.90
48.66
49.07
47.18
42.81
36.70
30.14
24.43
20.35
17.99
16.89
16.47
16.45
17.04
18.78
22.19
27.47
34.33
42.16
50.23
57.97
65.04
71.31
76.74
81.27
84.77
86.92
87.14
84.62
78.41
67.79
52.57
33.24
11.05
-12.28
-34.77
-54.46
-69.68
-79.22
-82.53
-79.89
-72.31
-61.42
-49.09
-37.16
-27.18
-20.37
-17.56
-19.16
-25.02
-34.30
-45.56
-57.08
-67.34
-75.41
-81.09
-84.74
-87.02
-88.48
-89.46
-90.12
-90.46
-90.35
-89.52
-87.55
-84.01
-78.62
-71.44
-62.81
-53.16
-42.91
-32.34
-21.82
-11.90
-3.26
3.60
8.68
12.65
16.62
21.66
28.27
36.13
44.19
51.05
55.38
56.23
53.14
46.16
35.80
23.11
9.72
-2.21
-10.21
-12.13
-6.75
5.65
23.29
43.41
63.15
80.39
94.11
104.26
111.22
115.36
116.82
115.65
111.92
105.74
97.10
85.78
71.68
55.15
37.40
20.19
5.22
-6.65
-15.68
-22.91
-29.24
-34.78
-38.78
-40.26
-38.86
-35.45
-31.75
-29.52
-29.55
-31.28
-33.15
-33.48
-31.40
-27.31
-22.53
-18.63
-16.60
-16.48
-17.47
-18.58
-19.22
-19.50
-20.02
-21.29
-23.25
-25.11
-25.70
-24.17
-20.54
-15.78
-11.47
-9.17
-9.83
-13.66
-20.25
-28.86
-38.41
-47.32
-53.37
-54.04
-47.34
-32.82
-12.14
11.24
33.17
50.34
61.32
66.63
68.00
67.21
65.29
62.56
59.09
55.40
52.64
52.15
54.78
60.35
67.70
75.20
81.55
86.29
89.94
93.51
97.92
103.46
109.65
115.29
118.85
118.89
114.47
105.56
93.15
79.04
65.21
53.13
43.15
34.52
25.84
15.86
4.05
-9.21
-22.93
-35.99
-47.53
-57.07
-64.46
-69.70
-72.98
-74.70
-75.39
-75.59
-75.65
-75.61
-75.24
-74.30
-72.67
-70.52
-68.21
-66.03
-63.95
-61.47
-57.72
-51.82
-43.23
-32.13
-19.47
-6.82
3.94
11.08
13.54
11.31
5.64
-1.27
-6.89
-9.34
-8.19
-4.74
-1.46
-0.96
-4.95
-13.75
-26.41
-41.16
-55.90
-68.48
-76.96
-79.97
-77.19
-69.56
-58.88
-47.03
-35.19
-23.82
-13.27
-4.78
-0.69
-3.57
-14.60
-32.19
-52.18
-69.48
-80.46
-84.54
-83.98
-82.15
-81.32
-81.37
-80.16
-75.13
-65.08
-51.06
-35.97
-23.10
-14.64
-10.78
-9.89
-9.62
-8.07
-4.67
-0.15
4.12
7.11
8.73
9.91
12.04
16.16
22.42
30.03
37.66
44.03
48.36
50.54
50.89
49.93
48.07
45.54
42.42
38.75
34.62
30.21
25.77
21.44
17.24
13.05
8.73
4.31
0.06
-3.49
-5.82
-6.62
-5.93
-4.17
-1.91
0.37
2.40
4.13
5.63
6.93
8.03
8.86
9.41
9.71
9.76
9.51
8.82
7.57
5.76
3.56
1.29
-0.73
-2.27
-3.30
-3.90
-4.21
-4.30
-4.20
-3.93
-3.63
-3.50
-3.79
-4.71
-6.29
-8.36
-10.63
-12.66
-13.94
-13.95
-12.15
-8.21
-2.09
5.80
14.69
23.58
31.54
37.93
42.49
45.26
46.51
46.52
45.54
43.80
41.48
38.84
36.17
33.66
31.45
29.50
27.64
25.66
23.41
20.84
18.05
15.13
12.15
9.12
5.94
2.50
-1.27
-5.43
-10.03
-15.11
-20.68
-26.72
-32.98
-39.01
-44.10
-47.48
-48.55
-47.05
-43.21
-37.63
-31.20
-24.72
-18.79
-13.71
-9.46
-5.88
-2.76
0.10
2.82
5.47
8.08
10.61
13.00
15.14
16.94
18.35
19.40
20.23
21.03
21.98
23.18
24.60
26.08
27.34
28.02
27.76
26.19
23.07
18.35
12.16
4.83
-3.15
-11.25
-18.90
-25.53
-30.53
-33.33
-33.57
-31.24
-26.83
-21.25
-15.55
-10.67
-7.05
-4.58
-2.64
-0.50
2.39
6.10
10.21
13.99
16.71
17.83
17.13
14.69
10.79
5.78
0.16
-5.53
-10.65
-14.69
-17.41
-19.01
-20.02
-21.11
-22.80
-25.22
-28.14
-31.08
-33.50
-34.92
-35.04
-33.72
-31.08
-27.50
-23.68
-20.47
-18.60
-18.36
-19.35
-20.61
-20.87
-19.00
-14.41
-7.19
1.98
12.15
22.39
31.94
40.32
47.21
52.48
56.15
58.42
59.64
60.28
60.77
61.32
61.90
62.27
62.14
61.28
59.59
57.14
54.10
50.68
47.10
43.52
40.06
36.69
33.26
29.50
25.06
19.64
13.10
5.53
-2.66
-10.86
-18.39
-24.72
-29.63
-33.29
-36.14
-38.72
-41.44
-44.41
-47.41
-50.00
-51.64
-51.96
-50.78
-48.29
-44.87
-41.04
-37.26
-33.71
-30.31
-26.73
-22.54
-17.41
-11.29
-4.43
2.69
9.52
15.61
20.70
24.66
27.46
29.05
29.41
28.58
26.81
24.61
22.60
21.41
21.39
22.52
24.44
26.59
28.42
29.51
29.63
28.72
26.86
24.23
21.08
17.67
14.20
10.72
7.17
3.41
-0.58
-4.70
-8.66
-12.16
-15.01
-17.25
-19.17
-21.10
-23.33
-25.84
-28.37
-30.45
-31.57
-31.42
-29.97
-27.53
-24.59
-21.75
-19.54
-18.33
-18.26
-19.16
-20.53
-21.62
-21.56
-19.55
-15.10
-8.20
0.72
10.84
21.20
30.85
39.09
45.51
49.98
52.61
53.62
53.28
51.90
49.71
46.97
43.80
40.27
36.29
31.69
26.38
20.39
13.97
7.53
1.48
-3.89
-8.44
-12.15
-15.02
-17.01
-18.05
-18.10
-17.28
-15.76
-13.81
-11.72
-9.72
-7.98
-6.64
-5.76
-5.37
-5.44
-5.94
-6.87
-8.28
-10.21
-12.69
-15.66
-18.96
-22.31
-25.39
-27.89
-29.55
-30.26
-29.94
-28.63
-26.38
-23.25
-19.34
-14.86
-10.13
-5.61
-1.73
1.21
3.15
4.29
5.01
5.68
6.61
7.86
9.32
10.79
12.02
12.80
13.00
12.58
11.56
10.05
8.14
5.98
3.72
1.54
-0.42
-2.05
-3.35
-4.46
-5.60
-6.99
-8.79
-11.01
-13.50
-16.06
-18.46
-20.55
-22.20
-23.29
-23.67
-23.17
-21.63
-19.04
-15.54
-11.46
-7.24
-3.31
-0.07
2.29
3.69
4.26
4.19
3.78
3.29
2.93
2.73
2.65
2.61
2.58
2.65
2.97
3.65
4.66
5.83
6.90
7.61
7.78
7.35
6.35
4.87
3.06
1.12
-0.71
-2.26
-3.47
-4.47
-5.47
-6.71
-8.25
-9.92
-11.38
-12.16
-11.89
-10.42
-7.83
-4.48
-0.82
2.65
5.56
7.75
9.20
10.02
10.33
10.25
9.83
9.16
8.41
7.79
7.50
7.61
8.04
8.56
8.93
8.97
8.62
7.89
6.84
5.49
3.86
2.00
0.08
-1.69
-3.12
-4.11
-4.76
-5.28
-5.90
-6.79
-7.96
-9.31
-10.58
-11.46
-11.61
-10.78
-8.87
-5.99
-2.50
1.11
4.34
6.85
8.45
9.16
9.11
8.48
7.48
6.34
5.33
4.75
4.78
5.42
6.50
7.67
8.56
8.91
8.62
7.80
6.64
5.34
4.05
2.80
1.59
0.42
-0.71
-1.77
-2.73
-3.62
-4.51
-5.50
-6.68
-8.05
-9.46
-10.64
-11.26
-10.96
-9.59
-7.20
-4.08
-0.68
2.55
5.32
7.53
9.23
10.52
11.42
11.86
11.75
11.13
10.18
9.25
8.65
8.53
8.81
9.24
9.52
9.46
9.05
8.37
7.54
6.55
5.32
3.75
1.86
-0.18
-2.10
-3.62
-4.60
-5.08
-5.27
-5.41
-5.75
-6.44
-7.55
-9.08
-11.01
-13.21
-15.43
-17.31
-18.38
-18.24
-16.69
-13.83
-10.06
-5.94
-2.08
1.07
3.37
4.91
6.00
7.00
8.28
10.12
12.72
16.09
20.05
24.08
27.51
29.59
29.80
28.11
24.90
20.94
16.98
13.55
10.83
8.73
7.03
5.64
4.62
4.09
4.12
4.62
5.35
6.02
6.45
6.59
6.54
6.36
6.10
5.67
4.97
3.93
2.60
1.11
-0.38
-1.77
-3.09
-4.50
-6.20
-8.39
-11.18
-14.53
-18.29
-22.22
-26.12
-29.77
-33.04
-35.77
-37.80
-38.97
-39.22
-38.63
-37.43
-35.96
-34.48
-33.08
-31.66
-29.95
-27.64
-24.57
-20.73
-16.34
-11.70
-7.13
-2.82
1.16
4.87
8.44
12.03
15.77
19.77
24.09
28.68
33.32
37.55
40.76
42.36
42.00
39.83
36.45
32.86
30.06
28.82
29.44
31.75
35.27
39.43
43.80
48.17
52.54
57.00
61.62
66.35
71.00
75.23
78.66
80.88
81.43
79.88
75.87
69.30
60.48
50.17
39.45
29.40
20.77
13.71
7.84
2.41
-3.35
-9.97
-17.57
-25.85
-34.17
-41.64
-47.36
-50.55
-50.93
-48.73
-44.73
-40.03
-35.69
-32.50
-30.86
-30.88
-32.53
-35.77
-40.49
-46.40
-52.95
-59.35
-64.80
-68.74
-71.05
-72.12
-72.69
-73.64
-75.63
-78.90
-83.12
-87.43
-90.60
-91.36
-88.74
-82.32
-72.42
-60.00
-46.40
-32.91
-20.51
-9.67
-0.37
7.64
14.59
20.51
25.12
27.99
28.69
27.04
23.20
17.73
11.59
6.06
2.40
1.52
3.55
7.63
12.10
15.00
14.78
10.81
3.48
-6.14
-16.72
-27.16
-36.66
-44.60
-50.35
-53.36
-53.25
-50.12
-44.59
-37.63
-30.16
-22.84
-15.89
-9.28
-2.99
2.89
8.06
12.22
15.26
17.36
18.91
20.30
21.80
23.39
24.89
26.01
26.52
26.33
25.45
23.98
22.02
19.73
17.25
14.82
12.69
11.11
10.31
10.43
11.48
13.35
15.85
18.77
21.89
25.08
28.26
31.37
34.34
37.06
39.44
41.44
43.12
44.59
46.05
47.70
49.65
51.94
54.41
56.77
58.63
59.61
59.51
58.37
56.43
54.00
51.21
47.88
43.64
38.10
31.17
23.13
14.51
5.82
-2.71
-11.13
-19.56
-27.86
-35.54
-41.82
-46.02
-47.95
-48.04
-47.21
-46.49
-46.65
-47.95
-50.20
-52.87
-55.40
-57.37
-58.52
-58.81
-58.29
-57.09
-55.34
-53.21
-50.87
-48.49
-46.19
-44.03
-42.00
-40.05
-38.13
-36.19
-34.22
-32.14
-29.84
-27.20
-24.11
-20.56
-16.61
-12.39
-8.04
-3.68
0.55
4.54
8.18
11.42
14.26
16.70
18.72
20.24
21.15
21.39
21.04
20.27
19.34
18.51
17.88
17.45
17.17
16.99
16.92
16.99
17.21
17.46
17.58
17.42
16.94
16.33
15.90
15.97
16.69
17.98
19.55
21.05
22.21
22.92
23.15
22.92
22.24
21.17
19.84
18.52
17.49
17.03
17.28
18.18
19.53
20.96
22.08
22.50
21.95
20.37
17.86
14.68
11.05
7.07
2.70
-2.11
-7.31
-12.66
-17.77
-22.20
-25.54
-27.45
-27.68
-26.13
-22.86
-18.23
-12.84
-7.49
-2.89
0.53
2.71
3.89
4.43
4.66
4.71
4.63
4.38
3.91
3.21
2.22
0.91
-0.72
-2.62
-4.68
-6.72
-8.63
-10.42
-12.18
-14.11
-16.42
-19.24
-22.60
-26.41
-30.46
-34.47
-38.16
-41.32
-43.85
-45.83
-47.45
-48.97
-50.64
-52.60
-54.95
-57.71
-60.88
-64.45
-68.38
-72.57
-76.85
-80.95
-84.52
-87.28
-89.06
-89.93
-90.15
-90.10
-90.12
-90.34
-90.69
-90.82
-90.17
-87.94
-83.08
-74.49
-61.34
-43.37
-21.18
3.92
30.29
56.37
81.10
103.98
124.86
143.64
160.11
173.81
184.20
190.72
192.89
190.42
183.27
171.78
156.85
139.80
122.23
105.54
90.60
77.57
66.03
55.34
45.08
35.27
26.30
18.59
12.29
7.24
3.11
-0.27
-2.81
-4.26
-4.46
-3.64
-2.36
-1.25
-0.77
-0.98
-1.57
-2.12
-2.25
-1.75
-0.59
1.15
3.35
5.88
8.60
11.41
14.15
16.64
18.50
19.26
18.40
15.68
11.28
6.00
1.02
-2.36
-3.19
-1.17
3.30
9.23
15.27
20.02
22.23
21.00
15.98
7.54
-3.24
-14.70
-25.05
-32.82
-37.27
-38.45
-37.02
-33.86
-29.69
-24.96
-19.92
-14.74
-9.64
-4.89
-0.67
2.91
5.92
8.53
10.90
13.13
15.24
17.16
18.81
20.16
21.18
21.86
22.18
22.05
21.41
20.18
18.39
16.12
13.52
10.76
8.01
5.40
3.07
1.13
-0.39
-1.59
-2.67
-3.88
-5.37
-7.03
-8.54
-9.44
-9.38
-8.29
-6.39
-4.10
-1.85
0.03
1.40
2.21
2.48
2.25
1.63
0.81
0.03
-0.50
-0.71
-0.70
-0.65
-0.71
-0.90
-1.13
-1.25
-1.26
-1.25
-1.40
-1.86
-2.65
-3.58
-4.42
-4.92
-4.94
-4.52
-3.78
-2.95
-2.24
-1.79
-1.67
-1.82
-2.13
-2.47
-2.80
-3.18
-3.86
-5.16
-7.38
-10.67
-14.93
-19.75
-24.41
-28.07
-29.88
-29.31
-26.29
-21.34
-15.41
-9.65
-5.00
-1.93
-0.38
0.14
0.19
0.23
0.50
1.08
2.01
3.42
5.32
7.59
9.86
11.60
12.35
11.92
10.50
8.53
6.49
4.72
3.31
2.15
1.02
-0.25
-1.77
-3.57
-5.54
-7.51
-9.28
-10.68
-11.68
-12.40
-12.99
-13.60
-14.25
-14.86
-15.32
-15.59
-15.70
-15.74
-15.84
-16.08
-16.57
-17.38
-18.51
-19.89
-21.30
-22.38
-22.77
-22.16
-20.50
-17.96
-14.90
-11.73
-8.83
-6.37
-4.41
-2.85
-1.54
-0.39
0.62
1.42
1.91
1.97
1.61
0.91
0.10
-0.55
-0.82
-0.66
-0.24
0.18
0.29
-0.10
-1.00
-2.29
-3.80
-5.41
-7.08
-8.80
-10.57
-12.28
-13.80
-15.02
-15.86
-16.35
-16.60
-16.71
-16.80
-16.91
-17.01
-17.07
-17.06
-16.99
-16.89
-16.75
-16.44
-15.74
-14.39
-12.24
-9.37
-6.10
-2.91
-0.23
1.69
2.81
3.25
3.13
2.61
1.80
0.83
-0.11
-0.82
-1.10
-0.83
-0.05
1.14
2.57
3.98
5.16
5.86
5.88
5.13
3.65
1.67
-0.44
-2.25
-3.41
-3.73
-3.30
-2.40
-1.43
-0.76
-0.57
-0.89
-1.53
-2.30
-3.01
-3.60
-4.11
-4.62
-5.22
-6.00
-7.00
-8.17
-9.42
-10.47
-10.94
-10.38
-8.50
-5.27
-1.00
3.73
8.23
11.98
14.75
16.58
17.67
18.25
18.42
18.23
17.65
16.78
15.76
14.81
14.09
13.62
13.23
12.67
11.69
10.21
8.37
6.54
5.10
4.36
4.39
5.01
5.93
6.87
7.70
8.48
9.33
10.36
11.52
12.59
13.26
13.29
12.60
11.30
9.58
7.64
5.56
3.33
0.90
-1.67
-4.26
-6.67
-8.75
-10.40
-11.63
-12.44
-12.79
-12.57
-11.73
-10.32
-8.57
-6.82
-5.46
-4.76
-4.82
-5.59
-6.90
-8.56
-10.39
-12.21
-13.85
-15.23
-16.33
-17.31
-18.37
-19.75
-21.51
-23.57
-25.65
-27.46
-28.76
-29.48
-29.65
-29.34
-28.50
-27.05
-24.91
-22.13
-18.85
-15.32
-11.72
-8.10
-4.37
-0.43
3.75
8.06
12.25
16.08
19.40
22.22
24.63
26.70
28.46
29.87
30.92
31.71
32.43
33.34
34.65
36.40
38.46
40.56
42.38
43.71
44.41
44.46
43.90
42.79
41.16
39.05
36.57
33.91
31.30
28.92
26.76
24.67
22.35
19.54
16.15
12.30
8.28
4.40
0.91
-2.11
-4.66
-6.85
-8.79
-10.52
-12.11
-13.52
-14.74
-15.75
-16.56
-17.21
-17.81
-18.43
-19.16
-20.01
-20.94
-21.84
-22.56
-22.99
-23.07
-22.83
-22.40
-21.95
-21.58
-21.29
-20.98
-20.51
-19.80
-18.84
-17.69
-16.44
-15.09
-13.61
-11.97
-10.15
-8.22
-6.24
-4.21
-2.13
0.03
2.24
4.35
6.19
7.60
8.54
9.18
9.76
10.54
11.69
13.22
15.01
16.85
18.53
19.88
20.80
21.27
21.34
21.08
20.61
19.99
19.27
18.44
17.49
16.46
15.45
14.61
14.05
13.82
13.82
13.89
13.82
13.47
12.83
11.95
10.89
9.67
8.24
6.53
4.58
2.50
0.49
-1.28
-2.77
-4.06
-5.32
-6.66
-8.06
-9.35
-10.34
-10.90
-11.08
-11.05
-11.05
-11.22
-11.60
-12.07
-12.50
-12.76
-12.86
-12.90
-13.01
-13.28
-13.73
-14.29
-14.86
-15.36
-15.81
-16.30
-16.96
-17.75
-18.51
-18.91
-18.62
-17.45
-15.52
-13.23
-11.04
-9.33
-8.14
-7.32
-6.61
-5.89
-5.26
-4.95
-5.19
-5.96
-7.01
-7.97
-8.57
-8.74
-8.69
-8.70
-8.99
-9.62
-10.48
-11.42
-12.34
-13.27
-14.27
-15.42
-16.68
-17.91
-18.91
-19.55
-19.87
-20.06
-20.48
-21.50
-23.43
-26.42
-30.34
-34.77
-39.05
-42.45
-44.31
-44.29
-42.42
-39.10
-34.95
-30.62
-26.66
-23.40
-20.98
-19.33
-18.28
-17.54
-16.84
-15.98
-14.76
-13.13
-11.04
-8.50
-5.53
-2.18
1.52
5.48
9.66
13.97
18.32
22.59
26.63
30.31
33.60
36.54
39.20
41.57
43.52
44.79
45.09
44.29
42.48
40.02
37.35
34.86
32.65
30.62
28.53
26.16
23.45
20.49
17.44
14.49
11.77
9.44
7.74
7.00
7.54
9.56
12.96
17.31
22.01
26.40
30.00
32.54
33.94
34.22
33.51
31.95
29.73
27.07
24.18
21.20
18.20
15.14
11.94
8.53
4.86
0.91
-3.22
-7.33
-11.09
-14.10
-16.09
-16.99
-16.99
-16.52
-15.98
-15.66
-15.64
-15.91
-16.43
-17.21
-18.25
-19.50
-20.79
-21.89
-22.58
-22.79
-22.60
-22.16
-21.57
-20.79
-19.65
-17.92
-15.48
-12.35
-8.80
-5.30
-2.51
-1.13
-1.73
-4.55
-9.36
-15.47
-21.88
-27.55
-31.73
-34.06
-34.65
-33.94
-32.45
-30.66
-28.91
-27.42
-26.33
-25.65
-25.19
-24.57
-23.28
-20.85
-17.09
-12.24
-6.88
-1.76
2.54
5.82
8.21
9.96
11.17
11.64
11.03
9.03
5.65
1.21
-3.72
-8.64
-13.24
-17.47
-21.44
-25.26
-28.94
-32.35
-35.24
-37.24
-37.90
-36.77
-33.56
-28.23
-21.16
-13.06
-4.82
2.73
8.99
13.64
16.64
18.15
18.48
18.05
17.39
17.11
17.71
19.53
22.54
26.42
30.58
34.42
37.47
39.53
40.65
41.06
40.98
40.52
39.62
38.10
35.76
32.52
28.41
23.66
18.59
13.54
8.85
4.74
1.35
-1.33
-3.48
-5.44
-7.55
-10.01
-12.72
-15.20
-16.76
-16.76
-14.90
-11.39
-6.91
-2.35
1.50
4.23
5.79
6.45
6.59
6.53
6.53
6.72
7.17
7.86
8.67
9.38
9.74
9.63
9.26
9.23
10.42
13.62
19.11
26.45
34.55
42.13
48.29
52.82
56.12
58.72
60.73
61.59
60.29
55.84
47.85
36.76
23.68
10.10
-2.50
-12.93
-20.35
-24.42
-25.31
-23.74
-20.70
-17.08
-13.37
-9.48
-4.93
0.78
7.85
16.01
24.69
33.27
41.28
48.48
54.79
60.25
64.89
68.77
72.03
74.86
77.38
79.53
81.00
81.25
79.70
75.87
69.59
61.20
51.45
41.38
31.96
23.72
16.63
10.04
3.14
-4.68
-13.43
-22.40
-30.46
-36.45
-39.66
-40.13
-38.59
-36.20
-34.10
-33.07
-33.35
-34.68
-36.50
-38.20
-39.22
-39.07
-37.27
-33.42
-27.24
-18.84
-8.75
2.08
12.54
21.64
28.76
33.68
36.49
37.31
36.19
33.06
27.90
20.88
12.43
3.29
-5.66
-13.55
-19.75
-23.99
-26.49
-27.86
-28.87
-30.23
-32.33
-35.19
-38.54
-41.96
-45.00
-47.33
-48.76
-49.31
-49.19
-48.82
-48.63
-48.84
-49.23
-49.22
-48.12
-45.56
-41.81
-37.76
-34.59
-33.24
-34.13
-36.97
-40.96
-45.08
-48.41
-50.32
-50.61
-49.62
-48.36
-48.30
-51.07
-57.82
-68.51
-81.48
-93.53
-100.71
-99.65
-88.89
-69.50
-44.89
-19.76
1.37
15.37
21.17
19.73
13.48
5.60
-0.70
-2.75
1.17
11.49
27.29
46.46
66.09
83.14
95.26
101.36
101.71
97.68
90.97
82.86
73.92
64.14
53.56
42.82
33.14
25.82
21.53
19.77
19.19
18.26
16.14
13.07
10.00
7.92
7.18
7.39
7.77
7.74
7.23
6.64
6.44
6.76
7.29
7.45
6.72
4.94
2.31
-0.72
-3.76
-6.61
-9.30
-12.02
-14.93
-18.07
-21.30
-24.31
-26.83
-28.69
-29.86
-30.36
-30.08
-28.65
-25.52
-20.17
-12.53
-3.20
6.60
15.38
21.81
25.14
25.30
22.76
18.37
13.08
7.84
3.42
0.36
-1.24
-1.71
-1.76
-2.14
-3.21
-4.82
-6.32
-6.97
-6.17
-3.72
0.26
5.26
10.75
16.22
21.19
25.21
27.80
28.76
28.45
27.68
27.21
27.56
28.87
30.80
32.73
33.86
33.80
32.72
31.21
29.51
27.60
25.19
21.75
16.56
8.73
-2.12
-15.42
-29.55
-42.61
-52.50
-57.48
-56.86
-49.98
-38.81
-27.82
-22.03
-22.32
-27.81
-36.71
-46.96
-56.59
-64.06
-68.54
-69.39
-65.89
-57.54
-44.88
-29.26
-12.46
3.79
18.35
30.62
40.69
49.04
56.03
61.32
64.41
64.98
63.20
59.51
54.29
47.88
40.66
33.15
25.77
19.00
13.25
8.70
5.23
2.40
-0.26
-3.10
-6.27
-9.96
-14.26
-19.14
-24.42
-29.83
-34.99
-39.29
-41.86
-41.61
-37.50
-28.93
-15.93
0.68
19.50
38.67
56.14
69.66
76.89
75.62
64.59
44.28
17.65
-10.16
-33.35
-47.55
-51.43
-46.98
-38.40
-30.21
-25.59
-25.66
-29.69
-35.87
-41.83
-45.06
-43.16
-34.39
-18.33
3.60
28.33
52.03
71.33
84.20
90.23
90.32
86.28
80.49
75.41
72.90
73.46
75.69
76.70
73.26
63.35
47.32
27.81
8.37
-8.28
-21.57
-33.00
-44.95
-59.19
-75.71
-92.60
-106.84
-115.29
-115.58
-106.72
-89.43
-66.16
-40.86
-17.95
-0.95
8.88
12.64
12.97
12.40
11.98
11.14
8.76
4.60
-0.18
-3.88
-5.99
-8.17
-13.77
-25.57
-43.49
-63.74
-80.18
-87.48
-83.85
-72.07
-57.83
-46.70
-41.34
-40.58
-40.69
-37.82
-30.31
-19.40
-8.22
0.09
3.93
3.77
1.59
-0.59
-1.77
-2.40
-3.85
-7.45
-13.59
-21.41
-29.16
-35.08
-38.23
-38.82
-37.91
-36.60
-35.29
-33.37
-29.56
-22.62
-12.05
1.75
17.71
34.61
51.41
67.27
81.46
93.20
101.78
106.88
108.67
107.72
104.65
99.74
92.84
83.67
72.30
59.53
46.81
35.73
27.30
21.48
17.16
12.65
6.36
-2.53
-13.89
-26.75
-39.79
-51.90
-62.58
-71.93
-80.36
-88.05
-94.53
-98.60
-98.77
-93.99
-84.38
-71.45
-57.65
-45.45
-36.40
-30.64
-27.14
-24.36
-21.05
-16.72
-11.48
-5.73
0.31
6.75
13.95
22.20
31.60
41.91
52.76
63.91
75.52
88.16
102.65
119.49
138.18
156.76
171.84
179.41
176.08
160.51
134.11
100.98
66.70
36.54
13.95
-0.51
-9.24
-16.73
-28.37
-49.34
-83.65
-133.33
-197.40
-271.10
-345.78
-410.30
-453.79
-468.94
-454.22
-413.94
-355.92
-288.04
-215.64
-141.00
-65.10
10.14
80.67
141.22
187.58
218.66
236.87
246.77
252.91
258.26
264.00
269.78
274.55
276.70
274.12
264.59
246.86
221.73
192.46
163.73
139.70
122.08
109.67
99.51
88.93
77.17
65.56
56.21
50.30
47.12
44.45
40.00
32.79
23.75
15.02
8.76
5.91
5.89
7.04
7.66
6.77
4.35
0.96
-2.77
-6.37
-9.54
-11.92
-13.13
-13.00
-11.91
-10.71
-10.38
-11.45
-13.62
-16.05
-17.98
-19.32
-20.78
-23.34
-27.46
-32.62
-37.37
-40.15
-39.98
-37.00
-32.26
-27.21
-23.16
-20.97
-21.03
-23.29
-27.28
-32.07
-36.41
-39.19
-39.92
-39.14
-38.22
-38.65
-41.11
-45.02
-48.80
-50.89
-50.83
-49.67
-49.38
-51.54
-56.16
-61.36
-64.34
-62.75
-55.88
-44.96
-32.31
-20.15
-10.15
-3.49
-1.47
-5.59
-16.65
-33.49
-52.18
-67.07
-73.41
-70.14
-61.11
-53.41
-53.40
-62.81
-77.30
-88.37
-87.69
-71.28
-41.23
-4.39
30.79
57.15
70.38
69.11
54.52
30.03
0.96
-26.26
-45.48
-53.03
-48.84
-36.29
-20.63
-6.77
2.40
6.30
5.97
2.96
-1.41
-6.16
-10.44
-13.32
-14.01
-12.18
-8.21
-3.22
1.35
4.38
5.53
5.54
5.73
7.41
11.16
16.56
22.35
27.02
29.44
29.36
27.34
24.47
21.85
20.17
19.50
19.36
18.95
17.57
14.82
10.83
6.08
1.30
-2.82
-5.83
-7.53
-8.03
-7.55
-6.34
-4.58
-2.44
-0.06
2.31
4.37
5.81
6.43
6.24
5.44
4.30
3.02
1.61
-0.06
-2.19
-4.87
-8.06
-11.59
-15.25
-18.94
-22.61
-26.21
-29.59
-32.49
-34.60
-35.62
-35.35
-33.71
-30.82
-27.24
-24.09
-22.95
-25.31
-31.75
-41.33
-51.48
-58.71
-59.87
-53.34
-39.56
-20.81
-0.24
19.17
35.28
47.06
54.39
57.84
58.39
57.25
55.47
53.55
51.14
47.28
40.87
31.40
19.41
6.31
-6.28
-17.35
-26.95
-36.01
-45.59
-56.00
-66.45
-75.26
-80.61
-81.39
-77.45
-69.47
-58.53
-45.90
-33.19
-22.49
-16.15
-15.95
-21.88
-31.29
-39.22
-40.02
-29.90
-8.76
19.41
48.14
71.10
84.48
87.78
82.95
72.65
58.79
42.27
23.62
3.99
-14.48
-29.28
-38.64
-42.38
-41.82
-38.87
-34.84
-29.93
-23.55
-15.24
-5.59
3.65
10.23
12.52
10.43
5.51
0.25
-2.96
-2.75
0.95
7.15
14.44
21.71
28.48
35.09
42.47
51.72
63.38
76.93
90.51
101.23
106.12
103.18
92.35
75.66
56.68
39.20
25.99
17.88
13.88
11.92
9.93
6.82
2.73
-1.31
-4.09
-4.89
-3.73
-1.08
2.52
6.80
11.73
17.23
22.86
27.81
31.10
31.93
30.01
25.68
19.77
13.40
7.78
3.92
2.45
3.52
6.77
11.32
16.00
19.50
20.68
18.86
13.99
6.76
-1.64
-9.89
-17.04
-22.95
-28.31
-34.34
-42.03
-51.59
-62.22
-72.39
-80.66
-86.39
-90.14
-93.23
-96.95
-101.71
-106.87
-111.24
-113.90
-114.81
-114.64
-114.01
-112.65
-109.08
-101.10
-86.82
-65.63
-38.64
-8.28
22.40
50.57
74.03
91.29
101.62
105.09
102.58
95.64
85.96
74.90
63.08
50.46
37.00
23.49
12.09
6.08
8.93
22.80
47.29
79.15
112.95
142.68
163.48
172.85
170.87
159.59
141.92
120.63
97.86
75.18
53.86
34.93
18.99
5.66
-6.66
-20.51
-38.38
-61.56
-89.27
-118.63
-145.64
-166.49
-178.97
-183.03
-180.61
-174.74
-168.34
-163.24
-159.61
-155.95
-149.76
-138.53
-120.85
-97.06
-69.32
-41.04
-15.86
3.45
15.68
21.42
22.88
23.15
25.47
32.25
44.30
60.41
77.54
91.77
99.68
99.58
92.03
79.48
65.11
51.63
40.56
32.15
26.00
21.64
18.97
18.07
18.79
20.48
21.96
21.94
19.59
14.91
8.78
2.69
-1.92
-4.18
-4.18
-2.87
-1.66
-1.78
-3.64
-6.66
-9.42
-10.32
-8.33
-3.56
2.57
7.74
9.61
6.80
-0.65
-11.30
-22.86
-32.88
-39.45
-41.70
-39.63
-33.97
-25.60
-15.51
-4.79
5.41
13.94
19.75
22.13
20.96
16.74
11.04
5.91
3.50
5.54
12.96
25.61
41.92
59.35
75.03
87.47
96.12
101.08
102.83
102.15
100.06
97.33
94.75
92.81
93.35
97.16
103.22
109.15
112.86
113.56
111.31
107.03
101.24
96.70
94.99
95.80
97.58
99.44
101.94
105.84
112.59
122.82
139.80
164.93
196.24
228.66
256.88
277.35
288.23
290.73
263.49
198.39
106.14
10.38
-69.69
-127.72
-162.80
-184.93
-200.14
-211.37
-217.24
-216.80
-210.40
-200.37
-189.52
-180.02
-173.94
-171.81
-174.22
-180.37
-189.83
-202.75
-219.59
-239.83
-261.28
-280.99
-294.87
-290.90
-261.86
-211.41
-152.32
-98.19
-56.83
-29.56
-13.94
-5.80
-1.19
1.13
1.13
-1.02
-4.43
-7.73
-9.55
-9.14
-5.92
-0.66
4.98
9.66
13.02
15.65
18.45
21.97
26.15
30.56
34.49
36.63
36.21
33.55
29.85
26.38
23.88
22.44
21.64
20.87
19.29
16.42
12.44
8.05
4.22
1.72
1.02
2.17
4.87
8.51
12.42
16.17
19.53
22.43
24.77
26.47
27.46
27.79
27.60
27.13
26.57
26.04
25.57
25.13
24.72
24.29
23.79
23.10
22.03
20.38
17.97
14.77
10.87
6.50
1.92
-2.59
-6.83
-10.70
-14.18
-17.31
-20.19
-22.93
-25.58
-28.05
-30.06
-31.16
-30.77
-28.41
-23.90
-17.43
-9.62
-1.32
6.61
13.50
19.01
23.06
25.80
27.40
28.00
27.71
26.67
25.14
23.49
22.13
21.41
21.37
21.76
22.11
21.92
20.92
19.17
17.05
15.03
13.45
12.34
11.41
10.23
8.46
5.95
2.86
-0.46
-3.66
-6.50
-8.88
-10.89
-12.66
-14.37
-16.21
-18.30
-20.73
-23.42
-26.11
-28.26
-29.19
-28.27
-25.10
-19.78
-12.85
-5.21
2.20
8.59
13.48
16.72
18.38
18.71
18.05
16.80
15.41
14.29
13.71
13.77
14.36
15.24
16.13
16.81
17.17
17.18
16.85
16.15
15.07
13.53
11.57
9.26
6.77
4.31
2.05
0.08
-1.66
-3.32
-5.08
-7.13
-9.58
-12.42
-15.49
-18.40
-20.60
-21.44
-20.39
-17.22
-12.18
-6.01
0.33
5.91
10.11
12.78
14.08
14.37
13.95
13.03
11.80
10.41
9.11
8.15
7.67
7.68
7.98
8.26
8.27
7.84
7.00
5.84
4.50
3.07
1.52
-0.19
-2.10
-4.17
-6.29
-8.35
-10.33
-12.32
-14.43
-16.72
-19.03
-21.00
-22.19
-22.17
-20.67
-17.64
-13.27
-7.89
-2.00
3.82
8.98
12.98
15.48
16.40
15.88
14.24
11.91
9.33
6.94
5.12
4.14
4.07
4.81
6.05
7.36
8.31
8.59
8.08
6.87
5.18
3.31
1.52
-0.06
-1.42
-2.66
-3.94
-5.39
-7.06
-8.93
-10.89
-12.73
-14.08
-14.49
-13.46
-10.66
-6.11
-0.27
6.04
11.87
16.42
19.24
20.29
19.88
18.39
16.24
13.70
10.99
8.28
5.74
3.56
1.86
0.68
0.04
-0.17
-0.08
0.12
0.26
0.24
0.07
-0.11
-0.04
0.48
1.51
2.89
4.27
5.20
5.29
4.23
1.94
-1.47
-5.70
-10.23
-14.42
-17.57
-19.12
-18.83
-16.84
-13.64
-9.94
-6.40
-3.46
-1.26
0.38
1.75
3.14
4.75
6.68
8.98
11.73
15.04
18.98
23.51
28.34
32.98
36.82
39.26
39.87
38.46
35.12
30.17
24.04
17.25
10.27
3.47
-2.78
-8.14
-12.30
-15.05
-16.48
-17.00
-17.35
-18.29
-20.31
-23.36
-26.79
-29.65
-30.97
-30.25
-27.55
-23.49
-18.92
-14.65
-11.19
-8.71
-7.10
-6.12
-5.55
-5.22
-5.00
-4.74
-4.28
-3.50
-2.35
-0.91
0.72
2.50
4.53
6.95
9.90
13.33
16.96
20.37
23.11
24.91
25.76
25.85
25.52
25.04
24.61
24.21
23.76
23.08
22.08
20.81
19.41
18.17
17.36
17.16
17.63
18.74
20.33
22.20
24.06
25.50
26.09
25.41
23.26
19.71
15.18
10.29
5.70
1.91
-0.88
-2.75
-3.99
-4.94
-5.91
-7.09
-8.63
-10.62
-13.12
-16.10
-19.47
-23.00
-26.44
-29.58
-32.31
-34.66
-36.83
-39.02
-41.37
-43.87
-46.28
-48.16
-48.98
-48.19
-45.40
-40.53
-33.83
-25.95
-17.77
-10.22
-4.04
0.32
2.78
3.53
2.89
1.20
-1.24
-4.18
-7.38
-10.61
-13.63
-16.21
-18.22
-19.65
-20.62
-21.39
-22.19
-23.23
-24.53
-25.99
-27.39
-28.48
-29.06
-28.97
-28.17
-26.72
-24.79
-22.62
-20.47
-18.49
-16.63
-14.65
-12.18
-8.91
-4.71
0.26
5.62
10.84
15.44
19.06
21.52
22.84
23.13
22.55
21.23
19.29
16.87
14.16
11.39
8.75
6.32
4.00
1.63
-0.98
-3.94
-7.21
-10.69
-14.26
-17.93
-21.73
-25.71
-29.90
-34.23
-38.60
-42.95
-47.31
-51.80
-56.55
-61.64
-67.07
-72.63
-77.95
-82.50
-85.71
-87.02
-86.10
-82.87
-77.65
-71.04
-63.78
-56.43
-49.16
-41.65
-33.17
-22.90
-10.19
5.20
23.06
42.71
63.10
82.98
100.97
115.76
126.23
131.65
131.83
127.25
119.00
108.63
97.79
87.92
79.87
73.84
69.37
65.66
61.95
57.77
53.06
48.06
43.11
38.48
34.33
30.69
27.54
24.87
22.72
21.10
20.03
19.48
19.34
19.49
19.78
20.03
20.05
19.62
18.51
16.52
13.51
9.45
4.48
-1.07
-6.74
-12.06
-16.65
-20.35
-23.20
-25.39
-27.04
-28.17
-28.62
-28.25
-27.04
-25.26
-23.34
-21.76
-20.80
-20.46
-20.50
-20.55
-20.25
-19.35
-17.68
-15.17
-11.90
-8.14
-4.29
-0.77
2.18
4.58
6.69
8.81
11.14
13.64
16.12
18.31
20.06
21.28
21.95
22.08
21.63
20.60
19.03
17.04
14.81
12.54
10.41
8.56
7.07
5.96
5.19
4.69
4.37
4.16
3.93
3.58
2.99
2.07
0.80
-0.75
-2.44
-4.10
-5.61
-6.98
-8.28
-9.62
-11.09
-12.70
-14.36
-15.98
-17.42
-18.54
-19.17
-19.12
-18.19
-16.24
-13.32
-9.65
-5.67
-1.89
1.27
3.57
4.97
5.58
5.55
5.03
4.15
3.08
1.99
1.05
0.34
-0.18
-0.63
-1.13
-1.73
-2.38
-2.99
-3.52
-3.97
-4.41
-4.90
-5.44
-5.96
-6.40
-6.74
-7.03
-7.34
-7.76
-8.31
-8.97
-9.70
-10.50
-11.39
-12.43
-13.62
-14.88
-16.00
-16.64
-16.47
-15.27
-13.03
-10.03
-6.69
-3.48
-0.72
1.45
3.06
4.15
4.81
5.05
4.96
4.68
4.39
4.29
4.50
5.02
5.76
6.57
7.31
7.84
8.09
8.03
7.70
7.21
6.70
6.27
5.96
5.72
5.42
4.96
4.29
3.47
2.64
1.94
1.47
1.17
0.90
0.44
-0.40
-1.68
-3.29
-4.88
-6.02
-6.33
-5.60
-3.87
-1.37
1.54
4.56
7.43
10.03
12.29
14.16
15.62
16.62
17.14
17.26
17.10
16.85
16.72
16.85
17.29
17.99
18.85
19.81
20.88
22.19
23.85
25.92
28.32
30.83
33.21
35.35
37.27
39.12
41.08
43.14
45.12
46.58
47.05
46.14
43.66
39.66
34.36
28.01
20.89
13.26
5.43
-2.20
-9.27
-15.54
-20.97
-25.74
-30.11
-34.30
-38.34
-42.04
-45.18
-47.54
-49.05
-49.74
-49.67
-48.89
-47.47
-45.46
-42.92
-39.99
-36.86
-33.75
-30.93
-28.69
-27.18
-26.45
-26.36
-26.70
-27.23
-27.82
-28.47
-29.22
-30.12
-31.11
-32.11
-33.08
-34.05
-35.13
-36.36
-37.70
-38.90
-39.67
-39.73
-38.97
-37.50
-35.62
-33.72
-32.08
-30.83
-29.90
-29.15
-28.46
-27.77
-27.10
-26.45
-25.69
-24.60
-22.90
-20.41
-17.10
-13.15
-8.84
-4.49
-0.37
3.30
6.38
8.74
10.34
11.23
11.62
11.76
11.89
12.09
12.25
12.13
11.42
9.95
7.72
4.92
1.86
-1.09
-3.57
-5.25
-5.89
-5.34
-3.67
-1.12
1.93
5.01
7.76
9.87
11.12
11.29
10.16
7.48
3.13
-2.77
-9.79
-17.22
-24.25
-30.16
-34.44
-36.91
-37.61
-36.73
-34.55
-31.34
-27.38
-22.96
-18.38
-13.96
-9.98
-6.68
-4.19
-2.43
-1.17
0.05
1.73
4.37
8.33
13.74
20.53
28.41
37.01
45.88
54.64
63.00
70.79
77.92
84.29
89.69
93.73
96.00
96.24
94.56
91.43
87.59
83.68
80.10
76.78
73.41
69.63
65.23
60.24
54.88
49.43
44.17
39.37
35.35
32.40
30.66
29.99
29.89
29.69
28.80
26.96
24.30
21.21
18.13
15.40
13.14
11.38
10.00
8.70
7.00
4.30
0.07
-5.87
-13.30
-21.62
-30.13
-38.34
-46.11
-53.58
-60.98
-68.44
-75.96
-83.41
-90.53
-96.96
-102.23
-105.84
-107.43
-106.93
-104.65
-101.16
-97.01
-92.52
-87.58
-81.73
-74.36
-65.04
-53.73
-40.89
-27.35
-14.05
-1.70
9.35
19.07
27.62
35.22
42.00
48.16
53.93
59.56
65.23
70.84
75.99
80.14
82.74
83.41
81.84
77.75
70.84
60.95
48.29
33.67
18.50
4.44
-6.93
-14.46
-17.63
-16.52
-11.77
-4.48
3.92
11.90
18.18
22.05
23.52
23.36
22.72
22.78
24.24
27.16
30.90
34.47
36.96
37.88
37.34
35.91
34.31
33.06
32.25
31.56
30.41
28.23
24.65
19.65
13.67
7.57
2.43
-0.77
-1.74
-1.14
-0.41
-1.14
-4.11
-8.74
-13.10
-14.80
-12.08
-4.60
6.40
18.75
30.20
39.00
44.11
45.13
42.06
35.42
26.20
15.86
5.86
-2.86
-10.30
-17.35
-25.26
-34.96
-46.36
-58.25
-68.67
-75.61
-77.85
-75.36
-69.41
-62.09
-55.60
-51.51
-50.20
-50.82
-51.59
-50.59
-46.45
-38.93
-28.97
-18.31
-8.89
-2.23
0.97
0.75
-2.28
-7.32
-13.53
-20.06
-26.15
-31.15
-34.79
-37.34
-39.50
-42.16
-45.90
-50.68
-55.67
-59.61
-61.17
-59.54
-54.66
-47.30
-38.74
-30.37
-23.26
-17.85
-13.98
-10.99
-8.12
-4.80
-0.86
3.49
7.77
11.53
14.54
16.85
18.71
20.48
22.38
24.49
26.79
29.17
31.55
33.82
35.79
37.11
37.32
35.96
32.84
28.16
22.51
16.64
11.17
6.34
1.96
-2.35
-6.94
-11.84
-16.73
-21.05
-24.25
-26.03
-26.39
-25.70
-24.53
-23.53
-23.29
-24.20
-26.39
-29.63
-33.43
-37.15
-40.18
-42.09
-42.73
-42.27
-41.06
-39.56
-38.15
-36.98
-35.93
-34.68
-32.79
-29.97
-26.16
-21.55
-16.56
-11.68
-7.36
-3.89
-1.42
0.06
0.67
0.59
0.01
-0.92
-2.05
-3.25
-4.31
-4.94
-4.77
-3.43
-0.64
3.62
9.10
15.29
21.54
27.20
31.78
34.99
36.79
37.30
36.75
35.38
33.51
31.48
29.61
28.14
27.13
26.43
25.76
24.82
23.45
21.61
19.39
16.92
14.23
11.28
8.04
4.54
1.09
-1.88
-3.82
-4.38
-3.45
-1.28
1.71
4.98
8.15
10.96
13.28
15.03
16.11
16.47
16.16
15.38
14.42
13.64
13.26
13.34
13.76
14.26
14.58
14.49
13.85
12.70
11.16
9.45
7.78
6.29
5.03
3.99
3.13
2.39
1.72
1.01
0.13
-0.90
-1.83
-2.13
-1.20
1.41
5.68
11.05
16.67
21.50
24.66
25.40
23.22
18.02
10.25
1.08
-7.83
-14.72
-18.38
-18.56
-16.04
-12.23
-8.58
-6.09
-5.09
-5.39
-6.47
-7.66
-8.21
-7.36
-4.45
0.82
8.22
16.93
25.71
33.24
38.40
40.63
39.89
36.68
31.79
26.17
20.64
15.83
12.06
9.35
7.51
6.30
5.50
5.00
4.78
4.80
5.00
5.23
5.34
5.21
4.86
4.33
3.76
3.20
2.65
2.01
1.21
0.19
-0.98
-2.25
-3.61
-5.15
-7.02
-9.20
-11.47
-13.34
-14.23
-13.74
-11.83
-8.86
-5.40
-2.01
0.98
3.50
5.68
7.68
9.55
11.23
12.56
13.32
13.37
12.64
11.17
9.11
6.72
4.27
2.01
0.10
-1.37
-2.45
-3.19
-3.71
-4.11
-4.48
-4.87
-5.33
-5.82
-6.32
-6.77
-7.12
-7.38
-7.57
-7.76
-8.06
-8.52
-9.13
-9.84
-10.53
-11.07
-11.36
-11.36
-11.13
-10.82
-10.64
-10.78
-11.35
-12.28
-13.30
-14.01
-14.03
-13.15
-11.40
-9.03
-6.41
-3.93
-1.82
-0.21
0.91
1.59
1.87
1.76
1.26
0.42
-0.65
-1.74
-2.62
-3.07
-2.98
-2.44
-1.62
-0.78
-0.11
0.33
0.61
0.85
1.10
1.34
1.46
1.39
1.17
0.94
0.85
0.97
1.19
1.35
1.29
0.96
0.43
-0.16
-0.77
-1.46
-2.36
-3.59
-5.05
-6.51
-7.60
-7.99
-7.47
-6.07
-3.97
-1.50
0.98
3.19
4.98
6.30
7.18
7.64
7.70
7.34
6.56
5.47
4.25
3.13
2.29
1.80
1.58
1.48
1.36
1.14
0.82
0.41
-0.07
-0.63
-1.30
-2.08
-2.93
-3.80
-4.64
-5.47
-6.35
-7.39
-8.62
-10.00
-11.41
-12.78
-14.09
-15.43
-16.89
-18.49
-20.11
-21.59
-22.83
-23.86
-24.79
-25.67
-26.26
-26.00
-24.15
-20.13
-13.77
-5.39
4.29
14.46
24.39
33.55
41.48
47.75
51.88
53.57
52.76
49.86
45.66
41.12
37.10
34.16
32.42
31.73
31.76
32.19
32.80
33.44
34.01
34.34
34.27
33.60
32.17
29.92
26.86
23.14
18.98
14.69
10.57
6.90
3.82
1.33
-0.66
-2.34
-3.94
-5.63
-7.54
-9.65
-11.78
-13.59
-14.69
-14.73
-13.61
-11.49
-8.81
-6.13
-3.93
-2.52
-1.94
-2.05
-2.62
-3.39
-4.21
-4.93
-5.50
-5.84
-5.90
-5.64
-5.07
-4.26
-3.34
-2.44
-1.70
-1.18
-0.87
-0.73
-0.67
-0.66
-0.71
-0.91
-1.34
-2.02
-2.87
-3.73
-4.43
-4.85
-5.04
-5.17
-5.44
-6.00
-6.79
-7.64
-8.34
-8.77
-8.94
-9.04
-9.28
-9.80
-10.65
-11.76
-13.00
-14.18
-15.08
-15.46
-15.13
-13.97
-12.05
-9.61
-7.02
-4.64
-2.74
-1.42
-0.69
-0.51
-0.80
-1.48
-2.42
-3.41
-4.19
-4.52
-4.27
-3.42
-2.16
-0.75
0.49
1.30
1.54
1.27
0.64
-0.07
-0.63
-0.90
-0.84
-0.51
-0.03
0.55
1.22
2.02
3.03
4.26
5.66
7.13
8.56
9.89
11.13
12.36
13.67
15.13
16.82
18.84
21.31
24.36
28.01
32.15
36.50
40.72
44.45
47.43
49.46
50.39
50.04
48.20
44.68
39.36
32.26
23.68
14.13
4.33
-4.96
-13.12
-19.89
-25.35
-29.98
-34.35
-38.88
-43.68
-48.44
-52.58
-55.46
-56.65
-56.08
-54.08
-51.19
-48.00
-45.00
-42.45
-40.49
-39.18
-38.56
-38.59
-39.12
-39.85
-40.47
-40.82
-41.01
-41.34
-42.11
-43.32
-44.63
-45.50
-45.39
-44.11
-41.84
-38.96
-35.89
-32.82
-29.80
-26.72
-23.54
-20.23
-16.82
-13.25
-9.44
-5.34
-1.04
3.25
7.29
10.95
14.26
17.42
20.66
24.14
27.87
31.73
35.58
39.24
42.65
45.72
48.33
50.28
51.33
51.26
49.94
47.42
43.86
39.55
34.79
29.87
25.00
20.19
15.23
9.78
3.46
-3.87
-11.97
-20.11
-27.29
-32.45
-34.84
-34.18
-30.71
-25.10
-18.31
-11.35
-5.13
-0.27
2.96
4.65
5.10
4.68
3.77
2.68
1.73
1.22
1.43
2.50
4.39
6.86
9.52
11.93
13.73
14.61
14.43
13.23
11.21
8.72
6.09
3.55
1.16
-1.14
-3.44
-5.76
-8.00
-10.05
-11.85
-13.47
-15.00
-16.42
-17.50
-17.83
-17.06
-15.13
-12.42
-9.72
-7.96
-7.86
-9.72
-13.30
-18.00
-23.03
-27.64
-31.24
-33.45
-34.09
-33.21
-30.98
-27.73
-23.79
-19.47
-15.01
-10.61
-6.45
-2.70
0.48
3.02
4.89
6.22
7.16
7.89
8.50
9.01
9.32
9.26
8.66
7.43
5.63
3.49
1.42
-0.14
-0.77
-0.19
1.60
4.40
7.79
11.27
14.43
16.98
18.85
20.12
20.91
21.35
21.49
21.32
20.77
19.74
18.23
16.27
14.04
11.73
9.60
7.82
6.43
5.39
4.54
3.74
2.90
1.97
0.92
-0.27
-1.62
-3.19
-4.91
-6.69
-8.35
-9.74
-10.71
-11.19
-11.22
-10.96
-10.68
-10.75
-11.54
-13.31
-16.14
-19.79
-23.73
-27.26
-29.66
-30.37
-29.12
-25.97
-21.36
-15.98
-10.70
-6.36
-3.56
-2.45
-2.70
-3.64
-4.51
-4.81
-4.38
-3.36
-1.97
-0.31
1.63
3.88
6.31
8.57
10.30
11.35
11.93
12.53
13.66
15.65
18.53
22.21
26.48
31.07
35.61
39.70
43.11
45.94
48.67
51.82
55.61
59.73
63.42
66.05
67.41
67.91
68.10
68.22
67.90
66.42
63.28
58.54
52.82
46.80
40.80
34.63
27.93
20.63
13.13
6.22
0.51
-3.88
-7.43
-10.88
-14.73
-18.93
-22.92
-26.03
-28.03
-29.28
-30.66
-33.02
-36.65
-41.03
-45.06
-47.60
-48.12
-46.98
-45.16
-43.65
-42.86
-42.47
-41.72
-40.02
-37.39
-34.45
-32.08
-30.81
-30.52
-30.54
-30.04
-28.55
-26.18
-23.51
-21.28
-20.02
-19.94
-21.03
-23.25
-26.55
-30.68
-34.90
-37.96
-38.31
-34.80
-27.31
-17.01
-6.04
3.28
9.34
11.82
11.64
10.31
9.25
9.19
10.10
11.54
13.04
14.47
15.98
17.77
19.87
21.98
23.55
24.10
23.37
21.53
19.04
16.50
14.36
12.80
11.67
10.67
9.46
7.95
6.23
4.63
3.50
3.08
3.42
4.37
5.70
7.15
8.55
9.79
10.80
11.54
11.95
11.99
11.68
11.08
10.32
9.52
8.74
7.97
7.06
5.87
4.29
2.37
0.37
-1.35
-2.46
-2.85
-2.71
-2.43
-2.53
-3.39
-5.25
-8.08
-11.62
-15.45
-19.02
-21.72
-23.04
-22.65
-20.55
-17.05
-12.68
-8.05
-3.64
0.22
3.38
5.79
7.48
8.50
8.97
9.07
8.98
8.88
8.79
8.64
8.30
7.71
6.90
6.03
5.28
4.78
4.52
4.38
4.17
3.67
2.75
1.35
-0.51
-2.77
-5.34
-8.14
-11.12
-14.22
-17.42
-20.63
-23.70
-26.45
-28.60
-29.85
-29.85
-28.22
-24.63
-18.97
-11.31
-2.19
7.41
16.33
23.55
28.44
30.95
31.55
30.80
29.62
28.47
27.49
26.62
25.66
24.58
23.51
22.83
22.75
23.80
25.86
28.42
30.77
32.28
32.61
31.75
29.92
27.12
24.09
21.48
20.47
22.51
28.53
38.01
48.35
57.11
57.36
46.92
25.92
-2.73
-34.62
-65.41
-91.88
-112.14
-125.15
-130.66
-128.39
-119.52
-106.44
-92.27
-79.60
-69.40
-60.73
-51.49
-39.97
-25.34
-8.73
7.73
21.96
32.73
39.74
43.24
43.40
39.98
33.02
22.80
10.39
-2.49
-13.85
-22.08
-26.53
-27.55
-26.35
-24.22
-22.24
-20.78
-19.57
-17.97
-15.42
-11.81
-7.57
-3.55
-0.57
0.79
0.43
-1.34
-4.00
-7.01
-9.98
-12.57
-14.44
-15.14
-14.33
-11.91
-8.26
-4.15
-0.48
2.17
3.75
4.70
5.67
7.13
9.15
11.54
14.15
17.10
20.72
25.29
30.64
36.06
40.50
43.05
43.41
42.16
40.59
40.22
42.15
46.64
53.04
60.03
66.09
69.91
70.61
67.87
61.78
52.82
41.85
29.94
18.24
7.78
-0.76
-7.06
-11.12
-12.98
-12.70
-10.29
-5.86
0.29
7.68
15.75
23.88
31.44
37.71
41.99
43.67
42.46
38.49
32.35
24.89
16.98
9.45
2.92
-2.14
-5.60
-7.65
-8.91
-10.15
-12.11
-15.10
-19.00
-23.40
-27.84
-32.04
-35.91
-39.35
-42.10
-43.73
-43.73
-41.70
-37.39
-30.66
-21.42
-9.75
3.74
17.60
29.60
37.21
38.61
33.46
23.30
11.00
-0.23
-7.97
-11.31
-10.81
-7.91
-4.15
-0.54
2.51
5.04
7.19
9.01
10.44
11.45
12.15
12.76
13.52
14.51
15.56
16.19
15.87
14.19
11.16
7.21
3.10
-0.43
-2.96
-4.55
-5.63
-6.77
-8.27
-10.03
-11.56
-12.24
-11.59
-9.52
-6.38
-2.81
0.44
2.73
3.69
3.22
1.48
-1.25
-4.62
-8.36
-12.23
-16.04
-19.60
-22.71
-25.18
-26.93
-28.00
-28.50
-28.57
-28.28
-27.58
-26.33
-24.41
-21.76
-18.54
-15.03
-11.56
-8.44
-5.88
-4.04
-3.04
-2.96
-3.82
-5.46
-7.54
-9.57
-11.04
-11.56
-11.02
-9.61
-7.76
-5.95
-4.59
-3.89
-3.83
-4.26
-4.97
-5.78
-6.60
-7.40
-8.14
-8.79
-9.27
-9.53
-9.58
-9.45
-9.19
-8.85
-8.47
-8.10
-7.87
-7.93
-8.44
-9.47
-10.95
-12.66
-14.38
-15.93
-17.29
-18.55
-19.92
-21.50
-23.23
-24.85
-26.00
-26.29
-25.49
-23.58
-20.72
-17.19
-13.28
-9.26
-5.37
-1.79
1.29
3.77
5.61
6.88
7.73
8.35
8.94
9.63
10.46
11.34
11.99
12.07
11.21
9.22
6.19
2.43
-1.61
-5.49
-8.95
-11.86
-14.19
-15.90
-16.97
-17.39
-17.29
-16.85
-16.31
-15.77
-15.21
-14.40
-13.02
-10.84
-7.74
-3.84
0.61
5.24
9.68
13.56
16.52
18.33
18.84
18.12
16.43
14.29
12.29
10.97
10.62
11.17
12.25
13.36
14.06
14.13
13.60
12.63
11.46
10.29
9.25
8.38
7.74
7.33
7.06
6.69
5.90
4.35
1.86
-1.59
-5.89
-10.66
-15.37
-19.33
-21.89
-22.56
-21.17
-18.01
-13.74
-9.31
-5.51
-2.75
-1.10
-0.39
-0.36
-0.68
-1.06
-1.41
-2.08
-3.34
-5.34
-8.18
-11.78
-15.89
-19.77
-22.49
-23.52
-23.55
-23.46
-24.23
-26.72
-31.29
-37.66
-44.45
-49.77
-52.39
-53.04
-52.84
-52.80
-53.52
-54.80
-55.69
-54.28
-48.46
-36.93
-20.30
1.43
28.74
61.59
97.31
127.44
141.86
135.73
117.63
94.27
70.77
50.40
32.99
18.31
5.75
-4.03
-8.97
-6.98
1.42
14.21
27.97
38.85
44.35
44.18
40.84
38.27
39.66
45.24
53.75
63.17
71.48
77.41
80.35
80.34
77.60
72.14
63.43
52.02
39.66
28.81
21.69
19.25
20.82
24.40
27.37
27.26
23.07
15.45
6.03
-3.40
-11.68
-18.46
-23.96
-28.57
-32.60
-35.97
-38.46
-40.00
-40.89
-41.66
-42.83
-44.49
-46.31
-47.64
-47.92
-46.91
-44.74
-41.82
-38.58
-35.33
-32.34
-29.95
-28.60
-28.80
-30.79
-34.34
-38.60
-42.26
-43.91
-42.41
-37.03
-27.56
-14.24
2.25
20.61
38.93
54.96
66.51
72.14
71.54
65.59
55.91
44.28
32.12
20.33
9.50
0.16
-7.11
-11.85
-13.93
-13.80
-12.38
-10.67
-9.39
-8.65
-8.02
-6.82
-4.54
-1.10
3.08
7.33
10.96
13.51
14.86
15.25
15.22
15.47
16.69
19.32
23.47
28.88
35.09
41.65
48.28
54.89
61.43
67.72
73.33
77.62
79.88
79.50
76.09
69.50
59.96
48.08
34.94
21.95
10.32
0.47
-8.29
-17.59
-29.24
-44.21
-61.97
-80.63
-97.69
-111.08
-119.84
-124.09
-124.42
-121.33
-114.97
-105.53
-93.73
-81.28
-70.56
-63.76
-61.86
-64.00
-67.63
-69.50
-66.93
-58.92
-46.40
-31.71
-17.65
-6.46
0.62
3.50
2.94
0.28
-2.78
-4.43
-3.08
2.21
11.42
23.61
37.25
50.66
62.41
71.32
76.26
76.10
69.91
57.59
40.56
21.85
5.37
-5.59
-9.84
-9.02
-7.00
-8.13
-15.10
-27.61
-42.44
-55.05
-61.70
-61.17
-55.12
-46.90
-39.72
-35.05
-32.02
-27.90
-19.38
-4.20
17.53
43.02
67.51
85.91
94.75
93.45
84.28
71.23
58.09
47.04
38.32
30.97
24.18
18.09
13.78
12.25
13.51
16.13
17.92
17.03
12.96
6.74
0.40
-4.11
-5.96
-5.81
-5.42
-6.71
-10.67
-16.73
-22.97
-26.93
-26.77
-22.12
-14.31
-5.69
1.32
5.15
5.54
3.52
0.96
0.22
3.73
13.40
29.88
51.78
75.58
96.33
109.38
112.12
105.05
91.20
74.54
58.00
42.45
27.02
10.47
-7.53
-25.90
-42.78
-56.58
-66.78
-73.94
-79.06
-82.84
-85.18
-85.25
-81.94
-74.46
-62.89
-48.25
-32.39
-17.43
-5.12
3.76
9.53
13.29
16.12
18.52
20.22
20.59
19.26
16.55
13.38
10.70
8.92
7.62
5.82
2.48
-2.97
-10.44
-19.32
-28.72
-37.79
-45.75
-51.96
-55.87
-57.16
-55.79
-52.03
-46.37
-39.40
-31.70
-23.78
-16.10
-9.10
-3.07
1.90
5.95
9.38
12.51
15.55
18.54
21.45
24.25
26.97
29.71
32.52
35.25
37.61
39.20
39.79
39.50
38.90
38.91
40.41
43.83
48.86
54.49
59.41
62.57
63.60
62.82
60.88
58.22
54.79
50.17
43.94
36.06
27.00
17.65
9.05
2.15
-2.24
-3.60
-1.75
3.00
9.90
17.95
26.15
33.70
40.06
44.92
48.14
49.69
49.78
48.73
46.87
44.34
41.07
36.84
31.55
25.37
18.64
11.74
4.87
-1.98
-8.86
-15.68
-22.20
-28.20
-33.61
-38.63
-43.51
-48.41
-53.26
-57.81
-61.85
-65.30
-68.36
-71.34
-74.57
-78.19
-82.12
-86.04
-89.51
-92.01
-93.00
-92.06
-88.89
-83.50
-76.21
-67.59
-58.35
-49.11
-40.27
-32.02
-24.39
-17.33
-10.88
-5.13
-0.22
3.78
6.87
9.20
10.95
12.31
13.42
14.30
14.95
15.33
15.46
15.38
15.13
14.70
13.99
12.81
10.99
8.58
5.79
2.89
0.03
-2.76
-5.55
-8.42
-11.48
-14.68
-17.81
-20.62
-22.91
-24.56
-25.57
-25.98
-25.86
-25.60
-25.57
-25.93
-26.66
-27.64
-28.77
-29.99
-31.26
-32.61
-34.85
-38.46
-43.20
-48.14
-52.17
-54.48
-54.66
-52.56
-48.46
-44.45
-42.24
-42.34
-44.01
-46.17
-48.30
-50.73
-54.33
-60.58
-73.13
-93.82
-121.25
-151.08
-178.26
-199.03
-211.70
-216.10
-213.53
-208.95
-206.19
-206.52
-208.69
-211.05
-212.74
-213.83
-214.16
-192.56
-138.37
-56.58
34.28
116.04
179.90
225.53
254.76
273.87
285.72
287.93
278.70
259.04
232.98
203.83
174.85
148.11
124.91
105.22
86.24
65.98
44.51
23.93
6.63
-5.83
-13.31
-16.26
-15.80
-14.29
-13.16
-12.40
-10.79
-7.03
-0.38
9.07
20.85
33.91
46.31
56.39
63.40
67.64
69.98
71.41
72.52
73.58
74.46
74.79
74.49
73.86
73.24
72.54
71.14
68.05
62.57
54.70
45.27
35.67
27.40
21.49
18.23
17.35
18.25
20.35
23.22
26.56
30.14
33.97
37.87
41.26
43.21
42.78
39.50
33.62
26.23
18.95
14.14
13.31
16.48
22.10
27.96
32.23
34.01
33.40
31.25
29.63
30.03
32.59
36.03
38.42
38.21
34.67
28.19
20.34
14.88
15.14
22.55
35.93
52.31
68.25
80.68
87.28
78.74
50.47
5.62
-44.81
-88.23
-116.01
-124.98
-117.05
-98.07
-75.96
-55.07
-38.16
-26.58
-20.54
-19.31
-21.50
-25.61
-30.27
-35.28
-38.52
-38.37
-34.34
-27.30
-18.87
-10.64
-3.82
0.89
3.41
5.03
6.91
9.68
13.18
16.75
19.69
21.53
22.06
21.28
19.60
17.07
13.26
7.62
-0.08
-9.36
-19.15
-28.18
-35.50
-40.53
-43.33
-44.54
-45.00
-45.22
-45.59
-46.20
-46.98
-48.02
-49.90
-53.09
-57.92
-64.51
-72.75
-81.84
-90.66
-97.90
-102.39
-103.30
-100.25
-93.39
-83.27
-70.71
-56.74
-42.58
-29.46
-18.50
-10.33
-4.87
-1.32
1.48
4.72
9.11
14.73
21.03
27.17
32.45
36.49
39.39
41.48
43.16
44.68
46.14
47.48
48.61
49.48
50.08
50.39
50.36
49.88
48.85
47.19
44.87
41.97
38.67
35.31
32.35
30.32
29.57
30.16
31.78
33.81
35.64
36.84
37.40
37.63
37.93
38.52
39.30
39.86
39.72
38.50
36.18
33.00
29.46
26.08
23.36
21.70
21.35
22.31
24.18
26.09
26.76
24.83
19.33
10.04
-2.37
-16.58
-31.12
-44.77
-56.85
-67.01
-75.05
-80.73
-83.82
-84.29
-82.39
-78.54
-73.04
-65.92
-56.94
-46.02
-33.54
-20.61
-8.78
0.43
6.12
8.25
7.54
5.06
1.90
-1.18
-3.73
-5.61
-6.87
-7.66
-8.11
-8.25
-7.95
-6.90
-4.89
-1.92
1.57
4.84
7.08
7.70
6.58
4.05
0.73
-2.72
-5.83
-8.39
-10.43
-12.16
-13.80
-15.56
-17.47
-19.26
-20.39
-20.16
-17.92
-13.39
-6.76
1.36
10.15
18.87
26.95
34.04
39.93
44.44
47.46
48.93
49.01
48.02
46.42
44.67
43.10
41.90
41.07
40.52
40.07
39.55
38.74
37.41
35.34
32.34
28.37
23.63
18.54
13.66
9.51
6.37
4.23
2.82
1.71
0.50
-1.10
-3.22
-5.80
-8.49
-10.74
-11.83
-11.10
-8.21
-3.31
2.93
9.50
15.39
19.88
22.69
23.92
23.88
22.91
21.26
19.15
16.75
14.29
12.00
10.04
8.47
7.21
6.12
5.06
3.99
2.96
2.09
1.40
0.82
0.14
-0.93
-2.65
-5.16
-8.35
-11.97
-15.64
-19.07
-22.10
-24.77
-27.29
-29.95
-32.96
-36.38
-39.95
-43.10
-45.05
-45.01
-42.46
-37.35
-30.18
-21.83
-13.30
-5.45
1.16
6.32
10.06
12.57
14.21
15.46
16.90
19.08
22.34
26.62
31.42
35.92
39.19
40.56
39.80
37.24
33.58
29.70
26.35
23.98
22.72
22.45
23.02
24.21
25.82
27.50
28.75
28.94
27.53
24.24
19.19
12.87
6.03
-0.46
-5.77
-9.20
-10.23
-8.70
-4.83
0.71
7.01
13.12
18.33
22.34
25.20
27.14
28.41
29.22
29.76
30.34
31.36
33.17
35.88
39.16
42.27
44.31
44.52
42.57
38.57
32.99
26.36
19.09
11.38
3.32
-5.01
-13.44
-21.76
-29.82
-37.63
-45.43
-53.60
-62.45
-72.08
-82.24
-92.46
-102.08
-110.51
-117.28
-122.02
-124.53
-124.74
-122.83
-119.18
-114.26
-108.29
-100.98
-91.34
-78.14
-60.43
-38.34
-13.29
12.23
35.55
54.70
68.92
78.57
84.50
87.36
87.28
84.07
77.69
68.68
58.15
47.44
37.68
29.48
23.12
18.75
16.56
16.62
18.63
21.69
24.44
25.50
24.11
20.33
15.01
9.29
4.11
-0.07
-3.25
-5.62
-7.33
-8.42
-8.93
-9.00
-8.94
-9.12
-9.76
-10.80
-11.88
-12.38
-11.72
-9.55
-5.93
-1.30
3.70
8.42
12.43
15.60
17.98
19.77
21.06
21.85
22.11
21.86
21.27
20.64
20.21
20.07
20.03
19.71
18.67
16.58
13.32
9.03
3.99
-1.33
-6.41
-10.73
-13.88
-15.67
-16.19
-15.79
-14.92
-14.00
-13.24
-12.72
-12.37
-12.11
-11.94
-11.88
-11.93
-12.05
-12.17
-12.17
-12.05
-11.92
-11.96
-12.25
-12.68
-12.87
-12.31
-10.60
-7.66
-3.86
0.11
3.56
6.05
7.52
8.24
8.53
8.58
8.39
7.87
7.03
6.04
5.25
4.95
5.29
6.15
7.22
8.16
8.68
8.70
8.28
7.57
6.72
5.84
4.96
4.08
3.13
2.09
0.99
-0.09
-1.08
-1.94
-2.71
-3.49
-4.43
-5.56
-6.80
-7.89
-8.54
-8.45
-7.52
-5.80
-3.43
-0.65
2.36
5.39
8.20
10.56
12.26
13.25
13.62
13.60
13.49
13.47
13.63
13.93
14.34
14.89
15.68
16.79
18.24
19.93
21.64
23.20
24.46
25.34
25.83
25.89
25.49
24.57
23.18
21.37
19.26
16.93
14.40
11.66
8.70
5.65
2.81
0.63
-0.41
-0.00
1.87
4.77
7.84
10.00
10.25
7.95
3.20
-3.30
-10.25
-16.20
-20.13
-21.84
-22.05
-22.17
-23.63
-27.29
-33.24
-40.61
-47.63
-51.99
-51.33
-43.86
-29.31
-9.48
11.87
29.48
38.50
36.19
22.77
1.05
-24.67
-50.43
-73.46
-92.27
-107.03
-118.36
-126.71
-132.34
-135.64
-136.95
-136.92
-135.76
-132.77
-127.48
-119.23
-107.29
-91.45
-72.69
-52.89
-35.02
-21.86
-10.84
-1.17
6.70
11.81
14.05
12.75
11.50
14.00
23.09
40.46
65.37
93.43
118.57
134.96
138.64
129.11
108.58
79.35
48.75
25.23
14.55
17.60
30.88
48.56
64.94
75.26
77.21
71.79
61.43
49.01
36.93
26.91
18.00
8.90
-1.71
-14.67
-30.02
-48.04
-68.37
-87.53
-99.96
-99.15
-80.38
-44.20
2.56
49.15
84.45
101.93
101.69
88.99
70.77
52.15
34.27
15.19
-7.37
-34.43
-62.92
-87.00
-100.20
-98.08
-80.02
-49.88
-14.40
19.92
46.41
63.49
73.32
78.64
79.91
74.67
59.71
34.39
2.58
-28.29
-49.71
-56.87
-50.00
-33.98
-16.00
-2.43
3.96
4.26
1.90
0.98
3.98
10.83
19.12
25.25
26.06
20.66
10.34
-2.21
-13.54
-20.80
-22.28
-18.23
-10.81
-3.72
-0.43
-3.74
-16.46
-40.13
-72.71
-106.58
-129.04
-127.62
-97.29
-43.12
20.79
77.07
112.31
121.92
110.53
88.07
65.99
47.56
32.82
20.31
9.01
-0.28
-5.40
-4.50
2.22
12.11
21.26
27.40
30.21
30.96
31.58
33.18
35.07
34.87
29.81
18.05
2.83
-9.03
-11.70
-3.71
11.99
30.36
46.62
58.11
64.30
65.89
63.80
58.79
51.44
42.31
31.82
20.54
8.81
-3.43
-16.19
-29.47
-43.22
-57.01
-69.88
-80.46
-87.37
-89.78
-87.65
-81.71
-73.39
-64.58
-57.01
-51.78
-49.15
-48.69
-49.65
-51.31
-53.11
-54.75
-56.22
-57.57
-58.80
-59.80
-60.43
-60.68
-60.65
-60.58
-60.66
-61.03
-61.64
-62.34
-62.94
-63.36
-63.66
-64.04
-64.69
-65.60
-66.52
-66.95
-66.23
-63.72
-59.02
-52.14
-43.49
-33.72
-23.42
-12.84
-1.76
10.30
23.75
38.52
54.02
69.27
83.27
95.34
105.17
112.73
118.11
121.35
122.55
121.85
119.57
116.09
111.78
106.93
101.74
96.39
91.12
86.17
81.75
77.98
74.85
72.29
70.14
68.15
66.00
63.32
59.89
55.64
50.79
45.70
40.83
36.53
32.95
30.05
27.58
25.18
22.40
18.77
13.79
6.96
-2.11
-13.64
-27.55
-43.49
-60.82
-78.74
-96.35
-112.77
-127.16
-138.71
-146.69
-150.55
-150.11
-145.72
-138.19
-128.56
-117.76
-106.27
-94.07
-80.80
-66.10
-49.79
-31.99
-13.12
6.08
24.54
40.85
53.42
61.04
63.34
61.26
56.77
52.27
49.53
49.13
50.44
52.20
53.30
53.45
53.15
53.35
54.88
58.03
62.61
68.29
74.79
82.07
90.20
99.22
108.90
118.71
127.74
135.04
139.82
141.41
139.20
132.69
121.73
106.62
88.30
67.83
46.63
26.15
7.40
-9.45
-25.10
-40.67
-57.34
-75.94
-97.37
-121.78
-148.17
-174.68
-198.98
-218.62
-231.39
-235.64
-230.74
-217.98
-199.59
-177.75
-154.50
-131.53
-110.10
-90.80
-73.52
-53.62
-29.74
-3.73
21.38
43.22
60.82
73.76
81.78
85.07
84.58
82.53
79.90
78.14
78.24
80.33
83.15
85.23
85.88
85.49
84.63
82.31
78.68
74.04
68.74
62.40
54.74
46.17
37.80
30.28
23.73
18.36
14.27
11.23
7.32
-0.03
-12.85
-31.78
-56.33
-85.06
-115.28
-143.71
-160.32
-157.27
-134.02
-98.03
-59.26
-25.35
-0.42
14.45
20.14
18.73
11.81
1.09
-11.87
-24.21
-32.96
-36.11
-33.00
-24.39
-12.06
0.86
11.34
17.75
20.34
20.46
19.75
19.15
19.18
19.96
20.92
21.49
21.53
21.51
21.91
22.79
23.86
24.79
25.36
25.29
24.46
22.90
20.94
18.86
16.81
14.83
13.08
11.75
10.97
10.69
10.80
11.12
11.47
11.69
11.70
11.56
11.38
11.19
10.95
10.50
9.72
8.56
7.09
5.45
3.80
2.24
0.80
-0.61
-2.08
-3.69
-5.47
-7.36
-9.26
-11.09
-12.82
-14.44
-15.96
-17.29
-18.18
-18.30
-17.35
-15.24
-12.07
-8.20
-4.03
0.10
3.96
7.41
10.36
12.69
14.33
15.27
15.66
15.74
15.78
16.01
16.48
17.10
17.68
17.97
17.79
17.08
15.93
14.58
13.34
12.41
11.82
11.41
10.90
10.03
8.70
6.96
4.96
2.87
0.86
-0.90
-2.18
-2.78
-2.63
-1.94
-1.23
-1.21
-2.43
-5.05
-8.69
-12.57
-15.85
-17.94
-18.67
-18.27
-17.11
-15.56
-13.82
-12.05
-10.46
-9.33
-9.00
-9.60
-11.03
-12.87
-14.64
-16.04
-17.07
-18.00
-19.14
-20.53
-21.83
-22.46
-21.90
-20.02
-17.17
-14.09
-11.50
-9.85
-9.07
-8.79
-8.53
-8.00
-7.25
-6.55
-6.20
-6.36
-6.97
-7.84
-8.76
-9.68
-10.59
-11.48
-12.18
-12.30
-11.35
-8.94
-4.97
0.29
6.25
12.20
17.45
21.47
23.92
24.65
23.72
21.39
18.12
14.54
11.27
8.80
7.32
6.72
6.61
6.52
6.04
5.01
3.51
1.85
0.35
-0.81
-1.65
-2.41
-3.33
-4.53
-5.85
-6.94
-7.40
-7.00
-5.78
-4.11
-2.47
-1.33
-0.98
-1.47
-2.66
-4.22
-5.79
-6.99
-7.56
-7.37
-6.44
-4.94
-3.06
-1.04
0.93
2.64
3.92
4.64
4.76
4.39
3.78
3.28
3.16
3.55
4.40
5.54
6.76
7.93
8.90
9.52
9.62
9.09
7.98
6.52
5.07
3.98
3.38
3.10
2.80
2.06
0.60
-1.61
-4.37
-7.40
-10.38
-13.07
-15.29
-16.94
-17.93
-18.34
-18.37
-18.32
-18.48
-18.94
-19.49
-19.66
-18.83
-16.50
-12.45
-6.89
-0.36
6.35
12.44
17.29
20.54
22.12
22.22
21.13
19.21
16.82
14.27
11.85
9.81
8.32
7.39
6.90
6.64
6.41
6.06
5.54
4.89
4.09
3.09
1.75
-0.08
-2.45
-5.27
-8.26
-11.05
-13.31
-14.89
-15.86
-16.45
-16.98
-17.65
-18.47
-19.23
-19.56
-19.08
-17.48
-14.66
-10.72
-5.98
-0.89
4.01
8.25
11.51
13.67
14.77
14.99
14.48
13.38
11.75
9.64
7.10
4.26
1.33
-1.38
-3.54
-4.85
-5.18
-4.65
-3.53
-2.16
-0.81
0.40
1.46
2.36
2.98
3.05
2.34
0.74
-1.58
-4.27
-7.00
-9.57
-11.99
-14.32
-16.53
-18.41
-19.62
-19.80
-18.80
-16.66
-13.60
-9.89
-5.80
-1.61
2.38
5.82
8.33
9.70
9.93
9.28
8.15
6.94
5.84
4.82
3.75
2.49
1.12
-0.11
-0.88
-0.92
-0.18
1.18
2.85
4.57
6.16
7.58
8.81
9.81
10.53
10.94
11.07
11.02
10.89
10.71
10.44
9.97
9.18
8.02
6.52
4.87
3.37
2.38
2.27
3.29
5.45
8.48
11.90
15.11
17.61
19.14
19.71
19.54
18.94
18.12
17.21
16.20
15.08
13.90
12.77
11.87
11.29
11.07
11.11
11.26
11.36
11.29
10.96
10.28
9.21
7.71
5.84
3.74
1.60
-0.46
-2.36
-4.16
-5.97
-7.84
-9.77
-11.68
-13.44
-14.96
-16.08
-16.56
-16.13
-14.52
-11.64
-7.69
-3.18
1.19
4.77
7.16
8.32
8.45
7.91
7.02
5.98
4.87
3.74
2.66
1.76
1.16
0.93
1.05
1.36
1.66
1.75
1.55
1.05
0.35
-0.43
-1.15
-1.75
-2.19
-2.48
-2.69
-2.92
-3.30
-3.91
-4.80
-5.93
-7.21
-8.48
-9.53
-10.09
-9.89
-8.69
-6.44
-3.33
0.20
3.57
6.28
8.07
8.99
9.27
9.17
8.84
8.29
7.47
6.35
5.05
3.75
2.65
1.84
1.26
0.80
0.33
-0.18
-0.65
-0.99
-1.17
-1.23
-1.30
-1.53
-2.02
-2.71
-3.51
-4.25
-4.88
-5.43
-6.07
-7.02
-8.35
-10.00
-11.67
-12.98
-13.52
-13.01
-11.38
-8.73
-5.28
-1.38
2.53
6.02
8.72
10.43
11.14
11.04
10.42
9.53
8.50
7.37
6.13
4.86
3.77
3.08
2.99
3.51
4.47
5.58
6.55
7.20
7.50
7.56
7.45
7.27
7.01
6.61
6.02
5.22
4.26
3.18
2.00
0.76
-0.53
-1.75
-2.69
-3.03
-2.51
-1.00
1.31
4.05
6.69
8.81
10.18
10.81
10.79
10.21
8.98
6.92
3.87
-0.12
-4.65
-9.08
-12.62
-14.60
-14.74
-13.18
-10.46
-7.31
-4.41
-2.24
-1.04
-0.83
-1.50
-2.86
-4.65
-6.54
-8.19
-9.34
-9.94
-10.17
-10.44
-11.19
-12.69
-14.86
-17.31
-19.49
-20.91
-21.33
-20.83
-19.68
-18.15
-16.37
-14.29
-11.81
-8.94
-5.89
-3.06
-0.85
0.57
1.29
1.64
2.01
2.67
3.65
4.79
5.78
6.32
6.13
5.09
3.18
0.52
-2.71
-6.27
-9.93
-13.44
-16.57
-19.09
-20.84
-21.84
-22.24
-22.38
-22.55
-22.85
-23.08
-22.80
-21.50
-18.92
-15.21
-10.99
-7.14
-4.51
-3.59
-4.37
-6.31
-8.57
-10.27
-10.83
-10.12
-8.43
-6.36
-4.48
-3.14
-2.31
-1.56
-0.21
2.40
6.69
12.68
19.99
27.94
35.67
42.39
47.50
50.80
52.71
54.28
56.85
61.47
68.19
75.67
81.43
82.80
78.03
67.09
51.65
34.30
17.49
2.75
-9.55
-19.66
-28.05
-34.92
-40.31
-44.30
-47.20
-49.54
-51.81
-54.21
-56.51
-58.21
-58.71
-57.69
-55.30
-52.16
-49.21
-47.28
-46.77
-47.34
-48.06
-47.79
-45.70
-41.72
-36.74
-32.34
-30.27
-31.87
-37.51
-46.47
-56.97
-66.57
-72.75
-73.55
-68.02
-56.54
-40.52
-21.96
-2.92
14.99
30.75
44.01
54.87
63.69
70.69
75.71
78.14
77.10
72.09
63.44
52.54
41.50
32.40
26.40
23.44
22.44
22.09
21.50
20.59
19.81
19.66
20.20
20.92
20.89
19.12
14.82
7.67
-2.03
-13.53
-25.74
-37.52
-48.02
-56.79
-63.76
-69.04
-72.71
-74.63
-74.43
-71.68
-66.13
-57.93
-47.76
-36.76
-26.35
-17.94
-12.52
-10.38
-11.00
-13.16
-15.22
-15.57
-13.04
-7.03
2.47
15.09
30.23
47.04
64.38
80.71
94.35
103.88
108.58
108.65
104.94
98.42
89.61
78.50
64.82
48.63
30.78
12.87
-3.24
-16.05
-24.75
-29.17
-29.39
-25.25
-16.51
-3.22
13.92
33.38
53.09
70.99
85.49
95.71
101.33
102.16
97.74
87.18
69.49
44.47
13.65
-19.25
-48.79
-69.19
-76.29
-69.22
-50.88
-26.80
-3.05
16.01
28.70
35.65
38.29
37.69
34.27
28.33
20.72
13.13
7.39
4.50
4.04
4.32
3.23
-0.67
-7.64
-16.72
-26.32
-34.82
-40.87
-43.49
-42.09
-36.52
-27.13
-14.79
-0.83
13.18
25.53
34.51
38.70
37.19
29.88
17.67
2.33
-13.75
-28.11
-38.74
-44.55
-45.58
-42.85
-37.94
-32.41
-27.44
-23.56
-20.83
-19.07
-18.06
-17.66
-17.71
-17.97
-18.11
-17.84
-16.99
-15.50
-13.40
-10.69
-7.42
-3.78
-0.21
2.69
4.45
4.98
4.66
4.12
3.93
4.29
5.01
5.68
6.07
6.29
6.81
8.15
10.50
13.56
16.50
18.33
18.35
16.46
13.25
9.78
7.03
5.54
5.15
5.20
4.88
3.75
1.89
-0.18
-1.87
-2.88
-3.28
-3.40
-3.60
-4.01
-4.53
-4.96
-5.14
-5.06
-4.88
-4.78
-4.88
-5.15
-5.50
-5.81
-6.07
-6.31
-6.56
-6.89
-7.37
-8.16
-9.51
-11.68
-14.73
-18.36
-21.87
-24.30
-24.79
-22.86
-18.65
-12.86
-6.57
-0.90
3.15
4.94
4.21
1.14
-3.72
-9.48
-15.08
-19.47
-21.80
-21.67
-19.24
-15.24
-10.73
-6.70
-3.66
-1.39
0.72
3.20
5.99
8.33
9.24
8.17
5.51
2.42
0.05
-1.28
-2.56
-5.69
-12.44
-23.15
-36.15
-48.00
-54.69
-53.20
-42.71
-24.95
-3.65
16.82
32.85
42.60
46.25
45.40
42.22
38.52
35.26
32.63
30.32
27.99
25.52
23.04
20.77
18.92
17.48
16.26
15.02
13.61
12.09
10.72
9.84
9.73
10.46
11.92
13.81
15.85
17.83
19.62
21.08
21.82
21.15
18.40
13.38
6.93
1.01
-1.94
-0.13
6.52
16.03
25.04
30.26
29.84
24.10
15.07
5.35
-3.11
-9.57
-14.41
-18.48
-22.57
-27.10
-32.19
-37.81
-43.90
-50.29
-56.67
-62.56
-67.43
-70.88
-72.81
-73.50
-73.59
-73.88
-75.10
-77.57
-81.01
-84.61
-87.35
-88.35
-87.20
-84.01
-79.20
-73.22
-66.30
-58.49
-49.74
-40.18
-30.18
-20.32
-11.30
-3.68
2.16
6.14
8.43
9.35
9.28
8.56
7.48
6.31
5.33
4.80
4.96
5.85
7.25
8.75
9.88
10.33
10.00
9.07
7.82
6.49
5.17
3.79
2.23
0.34
-1.93
-4.59
-7.61
-11.01
-14.86
-19.13
-23.57
-27.65
-30.60
-31.66
-30.31
-26.55
-20.90
-14.25
-7.52
-1.44
3.60
7.48
10.25
11.99
12.77
12.70
11.97
10.85
9.70
8.83
8.49
8.79
9.71
11.13
12.90
14.84
16.75
18.51
19.96
20.90
21.10
20.47
19.04
17.01
14.68
12.27
9.94
7.64
5.14
2.24
-0.92
-3.77
-5.18
-3.90
0.90
9.38
20.63
32.81
43.77
51.84
56.26
57.42
56.43
54.61
53.60
54.62
58.11
63.63
70.05
75.72
79.25
79.60
76.31
70.72
64.68
59.64
56.18
54.34
53.59
54.29
56.82
61.39
69.30
81.13
95.76
110.49
122.15
127.57
125.91
117.62
104.28
90.38
80.61
77.74
81.85
91.06
102.09
113.45
124.56
122.98
101.88
63.20
16.48
-28.23
-59.72
-81.16
-95.73
-105.66
-112.86
-118.71
-123.62
-128.46
-134.34
-141.59
-150.44
-159.27
-166.98
-173.31
-176.90
-176.26
-170.51
-159.42
-142.82
-121.02
-93.41
-60.42
-24.14
12.84
47.33
75.84
95.70
106.09
107.82
103.76
96.83
89.01
81.57
74.78
68.13
60.78
52.06
41.45
28.99
14.80
-0.97
-17.70
-34.18
-48.78
-59.75
-65.74
-66.29
-61.88
-53.86
-44.02
-33.98
-24.80
-16.92
-10.36
-5.09
-1.18
1.13
1.59
0.22
-2.59
-6.12
-9.52
-12.09
-13.52
-13.95
-13.87
-13.86
-14.37
-15.57
-17.32
-19.30
-21.08
-22.21
-22.25
-20.85
-17.82
-13.28
-7.65
-1.58
4.26
9.41
13.71
17.33
20.54
23.58
26.55
29.46
32.33
35.35
38.79
42.95
47.91
53.45
59.04
63.98
67.55
69.20
68.68
65.91
61.08
54.39
46.10
36.42
25.54
13.67
1.11
-11.68
-24.07
-35.31
-44.69
-51.69
-56.14
-58.20
-58.40
-57.42
-55.99
-54.72
-53.93
-53.64
-53.53
-53.02
-51.50
-48.50
-43.91
-38.01
-31.36
-24.62
-18.32
-12.78
-8.05
-4.08
-0.77
1.96
4.18
5.94
7.31
8.39
9.23
9.79
9.98
9.69
8.87
7.63
6.20
4.89
3.95
3.48
3.37
3.37
3.18
2.56
1.48
0.09
-1.37
-2.66
-3.69
-4.54
-5.44
-6.65
-8.37
-10.62
-13.25
-15.93
-18.28
-19.87
-20.32
-19.33
-16.79
-12.85
-7.90
-2.54
2.64
7.20
10.96
13.97
16.41
18.43
20.16
21.64
22.90
24.00
25.02
26.05
27.09
28.07
28.86
29.31
29.30
28.79
27.83
26.55
25.08
23.55
22.03
20.51
18.92
17.20
15.26
13.08
10.60
7.82
4.76
1.41
-2.26
-6.34
-10.93
-16.09
-21.70
-27.39
-32.54
-36.45
-38.47
-38.17
-35.43
-30.40
-23.53
-15.46
-6.99
1.10
8.10
13.59
17.43
19.82
21.17
21.91
22.45
23.02
23.70
24.42
25.00
25.18
24.61
22.95
19.96
15.61
10.11
3.95
-2.24
-7.77
-12.13
-15.03
-16.55
-17.05
-17.10
-17.32
-18.18
-19.86
-22.14
-24.49
-26.23
-26.77
-25.85
-23.57
-20.34
-16.67
-12.94
-9.35
-5.95
-2.73
0.22
2.69
4.41
5.10
4.64
3.07
0.65
-2.21
-5.00
-7.20
-8.37
-8.25
-6.81
-4.29
-1.19
1.84
4.17
5.34
5.16
3.78
1.58
-0.98
-3.48
-5.67
-7.42
-8.72
-9.63
-10.26
-10.79
-11.48
-12.57
-14.12
-15.91
-17.41
-17.94
-16.95
-14.28
-10.25
-5.55
-0.97
2.87
5.70
7.56
8.66
9.26
9.52
9.46
9.11
8.52
7.82
7.15
6.60
6.22
6.01
5.91
5.85
5.74
5.52
5.12
4.48
3.53
2.28
0.83
-0.73
-2.35
-4.08
-5.97
-8.07
-10.53
-13.46
-16.69
-19.85
-22.55
-24.63
-26.24
-27.72
-29.42
-31.88
-35.42
-39.77
-44.10
-47.48
-49.43
-49.95
-49.41
-48.19
-46.99
-46.33
-45.85
-44.24
-39.85
-31.50
-18.81
-2.30
16.54
34.56
47.76
52.78
48.03
33.94
12.57
-12.85
-38.75
-57.09
-61.60
-52.19
-35.04
-17.48
-3.68
5.51
11.00
14.05
14.67
13.83
12.32
11.27
11.95
14.67
18.18
20.06
17.89
10.58
-1.85
-17.85
-34.23
-47.20
-53.88
-53.43
-47.02
-37.09
-26.38
-17.43
-12.08
-10.89
-13.20
-17.68
-22.93
-27.86
-31.69
-34.06
-35.02
-35.08
-34.77
-34.53
-34.59
-34.86
-34.79
-33.37
-29.40
-21.76
-9.81
6.72
27.62
52.15
78.87
105.65
129.86
149.01
161.40
166.55
165.23
158.90
149.06
136.71
122.33
106.19
88.79
70.98
53.81
38.14
24.34
12.21
1.19
-9.43
-20.10
-30.87
-41.40
-51.10
-59.39
-65.85
-70.36
-72.96
-73.78
-72.83
-69.97
-64.99
-57.80
-48.52
-37.58
-25.57
-13.11
-0.69
11.43
23.13
34.48
45.75
57.47
70.57
86.18
105.34
128.52
155.15
183.38
210.34
232.74
247.68
253.45
249.95
238.58
221.83
202.55
183.34
166.15
152.10
141.48
133.78
127.82
121.92
114.38
104.02
90.65
75.13
58.85
42.93
27.46
11.34
-7.21
-29.73
-56.59
-86.74
-117.97
-147.72
-173.83
-194.96
-210.62
-220.81
-225.81
-225.96
-221.72
-213.71
-202.70
-189.51
-174.90
-159.38
-143.14
-126.15
-108.25
-89.42
-69.92
-50.36
-31.64
-14.74
-0.51
10.42
17.68
21.12
20.78
17.01
10.68
3.12
-4.04
-9.38
-12.30
-13.33
-14.16
-16.98
-23.69
-35.09
-50.54
-68.22
-85.80
-101.32
-113.65
-122.55
-128.27
-131.06
-130.99
-128.05
-122.52
-115.18
-107.18
-99.61
-93.10
-87.54
-82.28
-76.55
-69.74
-61.54
-51.93
-41.10
-29.49
-17.85
-7.23
1.33
7.20
10.41
11.59
11.66
11.35
10.91
10.23
9.14
7.72
6.34
5.51
5.54
6.34
7.45
8.27
8.41
7.92
7.33
7.45
9.09
12.73
18.31
25.28
32.82
40.15
46.78
52.57
57.61
61.94
65.44
67.83
68.77
68.14
66.15
63.28
60.16
57.31
55.00
53.18
51.60
49.97
48.12
46.08
43.98
41.94
39.86
37.49
34.47
30.54
25.77
20.53
15.43
11.04
7.64
5.16
3.23
1.36
-0.85
-3.55
-6.61
-9.67
-12.25
-13.83
-14.05
-12.76
-10.07
-6.37
-2.19
1.91
5.44
8.10
9.75
10.43
10.27
9.46
8.23
6.85
5.54
4.50
3.83
3.51
3.41
3.31
3.07
2.62
2.03
1.44
0.94
0.57
0.23
-0.22
-0.89
-1.79
-2.80
-3.76
-4.54
-5.08
-5.41
-5.65
-5.94
-6.34
-6.84
-7.29
-7.51
-7.30
-6.61
-5.60
-4.56
-3.81
-3.50
-3.47
-3.27
-2.38
-0.39
2.74
6.68
10.84
14.61
17.57
19.56
20.58
20.75
20.19
19.00
17.36
15.47
13.62
12.05
10.92
10.23
9.90
9.74
9.56
9.21
8.58
7.68
6.60
5.49
4.45
3.51
2.62
1.58
0.28
-1.30
-3.04
-4.67
-5.97
-6.82
-7.31
-7.73
-8.41
-9.60
-11.36
-13.55
-15.82
-17.76
-18.90
-18.87
-17.44
-14.64
-10.76
-6.33
-1.97
1.76
4.47
6.03
6.53
6.26
5.56
4.76
4.10
3.73
3.68
3.95
4.50
5.32
6.34
7.47
8.54
9.34
9.71
9.54
8.84
7.70
6.23
4.54
2.73
0.90
-0.83
-2.42
-3.91
-5.39
-6.97
-8.68
-10.44
-12.08
-13.40
-14.28
-14.72
-14.82
-14.74
-14.63
-14.64
-14.92
-15.59
-16.71
-18.14
-19.51
-20.16
-19.40
-16.72
-12.02
-5.71
1.37
8.28
14.25
18.90
22.26
24.59
26.19
27.25
27.81
27.87
27.48
26.73
25.80
24.81
23.79
22.67
21.34
19.70
17.77
15.60
13.34
11.12
8.99
6.98
5.04
3.13
1.24
-0.58
-2.15
-3.26
-3.70
-3.37
-2.38
-1.02
0.33
1.29
1.67
1.42
0.68
-0.32
-1.33
-2.11
-2.43
-2.14
-1.15
0.43
2.32
4.15
5.55
6.28
6.25
5.52
4.20
2.39
0.15
-2.38
-5.01
-7.47
-9.50
-10.95
-11.87
-12.43
-12.87
-13.37
-13.99
-14.69
-15.33
-15.82
-16.03
-15.89
-15.37
-14.45
-13.23
-11.87
-10.63
-9.79
-9.58
-10.04
-11.05
-12.28
-13.32
-13.78
-13.42
-12.17
-10.14
-7.54
-4.56
-1.23
2.49
6.66
11.25
15.99
20.47
24.31
27.25
29.29
30.56
31.27
31.52
31.34
30.73
29.74
28.47
27.01
25.33
23.29
20.64
17.19
12.88
7.81
2.13
-3.96
-10.31
-16.80
-23.25
-29.41
-34.96
-39.53
-42.88
-44.93
-45.89
-46.17
-46.31
-46.75
-47.69
-48.95
-50.06
-50.41
-49.51
-47.19
-43.66
-39.40
-34.91
-30.61
-26.71
-23.33
-20.53
-18.39
-16.92
-16.01
-15.36
-14.60
-13.41
-11.75
-9.80
-7.84
-6.03
-4.30
-2.37
-0.02
2.72
5.43
7.58
8.72
8.92
8.75
9.09
10.72
13.96
18.59
24.01
29.53
34.72
39.47
43.92
48.20
52.32
56.10
59.22
61.33
62.11
61.31
58.73
54.32
48.30
41.27
34.16
28.04
23.80
21.85
22.03
23.78
26.45
29.66
33.40
37.83
42.95
48.16
52.26
53.91
52.27
47.58
41.39
36.05
33.98
36.75
44.51
55.85
68.06
77.74
81.57
77.28
64.52
45.28
23.57
4.23
-8.70
-13.35
-10.51
-3.02
5.73
13.36
19.36
24.91
31.83
41.36
53.38
66.37
78.14
86.73
90.93
90.31
84.88
74.60
59.26
38.79
13.89
-13.64
-41.09
-65.56
-84.94
-98.63
-107.53
-113.47
-118.35
-123.40
-128.89
-134.29
-138.79
-141.70
-142.80
-142.24
-140.31
-137.17
-132.64
-126.18
-117.14
-105.03
-89.77
-71.87
-52.34
-32.51
-13.72
3.03
17.23
28.91
38.50
46.53
53.38
59.18
63.80
67.12
69.27
70.89
73.25
77.95
86.55
99.90
117.61
137.88
157.98
175.01
186.88
192.83
193.29
189.27
181.44
169.81
153.85
133.15
108.08
80.03
51.15
23.90
0.46
-17.80
-30.84
-40.14
-48.50
-59.00
-73.63
-92.24
-112.35
-130.32
-143.10
-149.65
-151.13
-149.85
-147.66
-145.01
-141.13
-135.08
-126.78
-117.32
-108.29
-100.84
-95.08
-90.14
-84.87
-78.39
-70.42
-61.18
-51.15
-40.87
-30.80
-21.34
-12.68
-4.74
2.84
10.40
18.01
25.24
31.24
35.09
36.25
34.86
31.60
27.32
22.58
17.40
11.30
3.69
-5.79
-17.04
-29.51
-42.39
-54.81
-66.02
-75.45
-82.90
-88.59
-93.21
-97.74
-103.23
-110.41
-119.53
-130.35
-142.39
-155.21
-168.59
-182.52
-197.10
-212.20
-227.37
-241.85
-254.78
-265.47
-273.41
-278.14
-278.88
-274.39
-263.08
-243.54
-215.03
-177.71
-132.46
-80.51
-23.46
36.40
95.74
150.21
195.26
227.40
245.34
250.33
245.68
235.52
223.71
213.25
206.04
202.90
203.36
205.58
206.56
202.88
192.01
173.49
149.45
123.97
101.63
85.82
77.55
75.17
75.24
73.91
68.28
57.21
41.37
22.66
3.55
-13.63
-26.95
-35.10
-37.48
-34.33
-26.70
-16.33
-5.27
4.56
11.77
15.76
16.95
16.78
17.35
20.82
28.68
41.13
56.88
73.48
88.15
98.73
104.42
105.70
103.71
99.54
93.70
86.30
77.30
67.07
56.57
47.45
41.06
37.79
37.01
37.43
38.07
38.35
38.02
36.97
35.49
33.50
30.53
26.18
20.50
14.72
10.17
7.47
6.38
6.88
8.43
10.03
10.68
9.80
8.38
7.93
9.73
14.82
24.96
40.92
61.69
84.55
105.64
122.28
132.35
134.64
122.28
94.35
57.36
22.09
-0.86
-13.06
-18.45
-20.70
-22.49
-25.40
-29.34
-34.74
-43.19
-56.98
-78.06
-105.89
-138.87
-175.30
-213.66
-251.62
-286.76
-316.58
-338.50
-350.24
-349.31
-334.73
-307.57
-270.58
-227.02
-180.74
-135.98
-96.74
-66.04
-44.43
-30.43
-21.17
-13.31
-3.85
8.80
24.60
42.35
60.38
77.56
93.14
106.61
117.60
125.90
131.51
134.68
135.92
135.88
135.27
134.56
133.86
133.05
131.86
130.10
127.71
124.81
121.73
118.88
116.61
115.01
113.79
112.33
109.91
106.02
100.60
94.01
86.84
79.58
72.37
65.00
57.13
48.64
39.70
30.73
22.04
13.66
5.26
-3.64
-13.43
-24.23
-35.87
-48.00
-60.12
-71.47
-80.98
-87.22
-88.84
-85.27
-77.35
-67.56
-59.48
-56.49
-60.32
-70.19
-83.04
-94.71
-101.61
-102.06
-96.70
-87.84
-78.19
-69.77
-63.39
-58.97
-56.25
-55.43
-57.06
-61.50
-68.04
-74.54
-77.83
-74.87
-64.03
-45.55
-20.88
8.48
41.45
76.85
111.99
141.68
158.87
157.28
134.76
95.30
48.28
4.63
-27.54
-45.53
-51.73
-51.02
-47.64
-43.49
-38.22
-30.43
-19.84
-7.68
4.12
14.18
22.45
29.99
38.03
47.39
58.50
70.55
81.85
90.76
96.57
99.82
101.83
103.76
106.36
109.95
113.23
113.75
109.24
98.72
83.11
64.46
44.78
20.79
-7.04
-35.27
-59.60
-77.46
-88.73
-94.12
-94.97
-94.11
-92.86
-91.13
-89.09
-87.24
-86.03
-85.84
-86.11
-85.21
-82.23
-76.07
-65.31
-49.55
-29.56
-6.77
16.82
40.18
62.58
80.05
88.86
88.00
79.29
65.91
53.94
43.34
33.79
25.37
18.39
12.76
9.39
8.47
9.11
9.79
8.59
4.91
-0.95
-8.30
-15.74
-21.70
-25.20
-26.20
-25.24
-23.49
-21.56
-19.89
-19.05
-19.34
-20.83
-23.56
-27.44
-32.15
-37.42
-42.47
-46.56
-49.26
-50.36
-49.84
-47.85
-44.59
-40.23
-35.05
-29.33
-23.51
-18.22
-13.93
-10.80
-8.61
-6.84
-4.94
-2.62
0.08
2.94
5.63
7.92
9.71
10.99
11.92
12.62
12.99
12.80
11.88
10.28
8.34
6.44
4.81
3.84
3.67
3.89
3.80
2.85
0.89
-1.62
-4.13
-6.16
-6.84
-5.48
-2.17
2.35
7.29
12.09
16.79
21.54
26.27
31.57
38.11
45.93
54.47
63.08
70.89
77.20
81.00
76.03
59.54
35.51
12.61
-2.00
-4.83
0.65
10.23
20.29
28.25
31.38
28.63
19.56
4.33
-15.65
-37.68
-57.55
-70.14
-71.00
-59.50
-39.83
-19.09
-3.96
2.36
-0.07
-8.57
-18.84
-26.06
-25.81
-14.71
7.81
38.68
71.93
100.27
117.47
119.69
106.00
78.46
41.61
1.10
-37.69
-70.65
-95.61
-112.14
-121.19
-124.52
-124.10
-121.51
-117.89
-114.03
-110.30
-106.71
-102.93
-98.45
-93.00
-86.77
-80.35
-74.44
-69.59
-65.87
-62.80
-59.50
-54.89
-48.18
-39.16
-28.25
-16.35
-4.52
6.41
16.07
24.51
32.09
39.16
45.90
52.30
58.29
63.84
69.02
73.95
78.67
83.02
86.75
89.57
91.31
91.92
91.42
89.81
87.06
83.14
78.15
72.33
66.08
59.75
53.52
47.37
41.11
34.52
27.51
20.19
12.74
5.32
-2.03
-9.41
-16.93
-24.58
-32.13
-39.09
-44.92
-49.09
-51.27
-51.40
-49.69
-46.53
-42.35
-37.56
-32.42
-27.09
-21.63
-16.17
-10.89
-6.02
-1.73
1.90
5.00
7.85
10.68
13.66
16.73
19.67
22.17
24.01
25.13
25.67
25.85
25.85
25.69
25.23
24.26
22.63
20.28
17.24
13.57
9.34
4.67
-0.18
-4.76
-8.50
-10.92
-11.79
-11.25
-9.77
-7.94
-6.23
-4.89
-3.96
-3.40
-3.19
-3.39
-4.06
-5.13
-6.42
-7.63
-8.39
-8.41
-7.54
-5.79
-3.34
-0.54
2.15
4.27
5.51
5.87
5.74
5.93
7.47
11.44
18.69
29.64
44.08
61.12
79.27
96.63
111.34
122.00
127.98
129.55
127.68
123.79
119.45
116.07
114.63
115.48
118.22
121.73
124.41
124.62
121.04
113.02
100.66
84.68
66.25
46.67
27.12
8.42
-9.07
-25.53
-41.43
-57.23
-73.11
-88.79
-103.67
-117.01
-128.17
-136.76
-142.65
-145.94
-146.91
-146.00
-143.77
-140.72
-137.11
-132.90
-127.77
-121.39
-113.67
-104.87
-95.54
-86.28
-77.47
-69.20
-61.34
-53.66
-46.00
-38.20
-30.04
-21.23
-11.50
-0.76
10.76
22.43
33.43
43.01
50.68
56.30
60.01
62.01
62.44
61.27
58.41
53.83
47.65
40.21
32.02
23.62
15.50
7.99
1.30
-4.48
-9.26
-12.86
-15.08
-15.72
-14.77
-12.39
-9.06
-5.33
-1.75
1.35
3.96
6.34
8.89
11.81
14.97
17.85
19.78
20.28
19.40
17.76
16.29
15.77
16.41
17.80
19.07
19.38
18.26
15.69
11.95
7.37
2.16
-3.54
-9.57
-15.62
-21.26
-26.09
-29.87
-32.57
-34.36
-35.47
-36.08
-36.22
-35.83
-34.73
-32.71
-29.63
-25.47
-20.35
-14.45
-8.03
-1.28
5.55
12.18
18.24
23.31
27.01
29.08
29.45
28.21
25.59
21.91
17.58
13.08
8.86
5.23
2.20
-0.50
-3.33
-6.67
-10.68
-15.26
-20.18
-25.25
-30.40
-35.63
-40.89
-45.96
-50.45
-54.00
-56.42
-57.83
-58.66
-59.39
-60.39
-61.72
-63.10
-64.05
-64.07
-62.92
-60.80
-58.28
-56.18
-55.20
-55.52
-56.70
-57.75
-57.45
-54.94
-50.00
-43.25
-35.92
-29.42
-24.84
-22.55
-22.08
-22.36
-22.06
-20.07
-15.84
-9.61
-2.54
3.36
5.70
2.60
-6.24
-18.86
-31.17
-38.18
-36.03
-23.71
-3.69
19.00
38.85
52.06
57.73
57.60
54.64
51.51
49.59
48.98
49.23
49.93
51.11
52.94
55.42
58.06
60.13
60.92
60.19
58.15
55.11
51.03
45.27
36.75
24.44
8.01
-11.82
-33.33
-54.21
-72.25
-85.79
-94.01
-96.97
-95.45
-90.81
-84.74
-78.92
-74.63
-72.38
-71.67
-71.11
-68.99
-63.91
-55.40
-44.13
-31.66
-19.80
-10.03
-2.96
1.68
4.75
7.30
10.19
13.87
18.43
23.58
28.90
33.88
38.12
41.41
43.82
45.65
47.33
49.26
51.69
54.59
57.73
60.70
63.06
64.44
64.63
63.65
61.79
59.53
57.47
56.13
55.75
56.21
57.05
57.56
57.06
55.08
51.47
46.48
40.58
34.30
28.08
22.19
16.75
11.77
7.31
3.41
0.13
-2.57
-4.87
-7.00
-9.17
-11.43
-13.62
-15.43
-16.51
-16.70
-16.04
-14.77
-13.25
-11.78
-10.55
-9.61
-8.91
-8.41
-8.13
-8.13
-8.47
-9.16
-10.12
-11.21
-12.28
-13.22
-13.88
-14.13
-13.76
-12.50
-10.16
-6.69
-2.30
2.51
7.05
10.59
12.58
12.85
11.56
9.20
6.34
3.51
1.15
-0.40
-0.86
-0.06
1.92
4.63
7.32
9.11
9.41
8.17
5.90
3.45
1.56
0.57
0.39
0.68
1.13
1.56
1.94
2.15
1.97
1.04
-0.82
-3.50
-6.42
-8.73
-9.59
-8.51
-5.54
-1.23
3.61
8.21
12.06
15.01
17.16
18.76
20.01
21.02
21.82
22.37
22.68
22.81
22.88
23.04
23.41
24.02
24.77
25.41
25.67
25.30
24.18
22.37
19.96
17.04
13.59
9.54
4.84
-0.46
-6.15
-11.96
-17.63
-22.95
-27.73
-31.70
-34.50
-35.71
-34.96
-32.16
-27.53
-21.65
-15.29
-9.25
-4.14
-0.30
2.26
3.74
4.50
4.84
4.93
4.83
4.54
4.12
3.68
3.46
3.61
4.18
5.02
5.89
6.54
6.82
6.73
6.38
5.86
5.18
4.25
2.98
1.33
-0.52
-2.31
-3.65
-4.29
-4.20
-3.59
-2.86
-2.42
-2.47
-2.91
-3.32
-3.13
-1.84
0.81
4.75
9.59
14.82
19.90
24.45
28.22
31.10
33.04
33.99
33.87
32.62
30.26
26.91
22.85
18.43
13.99
9.79
5.90
2.32
-0.98
-3.88
-6.19
-7.70
-8.30
-8.09
-7.35
-6.46
-5.76
-5.47
-5.63
-6.18
-6.99
-7.94
-8.92
-9.81
-10.58
-11.17
-11.58
-11.84
-11.98
-12.08
-12.27
-12.68
-13.40
-14.46
-15.71
-16.86
-17.46
-17.08
-15.50
-12.74
-9.19
-5.41
-1.95
0.84
2.93
4.53
5.84
6.98
7.85
8.25
8.04
7.29
6.27
5.37
4.92
5.04
5.64
6.48
7.35
8.10
8.67
9.06
9.23
9.11
8.66
7.95
7.15
6.46
5.99
5.67
5.26
4.53
3.35
1.79
0.12
-1.44
-2.76
-3.91
-5.07
-6.44
-8.07
-9.91
-11.80
-13.52
-14.83
-15.48
-15.25
-13.97
-11.67
-8.59
-5.14
-1.86
0.84
2.78
4.02
4.81
5.45
6.19
7.21
8.58
10.35
12.42
14.58
16.50
17.78
18.12
17.41
15.83
13.77
11.67
9.88
8.59
7.84
7.55
7.62
7.91
8.30
8.65
8.86
8.90
8.79
8.62
8.51
8.58
8.88
9.38
9.98
10.57
11.04
11.33
11.50
11.69
12.13
13.13
14.99
18.03
22.48
28.49
36.12
45.20
55.24
65.27
73.79
78.98
79.10
73.15
61.18
44.48
25.11
5.31
-13.09
-28.99
-42.05
-52.52
-60.99
-68.36
-75.62
-83.62
-92.65
-102.12
-110.42
-115.37
-114.95
-108.09
-95.15
-77.89
-58.86
-40.69
-25.36
-13.90
-6.48
-2.64
-1.65
-2.74
-5.21
-8.40
-11.63
-14.22
-15.58
-15.33
-13.41
-10.07
-5.84
-1.35
2.83
6.33
9.04
11.06
12.52
13.45
13.74
13.23
11.84
9.76
7.42
5.36
3.95
3.27
3.02
2.74
2.02
0.68
-1.14
-3.17
-5.14
-6.92
-8.55
-10.16
-11.85
-13.69
-15.61
-17.52
-19.35
-21.07
-22.70
-24.27
-25.85
-27.45
-29.05
-30.61
-32.00
-33.09
-33.68
-33.48
-32.13
-29.25
-24.56
-17.96
-9.63
-0.02
10.27
20.55
30.19
38.72
45.79
51.29
55.23
57.74
58.95
58.96
57.86
55.68
52.56
48.72
44.44
39.98
35.46
30.82
25.88
20.45
14.50
8.12
1.53
-5.14
-11.87
-18.82
-26.18
-33.96
-41.94
-49.59
-56.24
-61.29
-64.35
-65.36
-64.53
-62.26
-59.04
-55.38
-51.68
-48.11
-44.46
-40.13
-34.19
-25.75
-14.31
-0.07
16.02
32.57
48.14
61.79
73.19
82.62
90.64
97.78
104.43
110.78
116.93
122.93
128.81
134.53
139.98
144.96
149.22
152.42
154.13
153.77
150.75
144.53
134.87
121.89
106.06
88.10
68.92
49.44
30.60
13.22
-2.03
-14.80
-25.07
-33.11
-39.36
-44.33
-48.54
-52.41
-56.26
-60.17
-63.94
-67.08
-68.98
-69.21
-67.69
-64.82
-61.31
-57.85
-54.95
-52.74
-51.09
-49.83
-48.80
-47.94
-47.19
-46.42
-45.42
-44.01
-42.10
-39.83
-37.42
-35.08
-32.91
-30.82
-28.72
-26.56
-24.49
-22.78
-21.70
-21.36
-21.63
-22.16
-22.58
-22.60
-22.11
-21.26
-20.28
-19.45
-19.03
-19.24
-20.19
-21.87
-24.06
-26.36
-28.22
-29.08
-28.59
-26.68
-23.65
-20.07
-16.50
-13.42
-11.04
-9.41
-8.48
-8.20
-8.55
-9.50
-10.96
-12.79
-14.80
-16.78
-18.58
-20.15
-21.61
-23.19
-25.19
-27.85
-31.23
-35.14
-39.27
-43.31
-47.19
-51.14
-55.48
-60.40
-65.67
-70.62
-74.47
-76.65
-77.23
-76.86
-76.49
-76.97
-78.65
-81.27
-84.08
-85.97
-85.64
-81.62
-72.57
-57.77
-37.70
-14.36
9.08
29.28
43.93
52.46
56.05
56.68
56.02
54.55
51.66
46.31
37.99
27.20
15.34
4.04
-5.52
-13.01
-18.87
-23.76
-28.14
-31.85
-34.21
-34.52
-32.62
-29.24
-25.95
-24.51
-26.09
-30.62
-36.64
-41.89
-44.11
-42.02
-35.70
-26.42
-16.03
-6.21
2.02
8.42
13.20
16.66
18.93
19.92
19.59
18.10
16.00
14.06
13.06
13.46
15.32
18.25
21.70
25.17
28.40
31.44
34.53
37.92
41.63
45.42
48.73
50.91
51.40
49.98
46.83
42.49
37.62
32.79
28.29
24.09
19.93
15.53
10.73
5.61
0.41
-4.47
-8.67
-11.90
-14.00
-14.92
-14.73
-13.57
-11.69
-9.36
-6.86
-4.42
-2.18
-0.17
1.67
3.39
4.99
6.39
7.47
8.17
8.56
8.83
9.24
10.04
11.39
13.29
15.69
18.46
21.51
24.72
28.00
31.24
34.33
37.25
40.04
42.75
45.42
47.98
50.25
51.94
52.81
52.68
51.55
49.56
46.93
43.88
40.59
37.12
33.47
29.58
25.37
20.74
15.63
10.01
3.99
-2.21
-8.20
-13.59
-18.05
-21.50
-24.10
-26.27
-28.46
-30.97
-33.83
-36.63
-38.71
-39.32
-37.89
-34.26
-28.74
-21.98
-14.73
-7.62
-0.96
5.19
10.91
16.23
20.98
24.91
27.76
29.51
30.39
30.78
31.10
31.55
32.11
32.57
32.75
32.61
32.28
31.94
31.69
31.46
31.01
30.06
28.46
26.26
23.68
20.98
18.31
15.70
13.06
10.29
7.35
4.33
1.33
-1.53
-4.22
-6.77
-9.21
-11.57
-13.79
-15.75
-17.33
-18.47
-19.22
-19.75
-20.31
-21.20
-22.62
-24.67
-27.29
-30.36
-33.70
-37.02
-39.84
-41.49
-41.19
-38.28
-32.55
-24.39
-14.72
-4.74
4.50
12.35
18.67
23.66
27.56
30.55
32.66
33.92
34.45
34.47
34.26
34.00
33.74
33.41
32.96
32.39
31.77
31.13
30.41
29.44
28.05
26.21
24.07
21.98
20.28
19.13
18.45
18.00
17.48
16.70
15.65
14.46
13.29
12.28
11.48
10.93
10.68
10.77
11.19
11.77
12.26
12.30
11.59
9.90
7.23
3.78
-0.11
-3.94
-7.15
-9.24
-9.90
-9.16
-7.42
-5.30
-3.48
-2.35
-1.95
-1.98
-2.01
-1.79
-1.47
-1.60
-2.91
-6.01
-11.05
-17.57
-24.52
-30.62
-34.66
-35.94
-34.40
-30.61
-25.60
-20.48
-16.15
-13.10
-11.41
-10.78
-10.73
-10.69
-10.19
-8.96
-6.96
-4.35
-1.38
1.66
4.58
7.25
9.64
11.66
13.22
14.16
14.42
13.97
12.89
11.35
9.51
7.55
5.58
3.69
1.93
0.34
-1.11
-2.48
-3.88
-5.49
-7.42
-9.67
-12.03
-14.14
-15.58
-16.07
-15.58
-14.34
-12.72
-11.00
-9.26
-7.40
-5.23
-2.68
0.20
3.21
6.15
8.92
11.48
13.81
15.81
17.24
17.79
17.28
15.73
13.54
11.36
9.98
9.99
11.59
14.40
17.58
20.06
20.94
19.81
16.84
12.74
8.46
4.91
2.67
1.92
2.42
3.70
5.31
7.02
8.98
11.59
15.25
19.97
25.14
29.52
31.66
30.51
25.98
19.24
12.41
7.85
7.26
10.89
17.15
22.92
24.41
18.35
3.14
-20.47
-49.31
-78.64
-103.40
-119.75
-125.98
-122.90
-113.20
-100.33
-87.36
-76.07
-66.70
-58.15
-48.50
-35.71
-18.38
3.78
29.64
56.85
82.34
103.18
117.33
124.09
124.17
119.28
111.69
103.75
97.38
93.53
91.79
90.19
85.65
75.16
57.08
32.07
3.02
-26.05
-51.38
-70.64
-83.12
-89.22
-89.73
-85.47
-77.39
-66.90
-55.81
-45.98
-38.67
-34.19
-31.96
-31.10
-30.86
-30.98
-31.48
-32.30
-33.17
-33.67
-33.33
-31.92
-29.36
-25.69
-20.98
-15.35
-8.97
-2.16
4.68
11.17
17.02
22.02
26.04
28.94
30.62
31.01
30.15
28.12
25.01
20.83
15.52
9.08
1.75
-5.81
-12.52
-17.25
-19.18
-18.17
-14.89
-10.58
-6.58
-3.89
-2.88
-3.36
-4.80
-6.62
-8.44
-10.06
-11.44
-12.55
-13.41
-14.11
-14.82
-15.82
-17.40
-19.71
-22.76
-26.37
-30.21
-33.90
-37.02
-39.20
-40.27
-40.37
-40.03
-40.00
-40.94
-43.04
-45.85
-48.34
-49.34
-48.05
-44.35
-38.84
-32.54
-26.45
-21.25
-17.10
-13.71
-10.47
-6.58
-1.23
6.10
15.51
26.46
37.89
48.42
56.76
62.08
64.16
63.36
60.43
56.31
51.91
47.94
44.88
42.83
41.59
40.82
40.21
39.75
39.74
40.49
42.04
43.85
44.85
43.80
39.91
33.13
24.26
14.60
5.47
-2.17
-7.85
-11.51
-13.31
-13.51
-12.51
-10.85
-9.21
-8.25
-8.42
-9.88
-12.43
-15.66
-19.16
-22.61
-25.83
-28.79
-31.53
-34.09
-36.48
-38.64
-40.40
-41.57
-41.96
-41.50
-40.24
-38.37
-36.16
-33.95
-32.10
-30.87
-30.37
-30.45
-30.68
-30.48
-29.40
-27.33
-24.62
-21.96
-20.04
-19.28
-19.66
-20.73
-21.86
-22.30
-21.41
-18.72
-14.04
-7.63
-0.14
7.49
14.41
20.09
24.51
28.03
31.13
34.13
37.12
39.97
42.50
44.54
46.02
46.93
47.31
47.30
47.10
46.88
46.70
46.37
45.49
43.55
40.17
35.21
28.84
21.43
13.40
5.16
-2.98
-10.76
-17.90
-24.20
-29.54
-34.00
-37.76
-40.90
-43.26
-44.36
-43.59
-40.58
-35.59
-29.60
-23.96
