1698927076.00
64.000000
-0.00
-0.00
-0.00
-0.00
-0.00
-0.00
-0.00
-0.00
-0.00
-0.00
0.00
0.01
0.01
-0.00
-0.03
-0.05
-0.05
0.00
0.13
0.36
0.66
1.01
1.37
1.72
2.06
2.40
2.79
3.24
3.80
4.42
5.06
5.66
6.20
6.68
7.15
7.68
8.31
9.14
10.09
11.04
11.88
12.56
13.14
13.76
14.65
15.96
17.91
20.32
22.90
25.38
27.58
29.57
31.68
34.32
37.81
42.54
48.15
54.10
59.83
64.97
69.58
74.14
79.34
85.71
93.76
103.00
112.62
121.73
129.77
136.75
143.30
150.75
157.77
166.64
177.95
191.79
206.97
220.57
228.25
225.36
208.53
176.87
132.76
80.05
23.07
-34.94
-92.44
-149.16
-205.23
-260.37
-313.74
-363.87
-409.83
-450.91
-486.50
-515.74
-537.23
-549.22
-549.96
-538.37
-514.21
-478.67
-433.88
-382.45
-327.02
-269.84
-212.63
-156.66
-102.95
-52.37
-5.90
35.58
71.43
101.35
125.50
144.38
158.69
169.15
176.37
180.75
182.57
182.07
179.51
175.23
169.65
163.18
156.15
148.81
141.30
133.69
126.02
118.33
110.69
103.16
95.80
88.68
81.83
75.25
68.95
62.95
57.25
51.86
46.78
42.03
37.59
33.45
29.61
26.07
22.81
19.83
17.11
14.67
12.48
10.54
8.83
7.35
6.07
4.97
4.05
3.27
2.62
2.09
1.65
1.30
1.01
0.79
0.61
0.47
0.37
0.29
0.23
0.20
0.17
0.16
0.16
0.17
0.19
0.22
0.25
0.28
0.32
0.36
0.41
0.45
0.50
0.55
0.60
0.66
0.71
0.78
0.84
0.91
0.99
1.08
1.17
1.28
1.40
1.54
1.69
1.86
2.05
2.26
2.49
2.75
3.03
3.34
3.69
4.06
4.47
4.92
5.40
5.92
6.48
7.08
7.73
8.42
9.15
9.93
10.75
11.63
12.55
13.50
14.53
15.61
16.76
17.97
19.24
20.53
21.81
23.01
24.04
24.80
25.16
25.01
24.24
22.78
20.60
17.73
14.25
10.25
5.93
1.47
-2.93
-7.11
-10.91
-14.22
-16.93
-18.97
-20.31
-20.94
-20.93
-20.40
-19.48
-18.32
-17.04
-15.72
-14.36
-12.96
-11.47
-9.93
-8.41
-6.97
-5.68
-4.60
-3.67
-2.76
-1.71
-0.35
1.31
3.10
4.82
6.24
7.24
7.86
8.33
9.03
10.38
12.25
14.37
16.29
17.51
17.75
17.07
15.92
15.03
15.13
16.13
17.63
18.90
19.12
17.74
14.75
10.72
6.53
3.18
0.60
-1.65
-4.47
-9.17
-17.28
-30.41
-49.96
-76.91
-106.46
-134.27
-155.40
-165.65
-162.98
-148.44
-125.77
-99.91
-75.22
-54.04
-37.33
-24.53
-14.77
-7.57
-2.77
-0.12
1.04
1.83
3.34
5.70
8.59
11.38
13.42
14.45
14.59
14.34
14.37
15.42
17.75
21.45
26.26
31.50
36.21
39.39
40.34
38.84
35.26
30.23
24.75
19.99
17.13
17.22
20.97
28.45
39.06
51.44
63.79
74.32
81.66
85.12
84.69
81.00
74.98
67.67
59.98
52.57
45.80
39.67
33.93
28.20
22.14
15.65
8.98
2.70
-2.52
-6.15
-7.93
-8.05
-7.00
-5.45
-4.08
-3.42
-3.81
-5.27
-7.52
-10.03
-12.21
-13.67
-14.35
-14.59
-14.91
-15.77
-17.34
-19.46
-21.69
-23.57
-24.80
-25.36
-25.43
-25.36
-25.43
-25.88
-26.80
-28.08
-29.60
-31.10
-32.34
-33.22
-33.77
-34.27
-35.21
-37.04
-39.96
-43.60
-46.98
-48.65
-47.13
-41.44
-31.46
-18.11
-3.06
11.70
24.34
33.64
39.07
40.81
39.46
35.90
31.05
25.68
20.43
15.69
11.71
8.54
6.17
4.58
3.77
3.76
4.59
6.13
8.17
10.39
12.48
14.22
15.52
16.28
16.35
15.46
13.38
10.11
5.98
1.65
-2.18
-5.07
-7.05
-8.55
-10.12
-12.15
-14.67
-17.35
-19.75
-21.50
-22.45
-22.71
-22.52
-22.17
-21.89
-21.83
-22.00
-22.34
-22.70
-22.92
-22.86
-22.51
-22.04
-21.79
-22.18
-23.54
-25.83
-28.53
-30.57
-30.58
-27.26
-19.87
-8.50
5.80
21.29
36.00
48.28
57.14
62.32
64.17
63.32
60.34
55.72
49.91
43.44
36.98
31.30
27.06
24.61
23.90
24.62
26.34
28.75
31.72
35.23
39.19
43.32
47.15
50.12
51.81
52.05
50.97
48.91
46.34
43.74
41.47
39.69
38.24
36.64
34.25
30.43
24.92
18.04
10.65
3.89
-1.21
-4.17
-5.31
-5.56
-6.25
-8.54
-13.28
-20.89
-31.40
-44.50
-59.32
-74.26
-87.10
-95.45
-97.60
-93.30
-84.06
-72.68
-62.27
-55.19
-52.33
-53.26
-56.83
-61.94
-67.94
-74.63
-81.99
-89.88
-97.97
-105.81
-113.04
-119.43
-124.86
-129.49
-133.59
-137.54
-141.80
-146.75
-152.56
-159.18
-166.36
-173.80
-181.28
-188.49
-194.83
-199.01
-199.03
-192.55
-177.50
-152.63
-117.80
-73.79
-22.06
35.48
96.33
157.11
213.49
260.76
294.87
313.62
317.27
308.32
290.49
267.46
242.17
216.47
191.51
168.04
146.65
127.77
111.61
98.11
87.05
78.02
70.49
63.89
57.75
52.13
47.90
46.51
49.52
57.65
70.31
85.53
100.64
113.11
121.31
124.74
123.85
119.67
113.35
105.84
97.63
88.65
78.44
66.35
52.06
35.87
18.78
2.18
-12.65
-24.98
-34.76
-42.52
-49.01
-54.71
-59.69
-63.46
-65.29
-64.68
-61.65
-56.99
-51.98
-47.91
-45.51
-44.67
-44.63
-44.47
-43.69
-42.55
-41.85
-42.42
-44.60
-47.97
-51.56
-54.38
-55.85
-56.15
-56.10
-56.83
-59.35
-64.03
-70.23
-76.27
-79.71
-78.00
-69.47
-54.04
-33.59
-11.34
9.14
25.21
35.83
41.51
43.53
43.03
40.52
35.99
29.49
21.55
13.37
6.34
1.57
-0.62
-0.73
0.26
1.45
2.35
3.01
3.81
5.03
6.60
8.04
8.67
7.98
5.96
3.13
0.28
-1.92
-3.23
-3.96
-4.81
-6.52
-9.59
-14.07
-19.61
-25.54
-31.12
-35.69
-38.90
-40.85
-42.08
-43.41
-45.71
-49.39
-54.08
-58.50
-60.72
-58.68
-50.99
-37.55
-19.78
-0.31
17.86
32.30
41.80
46.48
47.41
45.88
42.91
38.99
34.30
29.01
23.50
18.38
14.28
11.61
10.42
10.46
11.32
12.63
14.15
15.74
17.31
18.79
20.05
20.90
21.26
21.08
20.42
19.35
17.93
16.19
14.17
11.98
9.90
8.33
7.70
8.25
9.79
11.62
12.58
11.33
6.84
-1.15
-11.99
-24.25
-36.17
-46.27
-53.70
-58.42
-60.91
-61.85
-61.75
-60.88
-59.41
-57.48
-55.39
-53.55
-52.35
-52.11
-53.05
-55.05
-57.50
-59.15
-58.19
-52.67
-41.25
-23.81
-1.75
22.42
45.90
66.43
82.96
95.43
104.36
110.14
112.75
111.87
107.32
99.52
89.59
78.99
68.97
60.09
52.13
44.51
36.92
29.75
23.96
20.42
19.25
19.46
19.23
16.78
11.20
2.92
-6.64
-15.76
-23.20
-28.55
-32.09
-34.40
-35.91
-36.83
-37.24
-37.23
-37.07
-37.14
-37.75
-39.06
-40.97
-43.21
-45.42
-47.29
-48.69
-49.65
-50.36
-51.01
-51.67
-52.30
-52.62
-52.25
-50.82
-48.10
-44.22
-39.67
-35.32
-32.27
-31.51
-33.61
-38.48
-45.20
-52.00
-56.62
-56.77
-50.91
-38.76
-21.56
-1.80
17.49
33.73
45.40
52.25
55.02
54.83
52.73
49.39
45.26
40.72
36.17
32.09
28.82
26.57
25.36
25.08
25.59
26.71
28.31
30.23
32.25
34.07
35.34
35.69
34.90
32.96
30.16
27.03
24.15
21.93
20.51
19.66
18.90
17.73
15.80
13.05
9.76
6.41
3.53
1.35
-0.20
-1.50
-3.05
-5.21
-8.03
-11.24
-14.49
-17.50
-20.27
-22.92
-25.78
-29.15
-33.29
-38.45
-44.70
-51.74
-58.67
-63.99
-65.85
-62.67
-53.74
-39.73
-22.55
-4.83
10.86
22.88
30.73
34.90
36.34
35.92
34.11
31.09
27.00
22.23
17.42
13.36
10.67
9.64
10.18
11.94
14.45
17.27
20.06
22.62
24.82
26.58
27.82
28.36
28.04
26.83
24.94
22.84
21.14
20.19
19.98
20.05
19.72
18.41
15.98
12.75
9.50
7.15
6.51
7.95
11.21
15.46
19.43
21.88
22.01
19.80
15.93
11.53
7.65
4.90
3.29
2.38
1.53
0.11
-2.34
-6.07
-10.96
-16.25
-20.42
-21.36
-16.94
-5.90
11.42
32.96
55.46
75.59
91.02
100.95
105.92
107.03
105.18
100.72
93.64
84.16
73.02
61.56
51.21
42.99
37.07
32.95
29.72
26.56
23.00
18.96
14.64
10.25
5.97
1.84
-2.11
-5.92
-9.56
-13.04
-16.35
-19.51
-22.57
-25.60
-28.71
-31.95
-35.26
-38.48
-41.31
-43.48
-44.86
-45.54
-45.77
-45.81
-45.79
-45.68
-45.43
-45.09
-44.97
-45.51
-47.04
-49.57
-52.68
-55.60
-57.53
-58.01
-57.05
-55.27
-53.65
-53.24
-54.85
-58.67
-64.01
-69.33
-72.43
-70.97
-63.33
-49.17
-29.79
-7.83
13.60
31.79
45.14
53.36
57.11
57.53
55.77
52.74
49.20
45.79
43.08
41.46
41.03
41.64
42.97
44.76
46.95
49.60
52.76
56.30
59.76
62.45
63.50
62.15
57.94
50.89
41.52
30.71
19.41
8.41
-1.92
-11.66
-21.11
-30.59
-40.20
-49.74
-58.80
-66.91
-73.79
-79.28
-83.53
-86.82
-89.52
-91.99
-94.40
-96.75
-98.97
-101.11
-103.47
-106.59
-111.01
-116.91
-123.73
-130.13
-134.10
-133.49
-126.61
-112.75
-92.51
-67.79
-41.48
-16.76
3.72
18.59
28.00
33.36
36.56
39.14
41.79
44.35
46.33
47.42
47.82
48.06
48.65
49.68
50.77
51.35
50.97
49.66
47.81
46.01
44.70
43.99
43.71
43.53
43.27
42.96
42.77
42.81
42.79
42.06
39.76
35.30
28.72
20.86
13.08
6.72
2.53
0.45
-0.35
-1.01
-2.43
-5.06
-8.84
-13.48
-18.73
-24.64
-31.48
-39.62
-49.19
-59.97
-71.22
-81.79
-90.22
-94.91
-94.39
-87.70
-74.80
-56.85
-36.17
-15.70
1.72
14.16
21.06
23.10
21.70
18.34
14.12
9.61
5.10
0.74
-3.19
-6.32
-8.18
-8.23
-5.98
-1.18
6.08
15.32
25.84
36.87
47.82
58.35
68.29
77.41
85.24
91.11
94.33
94.50
91.95
87.79
83.59
80.85
80.38
81.97
84.50
86.54
87.18
86.50
85.48
85.42
87.20
90.87
95.81
101.06
105.80
109.47
111.72
112.42
111.59
109.61
107.09
104.64
102.66
101.19
99.98
98.79
97.62
96.72
96.45
96.99
98.24
99.95
101.80
103.57
105.07
106.07
106.17
104.74
101.07
94.55
84.84
72.00
56.46
38.94
20.21
0.97
-18.09
-36.21
-52.55
-66.16
-76.51
-83.78
-88.95
-93.58
-99.08
-105.93
-113.49
-120.11
-123.94
-123.67
-119.10
-111.25
-102.18
-94.37
-90.17
-91.12
-97.59
-108.59
-122.02
-135.22
-145.75
-152.03
-153.77
-151.88
-148.04
-144.21
-142.04
-142.77
-147.01
-154.80
-165.69
-178.93
-193.59
-208.85
-224.01
-238.43
-251.40
-261.97
-268.96
-271.17
-267.65
-258.08
-242.99
-223.79
-202.63
-181.86
-163.55
-148.87
-137.83
-129.28
-121.44
-112.72
-102.49
-91.27
-80.59
-72.27
-67.57
-66.62
-68.22
-70.25
-70.34
-66.62
-58.10
-44.82
-27.52
-7.32
14.51
36.67
57.65
75.74
89.26
97.02
98.79
95.40
88.51
79.95
70.98
62.04
52.73
42.29
30.19
16.47
1.91
-12.35
-25.40
-36.84
-46.87
-56.11
-65.07
-73.94
-82.48
-90.36
-97.42
-103.86
-109.96
-115.76
-120.87
-124.53
-126.18
-125.70
-123.36
-119.27
-112.91
-102.95
-87.80
-66.45
-39.11
-7.31
26.43
59.35
89.07
113.68
131.99
143.43
148.28
147.72
143.70
138.52
134.16
131.81
131.73
133.54
136.62
140.57
145.24
150.66
156.77
163.23
169.46
174.81
178.98
182.26
185.48
189.62
195.35
202.47
210.03
216.71
221.55
224.44
226.09
227.52
229.29
231.06
231.73
229.96
224.95
216.97
207.35
197.91
190.42
185.77
183.94
184.23
185.41
185.70
182.72
173.84
157.14
133.01
105.01
79.39
62.82
59.41
68.33
83.67
96.76
99.51
87.52
60.83
22.59
-23.50
-75.43
-133.81
-201.10
-279.74
-369.89
-467.63
-564.66
-649.87
-712.39
-745.22
-747.36
-723.70
-682.44
-631.33
-574.76
-513.38
-445.61
-370.55
-289.77
-207.38
-128.33
-56.13
8.08
65.15
116.43
162.16
201.33
232.52
255.92
274.20
291.75
312.22
335.84
358.28
371.93
369.12
345.61
302.02
242.82
173.64
99.00
22.13
-53.45
-122.11
-175.88
-206.58
-209.19
-184.52
-139.39
-84.15
-28.96
19.29
58.03
88.17
111.83
130.65
144.99
154.49
159.06
159.73
158.91
159.94
166.13
179.33
198.81
220.97
240.04
249.95
246.45
228.69
199.55
164.38
128.99
97.75
72.84
54.62
42.88
37.54
38.54
44.89
53.95
61.47
62.96
55.51
39.10
16.76
-6.80
-27.19
-42.22
-52.86
-62.60
-75.75
-95.06
-119.93
-146.11
-167.12
-176.76
-171.61
-152.29
-122.87
-89.00
-55.70
-26.01
-1.08
19.06
34.48
44.87
49.74
48.68
41.64
29.05
11.60
-9.53
-32.78
-56.09
-77.33
-94.61
-106.66
-113.01
-113.99
-110.39
-103.28
-93.85
-83.29
-72.70
-62.88
-54.31
-47.18
-41.58
-37.86
-36.77
-39.33
-46.52
-58.80
-75.77
-96.12
-117.93
-139.37
-159.33
-177.77
-195.42
-213.04
-230.28
-245.24
-254.62
-255.07
-244.59
-223.65
-195.06
-162.60
-129.24
-96.18
-63.06
-29.26
4.77
37.19
65.58
88.32
105.49
118.52
129.20
138.45
145.98
150.87
152.64
151.90
150.23
149.39
150.48
153.43
157.28
160.73
162.76
162.87
161.05
157.51
152.36
145.55
136.93
126.51
114.60
101.84
89.07
77.07
66.37
57.10
48.91
41.23
33.44
25.23
16.90
9.26
3.38
-0.02
-1.15
-1.33
-2.64
-7.09
-15.63
-27.46
-40.13
-49.99
-53.19
-46.64
-28.85
-0.71
34.35
70.65
101.52
121.17
126.51
118.16
100.07
77.75
56.14
37.81
22.67
8.83
-5.81
-22.16
-39.37
-55.08
-66.37
-70.69
-66.52
-53.69
-33.28
-7.34
21.46
50.10
75.49
94.82
105.93
107.70
100.41
85.77
66.54
45.86
26.39
9.65
-4.07
-15.31
-24.92
-33.43
-40.93
-47.16
-51.89
-55.09
-57.04
-58.16
-58.84
-59.32
-59.70
-60.00
-60.33
-60.98
-62.51
-65.58
-70.71
-77.79
-85.76
-92.47
-95.19
-91.36
-79.53
-59.93
-34.44
-6.05
22.01
46.97
67.05
81.46
90.25
94.01
93.64
90.10
84.33
77.21
69.43
61.62
54.36
48.10
43.21
39.92
38.25
38.09
39.19
41.23
43.84
46.60
49.06
50.82
51.48
50.89
49.06
46.31
43.07
39.78
36.73
33.91
31.09
27.91
24.06
19.38
14.04
8.40
2.97
-1.86
-5.99
-9.67
-13.45
-17.89
-23.33
-29.60
-36.13
-42.16
-47.03
-50.54
-52.97
-55.01
-57.48
-61.04
-66.00
-72.13
-78.67
-84.26
-87.12
-85.41
-77.68
-63.53
-43.78
-20.50
3.51
25.54
43.58
56.63
64.64
68.18
68.09
65.29
60.64
55.05
49.26
43.83
39.06
35.00
31.57
28.77
26.74
25.71
25.87
27.22
29.50
32.22
34.77
36.56
37.16
36.35
34.17
30.91
26.95
22.64
18.15
13.51
8.59
3.27
-2.46
-8.41
-14.27
-19.68
-24.43
-28.51
-32.23
-35.92
-39.87
-44.12
-48.43
-52.45
-55.96
-59.00
-61.99
-65.50
-70.09
-76.05
-83.23
-90.90
-97.69
-101.65
-100.62
-92.73
-77.17
-54.69
-27.57
0.89
27.29
49.03
64.89
74.90
79.96
81.13
79.34
75.29
69.51
62.62
55.24
47.90
40.99
34.72
29.28
24.92
22.01
20.86
21.57
23.83
27.07
30.57
33.72
36.11
37.57
38.03
37.39
35.58
32.59
28.54
23.69
18.44
13.18
8.19
3.57
-0.77
-5.01
-9.40
-14.08
-19.01
-23.95
-28.52
-32.39
-35.45
-37.89
-40.21
-43.16
-47.38
-53.28
-60.65
-68.57
-75.44
-79.24
-78.06
-70.62
-56.77
-37.58
-15.15
7.92
29.13
46.62
59.38
67.22
70.63
70.35
67.31
62.35
56.20
49.47
42.56
35.77
29.28
23.26
17.85
13.29
9.78
7.52
6.70
7.33
9.34
12.46
16.21
19.93
22.88
24.37
23.96
21.63
17.79
13.13
8.44
4.28
0.78
-2.30
-5.43
-9.02
-13.23
-17.88
-22.57
-26.88
-30.61
-33.84
-36.86
-40.03
-43.64
-47.88
-52.83
-58.35
-64.01
-68.85
-71.38
-69.97
-63.29
-50.96
-33.86
-13.90
6.45
24.87
39.73
50.25
56.45
58.76
57.83
54.32
48.84
42.02
34.42
26.55
18.84
11.64
5.22
-0.22
-4.46
-7.33
-8.66
-8.34
-6.37
-3.00
1.27
5.76
9.69
12.41
13.61
13.32
11.85
9.70
7.22
4.61
1.81
-1.36
-5.09
-9.40
-14.12
-18.86
-23.19
-26.80
-29.59
-31.86
-34.12
-37.10
-41.46
-47.50
-54.97
-62.85
-69.46
-72.78
-70.96
-63.03
-49.29
-31.27
-11.39
7.77
24.19
36.73
45.18
49.94
51.61
50.78
47.90
43.48
38.05
32.23
26.61
21.56
17.23
13.66
10.92
9.19
8.71
9.65
11.95
15.25
18.95
22.36
24.84
25.94
25.48
23.49
20.26
16.20
11.80
7.49
3.49
-0.26
-3.95
-7.93
-12.36
-17.22
-22.22
-26.92
-30.89
-33.91
-36.11
-37.97
-40.21
-43.55
-48.45
-54.82
-61.89
-68.22
-72.01
-71.52
-65.57
-54.03
-37.82
-18.76
0.90
19.07
34.21
45.54
52.90
56.57
57.04
54.87
50.71
45.24
39.15
32.98
27.07
21.54
16.39
11.68
7.72
5.01
4.04
5.02
7.68
11.36
15.20
18.47
20.76
22.03
22.41
22.13
21.31
19.93
17.86
14.99
11.29
6.86
2.03
-2.80
-7.26
-11.19
-14.74
-18.25
-22.06
-26.37
-30.98
-35.47
-39.38
-42.47
-44.86
-47.00
-49.49
-52.90
-57.49
-63.13
-69.20
-74.50
-77.42
-76.24
-69.54
-56.79
-38.66
-17.05
5.35
25.81
42.30
53.87
60.70
63.59
63.52
61.23
57.16
51.65
45.06
37.95
30.95
24.63
19.30
15.09
12.02
10.04
9.20
9.55
11.11
13.72
17.07
20.64
23.79
26.00
26.98
26.72
25.57
23.94
22.22
20.55
18.84
16.82
14.27
11.09
7.34
3.20
-1.21
-5.79
-10.50
-15.31
-20.18
-25.01
-29.64
-33.90
-37.61
-40.61
-42.81
-44.23
-45.01
-45.46
-46.03
-47.37
-50.05
-54.38
-60.13
-66.31
-71.21
-72.74
-69.05
-59.16
-43.38
-23.35
-1.60
19.12
36.53
49.32
57.25
60.82
60.91
58.35
53.75
47.55
40.17
32.19
24.27
17.06
11.04
6.39
3.12
1.16
0.49
1.17
3.12
6.10
9.61
12.97
15.59
17.04
17.28
16.52
15.14
13.54
11.99
10.57
9.22
7.76
6.08
4.12
1.96
-0.39
-3.01
-6.12
-10.03
-14.88
-20.50
-26.43
-32.00
-36.68
-40.22
-42.76
-44.78
-46.87
-49.55
-53.08
-57.26
-61.34
-64.04
-63.77
-59.01
-48.94
-33.79
-14.95
5.34
24.63
40.89
52.88
60.22
63.19
62.44
58.75
53.00
46.01
38.56
31.27
24.50
18.43
13.15
8.74
5.39
3.29
2.59
3.29
5.22
8.05
11.35
14.65
17.45
19.33
20.02
19.42
17.70
15.17
12.21
9.11
6.06
3.11
0.30
-2.30
-4.60
-6.58
-8.35
-10.19
-12.35
-14.94
-17.80
-20.60
-22.99
-24.89
-26.56
-28.53
-31.35
-35.42
-40.75
-46.86
-52.83
-57.35
-58.94
-56.21
-48.30
-35.19
-17.93
1.53
20.82
37.72
50.75
59.34
63.73
64.59
62.69
58.67
53.12
46.56
39.60
32.85
26.79
21.69
17.59
14.41
12.08
10.63
10.18
10.85
12.63
15.34
18.59
21.85
24.53
26.02
25.85
23.75
19.86
14.71
9.07
3.75
-0.70
-4.16
-6.96
-9.67
-12.81
-16.61
-20.88
-25.13
-28.79
-31.51
-33.31
-34.55
-35.86
-37.82
-40.81
-44.86
-49.64
-54.32
-57.78
-58.64
-55.63
-47.93
-35.61
-19.78
-2.36
14.42
28.58
38.95
45.19
47.69
47.14
44.22
39.53
33.61
26.97
20.19
13.77
8.09
3.34
-0.44
-3.22
-4.95
-5.54
-4.91
-3.10
-0.30
3.14
6.70
9.82
12.01
12.88
12.33
10.50
7.77
4.67
1.60
-1.21
-3.81
-6.44
-9.40
-12.85
-16.74
-20.81
-24.72
-28.15
-30.89
-33.00
-34.73
-36.54
-38.93
-42.29
-46.70
-51.67
-56.16
-58.73
-57.86
-52.44
-42.21
-27.82
-10.76
7.07
23.78
37.85
48.30
54.74
57.22
56.24
52.53
46.98
40.43
33.52
26.67
20.06
13.88
8.30
3.60
0.08
-2.05
-2.74
-2.12
-0.44
1.94
4.60
7.07
8.86
9.64
9.34
8.14
6.48
4.77
3.25
1.92
0.48
-1.42
-4.08
-7.56
-11.62
-15.83
-19.72
-22.96
-25.54
-27.75
-30.20
-33.50
-38.08
-43.87
-50.12
-55.50
-58.30
-56.95
-50.50
-39.04
-23.67
-6.39
10.56
25.26
36.49
43.86
47.68
48.53
47.12
44.03
39.81
34.96
29.98
25.29
21.22
17.91
15.35
13.47
12.19
11.55
11.63
12.58
14.42
16.94
19.68
21.93
23.03
22.48
20.20
16.56
12.24
7.94
4.16
1.06
-1.58
-4.13
-6.98
-10.38
-14.36
-18.76
-23.23
-27.42
-31.02
-33.95
-36.36
-38.68
-41.47
-45.28
-50.32
-56.26
-62.18
-66.60
-67.90
-64.79
-56.74
-44.24
-28.65
-11.91
4.05
17.71
28.19
35.26
39.23
40.68
40.25
38.56
36.07
33.10
29.81
26.30
22.69
19.18
16.08
13.81
12.70
12.97
14.59
17.28
20.56
23.84
26.60
28.48
29.33
29.14
28.02
26.09
23.49
20.36
16.82
13.09
9.36
5.87
2.81
0.23
-1.96
-4.01
-6.21
-8.74
-11.57
-14.41
-16.87
-18.66
-19.78
-20.63
-21.85
-24.09
-27.78
-32.98
-39.34
-46.11
-52.12
-55.93
-56.13
-51.66
-42.37
-29.12
-13.67
1.82
15.51
26.29
33.91
38.70
41.16
41.74
40.72
38.41
35.18
31.50
27.78
24.35
21.36
18.92
17.12
16.04
15.75
16.23
17.35
18.90
20.58
22.03
22.80
22.44
20.63
17.35
12.88
7.85
2.95
-1.28
-4.61
-7.21
-9.47
-11.73
-14.16
-16.64
-18.92
-20.82
-22.37
-23.84
-25.61
-27.92
-30.78
-33.83
-36.63
-38.78
-40.19
-41.09
-41.96
-43.34
-45.69
-49.12
-53.33
-57.52
-60.46
-60.76
-57.29
-49.50
-37.71
-23.05
-7.19
8.06
21.13
30.93
36.97
39.34
38.55
35.45
30.91
25.72
20.44
15.43
10.88
6.99
3.94
1.90
0.90
0.84
1.57
2.95
4.90
7.43
10.47
13.84
17.17
20.09
22.25
23.64
24.62
25.99
28.77
34.11
42.97
55.95
73.24
94.77
120.35
149.91
183.58
221.71
264.55
311.68
361.51
410.95
455.70
491.10
513.43
520.93
514.32
496.30
470.52
440.26
407.57
373.12
336.65
297.75
256.39
213.21
169.36
126.07
84.23
44.15
5.43
-32.70
-70.96
-109.54
-147.85
-184.73
-218.92
-249.58
-276.75
-301.34
-324.86
-349.07
-375.93
-407.30
-444.41
-486.70
-530.66
-569.57
-594.79
-598.57
-577.10
-532.37
-471.47
-403.98
-338.56
-280.53
-231.54
-190.89
-157.38
-130.42
-109.95
-95.54
-85.68
-77.91
-69.64
-59.19
-46.38
-32.41
-19.31
-8.95
-2.26
1.02
2.20
2.91
4.42
7.02
9.95
11.88
11.64
8.82
3.95
-1.73
-6.74
-9.91
-10.47
-8.11
-2.85
4.97
14.67
25.17
35.13
43.25
48.55
50.54
49.22
44.86
37.91
28.85
18.24
6.79
-4.62
-15.05
-23.61
-29.72
-33.25
-34.57
-34.50
-34.08
-34.13
-35.01
-36.48
-37.90
-38.62
-38.38
-37.38
-36.19
-35.52
-35.97
-38.00
-41.83
-47.26
-53.38
-58.48
-60.27
-56.61
-46.36
-30.05
-9.83
11.30
30.55
46.20
57.80
65.72
70.41
72.03
70.49
66.07
59.88
53.92
50.47
51.22
56.54
65.28
75.29
84.32
90.84
94.26
94.73
92.60
87.97
80.64
70.49
57.96
44.29
31.41
21.29
15.31
13.71
15.54
19.09
22.54
24.65
25.16
24.81
25.15
27.88
34.35
45.04
59.22
75.00
89.66
100.31
104.62
101.45
91.17
75.48
56.73
37.18
18.30
0.60
-16.18
-32.62
-48.95
-64.68
-78.50
-88.56
-92.99
-90.58
-81.25
-66.18
-47.59
-28.16
-10.35
4.11
14.39
20.40
22.54
21.34
17.44
11.62
4.77
-2.17
-8.43
-13.57
-17.56
-20.60
-22.95
-24.65
-25.58
-25.50
-24.26
-21.98
-19.04
-16.01
-13.47
-11.82
-11.26
-11.85
-13.48
-16.02
-19.23
-22.84
-26.49
-29.88
-32.92
-35.70
-38.58
-42.04
-46.46
-51.92
-58.05
-63.98
-68.41
-69.86
-66.96
-58.90
-45.72
-28.43
-8.87
10.72
28.22
42.06
51.50
56.59
57.95
56.50
53.16
48.70
43.66
38.42
33.31
28.58
24.54
21.48
19.60
18.95
19.46
20.96
23.28
26.24
29.58
32.91
35.72
37.46
37.71
36.35
33.67
30.22
26.68
23.54
21.00
18.82
16.57
13.79
10.19
5.80
0.93
-3.94
-8.40
-12.17
-15.24
-17.77
-20.04
-22.37
-25.04
-28.17
-31.66
-35.23
-38.52
-41.26
-43.40
-45.23
-47.31
-50.25
-54.41
-59.61
-64.97
-68.90
-69.51
-65.06
-54.69
-38.74
-18.88
2.36
22.30
38.82
50.80
58.12
61.35
61.28
58.63
53.98
47.79
40.61
33.08
25.87
19.57
14.58
11.08
9.09
8.59
9.49
11.67
14.94
18.97
23.25
27.18
30.09
31.49
31.10
28.98
25.58
21.56
17.62
14.20
11.33
8.67
5.65
1.81
-2.90
-8.09
-13.11
-17.31
-20.45
-22.72
-24.73
-27.29
-31.05
-36.33
-42.86
-49.75
-55.54
-58.43
-56.77
-49.55
-36.87
-20.09
-1.42
16.66
32.13
43.87
51.71
56.08
57.67
57.01
54.50
50.43
45.21
39.33
33.37
27.81
22.94
18.91
15.75
13.51
12.27
12.14
13.15
15.12
17.69
20.33
22.47
23.70
23.82
22.90
21.14
18.76
15.89
12.60
8.97
5.15
1.42
-1.99
-4.91
-7.36
-9.46
-11.36
-13.15
-14.78
-16.23
-17.50
-18.76
-20.26
-22.27
-24.97
-28.47
-32.77
-37.69
-42.76
-47.04
-49.20
-47.72
-41.47
-30.18
-14.72
2.99
20.57
35.83
47.40
54.87
58.62
59.38
57.81
54.44
49.67
43.99
37.97
32.19
27.03
22.57
18.63
14.96
11.55
8.70
6.91
6.60
7.83
10.24
13.18
15.96
18.08
19.34
19.77
19.50
18.70
17.54
16.16
14.66
13.09
11.42
9.52
7.29
4.74
2.02
-0.58
-2.79
-4.56
-6.06
-7.73
-10.02
-13.24
-17.33
-21.94
-26.50
-30.49
-33.62
-35.94
-37.80
-39.76
-42.35
-45.86
-50.15
-54.54
-57.77
-58.33
-54.87
-46.69
-34.14
-18.57
-2.02
13.43
26.20
35.48
41.17
43.61
43.25
40.53
35.91
29.89
23.17
16.42
10.23
4.88
0.45
-3.13
-5.89
-7.65
-8.13
-7.07
-4.51
-0.78
3.44
7.43
10.63
12.75
13.85
14.14
13.91
13.39
12.76
12.10
11.43
10.67
9.68
8.30
6.43
4.10
1.41
-1.52
-4.61
-7.93
-11.61
-15.86
-20.87
-26.68
-33.12
-39.71
-45.55
-49.40
-49.96
-46.20
-37.86
-25.61
-11.01
3.93
17.29
27.76
34.81
38.62
39.75
38.86
36.53
33.16
29.05
24.44
19.60
14.76
10.19
6.16
2.93
0.69
-0.42
-0.40
0.59
2.35
4.60
7.08
9.44
11.33
12.38
12.26
10.80
8.08
4.41
0.20
-4.17
-8.48
-12.72
-17.01
-21.47
-26.07
-30.77
-35.48
-40.26
-45.30
-50.68
-56.15
-60.89
-63.49
-62.33
-56.21
-44.89
-29.40
-11.80
5.40
20.05
30.86
37.61
40.87
41.51
40.34
37.93
34.60
30.58
26.10
21.41
16.74
12.30
8.30
4.93
2.40
0.79
0.11
0.21
0.89
1.91
3.05
4.11
4.90
5.22
4.90
3.74
1.60
-1.57
-5.69
-10.49
-15.57
-20.53
-25.05
-29.02
-32.55
-35.85
-39.20
-42.77
-46.54
-50.27
-53.31
-54.65
-53.02
-47.33
-37.07
-22.72
-5.75
11.70
27.47
39.92
48.30
52.73
53.86
52.51
49.44
45.16
40.04
34.42
28.60
22.94
17.75
13.27
9.60
6.78
4.77
3.52
3.01
3.24
4.12
5.41
6.68
7.43
7.21
5.75
3.05
-0.65
-4.93
-9.37
-13.58
-17.29
-20.43
-23.12
-25.72
-28.73
-32.66
-37.76
-43.76
-49.79
-54.41
-56.04
-53.38
-45.90
-34.11
-19.41
-3.69
11.13
23.64
33.10
39.37
42.76
43.65
42.40
39.32
34.72
29.02
22.81
16.71
11.29
6.89
3.65
1.53
0.40
0.16
0.78
2.19
4.18
6.39
8.35
9.63
9.93
9.22
7.69
5.52
2.88
-0.18
-3.66
-7.50
-11.56
-15.58
-19.31
-22.61
-25.49
-28.15
-30.98
-34.38
-38.60
-43.49
-48.38
-52.01
-52.81
-49.40
-41.03
-27.98
-11.62
6.00
22.66
36.57
46.73
52.98
55.74
55.75
53.79
50.51
46.45
42.02
37.55
33.31
29.53
26.34
23.79
21.90
20.69
20.18
20.43
21.44
23.07
25.00
26.76
27.88
28.04
27.15
25.41
23.17
20.71
18.20
15.61
12.89
9.99
6.91
3.74
0.55
-2.57
-5.62
-8.64
-11.73
-15.00
-18.46
-22.05
-25.52
-28.59
-31.08
-33.00
-34.59
-36.32
-38.64
-41.88
-46.03
-50.66
-54.85
-57.29
-56.51
-51.30
-41.14
-26.55
-9.01
9.28
26.13
39.83
49.51
55.16
57.31
56.75
54.22
50.33
45.55
40.26
34.78
29.42
24.49
20.25
16.96
14.77
13.77
13.95
15.20
17.36
20.20
23.38
26.48
29.02
30.59
30.96
30.10
28.21
25.62
22.64
19.57
16.60
13.81
11.17
8.59
5.95
3.20
0.32
-2.63
-5.61
-8.62
-11.73
-14.99
-18.42
-21.97
-25.57
-29.16
-32.72
-36.25
-39.67
-42.86
-45.67
-47.99
-49.81
-51.34
-52.88
-54.83
-57.40
-60.38
-63.00
-63.93
-61.55
-54.55
-42.47
-26.05
-7.17
11.67
28.12
40.57
48.47
52.19
52.59
50.61
46.96
42.09
36.33
30.03
23.63
17.63
12.48
8.44
5.65
4.14
3.90
4.91
7.05
10.06
13.50
16.85
19.60
21.38
22.02
21.51
20.01
17.67
14.69
11.29
7.69
4.08
0.62
-2.60
-5.56
-8.27
-10.73
-12.94
-14.94
-16.77
-18.54
-20.31
-22.11
-23.91
-25.65
-27.36
-29.14
-31.15
-33.54
-36.37
-39.55
-42.84
-45.75
-47.56
-47.36
-44.20
-37.36
-26.73
-12.99
2.44
17.73
31.18
41.64
48.68
52.48
53.64
52.77
50.45
47.15
43.27
39.20
35.36
32.10
29.74
28.43
28.18
28.94
30.57
32.92
35.87
39.30
43.08
47.05
51.05
54.90
58.46
61.58
64.11
65.91
66.77
66.52
65.09
62.53
59.04
54.93
50.45
45.77
40.90
35.68
29.77
22.75
14.14
3.59
-8.90
-22.86
-37.26
-50.87
-62.65
-72.20
-79.81
-86.26
-92.20
-97.70
-101.96
-103.61
-101.21
-93.87
-81.67
-65.55
-47.13
-28.18
-10.22
5.77
19.40
30.69
39.88
47.09
52.23
55.07
55.45
53.46
49.47
44.06
37.85
31.41
25.30
20.03
16.02
13.46
12.19
11.70
11.26
10.20
8.18
5.22
1.60
-2.36
-6.57
-11.16
-16.43
-22.60
-29.64
-37.24
-44.91
-52.20
-58.81
-64.78
-70.37
-75.89
-81.56
-87.31
-92.66
-96.77
-98.55
-96.89
-91.03
-80.83
-66.92
-50.67
-33.86
-18.21
-5.03
4.97
11.65
15.22
16.13
14.87
12.00
8.15
3.92
-0.17
-3.79
-6.80
-9.22
-11.16
-12.66
-13.73
-14.31
-14.37
-13.93
-13.08
-12.01
-10.99
-10.41
-10.67
-12.10
-14.87
-18.83
-23.55
-28.35
-32.56
-35.75
-37.93
-39.60
-41.52
-44.37
-48.37
-53.06
-57.35
-59.74
-58.78
-53.51
-43.66
-29.88
-13.44
3.99
20.74
35.46
47.28
55.80
60.99
63.08
62.37
59.26
54.21
47.79
40.70
33.65
27.28
22.02
18.02
15.15
13.10
11.56
10.25
9.10
8.10
7.24
6.38
5.23
3.47
0.88
-2.47
-6.22
-9.82
-12.79
-14.97
-16.55
-18.16
-20.57
-24.47
-30.22
-37.65
-45.97
-53.93
-59.99
-62.72
-61.18
-55.17
-45.40
-33.28
-20.56
-8.90
0.53
7.23
11.27
13.03
13.05
11.79
9.65
6.98
4.14
1.53
-0.51
-1.74
-2.09
-1.54
-0.09
2.29
5.66
9.95
14.93
20.15
24.99
28.84
31.25
32.06
31.47
29.99
28.26
26.85
26.08
25.91
26.00
25.78
24.70
22.41
18.87
14.44
9.94
6.52
5.49
7.99
14.54
24.83
37.67
51.29
63.86
73.98
80.95
84.65
85.31
83.12
78.18
70.58
60.66
49.15
37.12
25.72
15.74
7.41
0.43
-5.76
-11.57
-16.98
-21.59
-24.89
-26.63
-27.10
-27.08
-27.50
-29.05
-31.91
-35.76
-39.87
-43.56
-46.40
-48.46
-50.25
-52.55
-56.09
-61.35
-68.21
-75.87
-82.94
-87.75
-88.74
-84.92
-76.32
-63.94
-49.60
-35.41
-23.25
-14.37
-9.24
-7.68
-9.13
-12.83
-17.96
-23.63
-28.97
-33.21
-35.93
-37.11
-37.19
-36.76
-36.31
-35.97
-35.48
-34.37
-32.20
-28.75
-24.21
-19.00
-13.65
-8.53
-3.74
0.92
5.77
11.09
16.86
22.79
28.33
32.91
35.97
37.15
36.44
34.29
31.64
29.79
30.04
33.24
39.45
47.84
57.03
65.59
72.43
77.00
79.19
79.09
76.90
72.92
67.59
61.55
55.48
49.97
45.34
41.58
38.51
35.83
33.32
30.81
28.24
25.69
23.33
21.41
20.10
19.47
19.41
19.65
19.93
20.01
19.83
19.37
18.65
17.63
16.19
14.16
11.44
8.09
4.37
0.83
-1.85
-2.94
-1.88
1.53
7.02
13.91
21.30
28.26
34.05
38.20
40.51
40.96
39.68
36.97
33.23
28.98
24.84
21.42
19.24
18.61
19.61
21.88
24.84
27.78
30.06
31.39
31.75
31.38
30.53
29.31
27.67
25.56
23.08
20.56
18.47
17.18
16.77
16.95
17.18
16.86
15.63
13.48
10.83
8.39
7.01
7.39
9.89
14.37
20.26
26.62
32.49
37.00
39.65
40.26
38.89
35.80
31.35
26.01
20.33
14.86
10.04
6.12
3.10
0.79
-1.02
-2.46
-3.56
-4.33
-4.79
-5.17
-5.73
-6.79
-8.50
-10.89
-13.78
-16.93
-20.08
-23.06
-25.76
-28.21
-30.53
-32.89
-35.42
-38.01
-40.28
-41.56
-41.12
-38.44
-33.45
-26.63
-18.91
-11.31
-4.71
0.38
3.87
5.91
6.85
7.05
6.82
6.42
6.00
5.55
4.95
4.13
3.13
2.15
1.51
1.44
1.99
2.99
4.12
5.07
5.63
5.72
5.32
4.41
3.04
1.35
-0.39
-1.87
-2.86
-3.33
-3.48
-3.68
-4.31
-5.60
-7.50
-9.56
-11.02
-10.92
-8.37
-2.93
5.18
14.99
24.99
33.58
39.44
41.91
40.94
37.00
30.96
23.89
16.95
11.20
7.35
5.49
4.99
4.70
3.44
0.52
-3.96
-9.14
-13.89
-17.38
-19.50
-20.78
-22.12
-24.19
-27.17
-30.67
-34.01
-36.59
-38.15
-38.81
-39.00
-39.29
-40.18
-41.96
-44.52
-47.23
-48.97
-48.45
-44.57
-36.87
-25.69
-12.09
2.48
16.66
29.38
39.94
47.98
53.42
56.51
57.92
58.56
59.39
61.03
63.59
66.69
69.74
72.34
74.38
76.00
77.33
78.26
78.30
76.85
73.43
68.02
61.06
53.33
45.56
38.17
31.14
24.18
17.00
9.62
2.37
-4.23
-9.70
-13.82
-16.53
-17.82
-17.54
-15.44
-11.32
-5.33
1.94
9.45
16.05
20.74
22.83
22.02
18.29
11.87
3.15
-7.30
-18.83
-30.85
-42.85
-54.47
-65.41
-75.33
-83.84
-90.48
-94.83
-96.65
-95.92
-92.80
-87.61
-80.68
-72.44
-63.36
-54.06
-45.29
-37.77
-32.07
-28.43
-26.63
-26.13
-26.23
-26.41
-26.43
-26.35
-26.41
-26.69
-27.01
-26.84
-25.49
-22.36
-17.17
-10.10
-1.83
6.71
14.55
20.92
25.39
27.88
28.54
27.63
25.41
22.10
17.96
13.26
8.36
3.63
-0.64
-4.37
-7.66
-10.74
-13.79
-16.82
-19.59
-21.76
-23.10
-23.63
-23.68
-23.70
-24.06
-24.90
-26.04
-27.20
-28.10
-28.66
-29.02
-29.42
-30.13
-31.33
-32.97
-34.77
-36.20
-36.60
-35.29
-31.82
-26.09
-18.48
-9.79
-1.00
6.84
12.94
16.79
18.30
17.71
15.52
12.33
8.65
4.88
1.24
-2.13
-5.13
-7.65
-9.61
-10.96
-11.69
-11.76
-11.05
-9.42
-6.73
-3.01
1.48
6.19
10.45
13.61
15.25
15.24
13.78
11.27
8.23
5.17
2.43
0.09
-2.00
-4.16
-6.71
-9.71
-12.87
-15.51
-16.80
-16.07
-13.02
-7.95
-1.66
4.83
10.50
14.65
16.95
17.38
16.10
13.35
9.34
4.31
-1.43
-7.58
-13.78
-19.74
-25.25
-30.24
-34.66
-38.49
-41.68
-44.11
-45.62
-46.11
-45.62
-44.34
-42.63
-40.89
-39.44
-38.44
-37.87
-37.64
-37.59
-37.64
-37.73
-37.86
-37.97
-38.01
-37.89
-37.52
-36.72
-35.24
-32.71
-28.73
-23.01
-15.42
-6.18
4.22
15.06
25.53
34.84
42.45
48.05
51.61
53.30
53.38
52.15
49.89
46.84
43.22
39.30
35.33
31.56
28.17
25.31
23.05
21.46
20.52
20.21
20.44
21.03
21.72
22.20
22.19
21.53
20.23
18.47
16.50
14.50
12.46
10.19
7.41
3.95
-0.03
-4.01
-7.15
-8.53
-7.46
-3.70
2.41
10.06
18.15
25.61
31.59
35.59
37.53
37.51
35.83
32.79
28.63
23.61
18.00
12.12
6.30
0.82
-4.13
-8.45
-12.17
-15.26
-17.68
-19.29
-20.01
-19.84
-18.94
-17.65
-16.41
-15.66
-15.67
-16.42
-17.67
-19.01
-20.07
-20.72
-21.08
-21.45
-22.17
-23.43
-25.26
-27.54
-30.03
-32.34
-33.94
-34.16
-32.28
-27.81
-20.74
-11.61
-1.44
8.58
17.41
24.36
29.16
31.82
32.50
31.36
28.64
24.64
19.75
14.45
9.19
4.31
-0.08
-3.94
-7.34
-10.27
-12.64
-14.33
-15.24
-15.39
-14.95
-14.19
-13.37
-12.75
-12.46
-12.53
-12.90
-13.43
-14.01
-14.60
-15.24
-16.07
-17.24
-18.79
-20.64
-22.56
-24.26
-25.58
-26.57
-27.52
-28.80
-30.60
-32.69
-34.30
-34.31
-31.60
-25.52
-16.17
-4.46
8.19
20.28
30.59
38.47
43.78
46.69
47.47
46.35
43.54
39.32
34.12
28.53
23.11
18.23
13.99
10.29
6.95
3.95
1.43
-0.38
-1.32
-1.45
-0.99
-0.23
0.61
1.43
2.13
2.59
2.59
1.91
0.43
-1.75
-4.39
-7.08
-9.54
-11.63
-13.46
-15.28
-17.43
-20.14
-23.44
-26.95
-30.00
-31.62
-30.82
-26.89
-19.63
-9.50
2.48
14.96
26.58
36.25
43.30
47.49
48.95
48.05
45.34
41.41
36.75
31.76
26.70
21.68
16.82
12.25
8.11
4.53
1.63
-0.54
-1.98
-2.68
-2.66
-1.99
-0.91
0.23
1.00
1.05
0.22
-1.45
-3.70
-6.24
-8.82
-11.38
-13.96
-16.66
-19.56
-22.63
-25.74
-28.68
-31.28
-33.48
-35.43
-37.42
-39.83
-42.94
-46.66
-50.45
-53.28
-53.83
-50.92
-43.87
-32.85
-18.88
-3.63
11.09
23.64
33.03
38.90
41.50
41.40
39.27
35.77
31.45
26.78
22.12
17.71
13.66
9.95
6.55
3.41
0.63
-1.66
-3.25
-3.97
-3.79
-2.81
-1.35
0.20
1.44
2.14
2.22
1.78
1.00
0.00
-1.21
-2.73
-4.57
-6.66
-8.69
-10.39
-11.64
-12.60
-13.75
-15.62
-18.62
-22.69
-27.35
-31.61
-34.28
-34.20
-30.48
-22.86
-11.75
1.72
15.94
29.15
39.88
47.24
50.99
51.45
49.24
45.07
39.57
33.37
27.00
21.00
15.75
11.47
8.14
5.60
3.66
2.19
1.16
0.58
0.44
0.59
0.87
1.09
1.16
1.10
0.97
0.78
0.44
-0.25
-1.48
-3.38
-5.87
-8.73
-11.61
-14.21
-16.32
-17.97
-19.40
-21.01
-23.29
-26.67
-31.30
-36.83
-42.29
-46.18
-46.79
-42.80
-33.82
-20.70
-5.46
9.26
21.05
28.45
31.44
31.22
29.70
28.69
29.27
31.48
34.46
36.93
37.70
36.17
32.46
27.36
21.97
17.34
14.15
12.53
12.14
12.38
12.59
12.35
11.49
10.03
8.09
5.76
3.07
0.04
-3.23
-6.51
-9.47
-11.74
-13.07
-13.45
-13.26
-13.16
-14.03
-16.63
-21.36
-28.07
-36.12
-44.51
-52.18
-58.27
-62.19
-63.63
-62.36
-58.12
-50.62
-39.60
-25.12
-7.69
11.73
31.91
51.66
70.15
87.10
102.78
117.98
133.90
152.00
173.77
200.28
231.32
264.73
296.19
319.96
330.63
325.09
303.81
270.77
231.88
192.71
156.62
124.04
93.20
61.61
27.54
-9.16
-47.21
-84.53
-118.87
-148.30
-171.27
-186.56
-193.38
-191.59
-181.98
-166.46
-147.75
-129.00
-112.93
-101.28
-94.45
-91.72
-91.71
-93.03
-94.63
-95.75
-95.71
-93.52
-88.08
-78.54
-65.00
-48.79
-32.43
-18.90
-10.64
-8.79
-12.90
-21.22
-31.57
-42.14
-52.02
-61.22
-70.26
-79.53
-88.90
-97.64
-104.64
-108.99
-110.31
-108.91
-105.58
-101.12
-96.05
-90.56
-84.67
-78.54
-72.56
-67.30
-63.22
-60.36
-58.28
-56.19
-53.33
-49.40
-44.81
-40.73
-38.71
-40.17
-45.95
-56.06
-69.76
-85.96
-103.57
-121.68
-139.50
-156.13
-170.52
-181.50
-188.01
-189.35
-185.18
-175.49
-160.36
-140.09
-115.26
-87.01
-57.06
-27.48
-0.29
23.09
42.10
56.97
68.51
77.70
85.42
92.29
98.72
104.95
111.12
117.28
123.39
129.26
134.58
138.95
142.04
143.58
143.55
142.12
139.51
135.94
131.45
126.00
119.52
112.10
104.06
95.86
87.90
80.37
73.17
65.95
58.37
50.30
42.00
34.16
27.74
23.74
23.04
26.14
33.05
43.25
55.61
68.57
80.35
89.29
94.26
94.83
91.35
84.79
76.36
67.33
58.77
51.32
45.04
39.19
32.43
23.17
10.30
-6.31
-25.65
-45.99
-65.48
-82.75
-97.00
-107.96
-115.71
-120.71
-123.94
-126.93
-131.30
-138.10
-147.28
-157.59
-167.29
-174.98
-180.18
-183.28
-184.90
-185.25
-184.01
-180.56
-174.56
-166.20
-155.95
-144.08
-130.46
-114.69
-96.70
-77.20
-57.65
-39.88
-25.31
-14.49
-7.00
-1.71
2.86
8.25
15.91
27.02
42.27
61.58
84.02
108.04
131.98
154.63
175.51
194.80
212.92
230.11
246.16
260.43
272.05
280.28
284.68
285.22
282.19
275.98
267.07
256.02
243.55
230.55
218.04
206.81
197.28
189.35
182.46
175.86
168.85
160.99
152.21
142.75
133.06
123.65
114.88
106.89
99.56
92.65
86.08
80.01
74.86
71.05
68.74
67.69
67.38
67.31
67.27
67.42
68.15
69.73
72.13
75.00
77.85
80.28
82.12
83.48
84.64
85.89
87.34
88.84
90.05
90.59
90.35
89.77
89.84
91.80
96.59
104.16
113.19
121.18
125.21
122.81
112.79
95.56
72.77
46.63
19.02
-9.07
-37.58
-67.05
-98.10
-131.02
-165.66
-201.39
-237.08
-271.25
-302.20
-328.42
-349.03
-364.01
-374.14
-380.27
-382.60
-380.09
-370.81
-352.90
-325.89
-291.56
-253.89
-217.96
-188.31
-167.55
-155.83
-151.26
-151.03
-152.55
-154.27
-155.64
-156.64
-157.19
-156.65
-153.90
-147.69
-137.09
-121.96
-103.09
-82.08
-60.96
-41.85
-26.41
-15.65
-9.87
-8.66
-11.14
-16.01
-21.68
-26.36
-28.27
-25.96
-18.72
-6.88
8.14
24.20
39.04
50.99
59.44
64.87
68.57
71.92
75.87
80.61
85.56
89.75
92.26
92.52
90.45
86.39
80.85
74.37
67.39
60.22
53.15
46.34
39.83
33.50
27.09
20.26
12.79
4.75
-3.49
-11.40
-18.49
-24.53
-29.60
-34.05
-38.26
-42.45
-46.64
-50.70
-54.51
-58.09
-61.57
-65.20
-69.33
-74.30
-80.38
-87.55
-95.23
-102.16
-106.49
-106.14
-99.52
-86.11
-66.76
-43.64
-19.57
2.66
20.99
34.41
42.87
47.04
47.82
46.11
42.58
37.80
32.29
26.61
21.30
16.79
13.28
10.77
9.24
8.77
9.47
11.39
14.24
17.38
19.95
21.15
20.65
18.60
15.51
11.95
8.27
4.59
0.94
-2.54
-5.58
-7.81
-9.00
-9.16
-8.61
-7.73
-6.78
-5.71
-4.16
-1.55
2.63
8.64
16.27
24.83
33.19
39.98
43.84
43.79
39.48
31.32
20.42
8.24
-3.82
-14.85
-24.63
-33.56
-42.30
-51.21
-59.88
-66.96
-70.33
-67.78
-57.78
-40.08
-16.08
11.51
39.32
64.10
83.47
96.18
102.09
101.90
96.75
87.92
76.70
64.32
51.85
40.23
30.13
21.92
15.69
11.34
8.69
7.57
7.82
9.24
11.56
14.41
17.36
20.00
22.00
23.15
23.41
22.89
21.87
20.75
19.96
19.80
20.35
21.37
22.46
23.13
23.07
22.18
20.59
18.50
16.08
13.40
10.42
7.18
3.79
0.58
-2.10
-4.04
-5.27
-6.14
-7.21
-8.99
-11.82
-15.67
-20.29
-25.32
-30.54
-36.07
-42.25
-49.43
-57.56
-65.77
-72.33
-74.97
-71.59
-61.09
-43.83
-21.63
2.70
26.22
46.54
62.22
72.74
78.28
79.36
76.69
71.09
63.46
54.76
45.91
37.71
30.71
25.19
21.22
18.75
17.69
17.96
19.41
21.84
24.87
27.95
30.49
31.93
31.88
30.23
27.11
22.90
18.06
13.09
8.40
4.16
0.33
-3.29
-6.93
-10.65
-14.32
-17.62
-20.31
-22.32
-23.94
-25.65
-27.97
-31.15
-35.04
-39.19
-42.92
-45.75
-47.51
-48.43
-49.09
-50.23
-52.57
-56.60
-62.34
-69.20
-75.84
-80.31
-80.48
-74.66
-62.20
-43.89
-21.80
1.31
22.70
40.37
53.31
61.47
65.38
65.76
63.30
58.55
52.02
44.30
36.17
28.49
22.09
17.46
14.67
13.39
13.15
13.63
14.80
16.84
19.90
23.77
27.82
31.16
32.94
32.72
30.58
27.06
22.84
18.53
14.51
10.92
7.76
5.00
2.64
0.71
-0.79
-1.91
-2.82
-3.74
-4.93
-6.53
-8.58
-10.96
-13.49
-16.01
-18.42
-20.82
-23.36
-26.18
-29.33
-32.63
-35.79
-38.48
-40.57
-42.24
-44.01
-46.67
-51.00
-57.46
-65.86
-75.18
-83.57
-88.70
-88.31
-80.94
-66.45
-46.22
-22.84
0.61
21.35
37.60
48.70
55.03
57.51
57.16
54.88
51.35
47.11
42.61
38.22
34.21
30.77
28.04
26.16
25.29
25.52
26.86
29.11
31.94
34.93
37.73
40.03
41.61
42.28
41.91
40.50
38.20
35.38
32.37
29.37
26.41
23.40
20.34
17.33
14.64
12.46
10.76
9.27
7.64
5.58
3.03
0.11
-2.94
-5.92
-8.69
-11.16
-13.33
-15.29
-17.27
-19.63
-22.72
-26.71
-31.50
-36.63
-41.50
-45.50
-48.35
-50.19
-51.65
-53.67
-57.22
-62.76
-69.88
-76.97
-81.53
-80.81
-72.84
-57.29
-35.85
-11.82
10.95
29.26
41.62
48.36
51.17
52.11
52.59
53.00
52.76
50.87
46.55
39.66
30.79
21.20
12.63
7.21
7.04
13.54
26.69
44.55
63.52
79.39
88.80
90.52
85.79
77.52
68.89
61.90
56.70
51.93
45.68
36.61
24.51
10.28
-4.46
-17.84
-28.21
-34.45
-36.18
-33.85
-28.62
-22.07
-15.72
-10.58
-6.97
-4.67
-3.29
-2.58
-2.46
-2.81
-3.31
-3.34
-2.34
-0.18
2.66
5.17
6.36
5.62
2.89
-1.58
-7.59
-15.10
-24.09
-34.06
-43.63
-50.63
-52.79
-48.51
-37.63
-21.60
-2.93
15.60
31.68
43.93
51.85
55.53
55.42
52.23
46.91
40.60
34.39
29.17
25.45
23.50
23.39
25.27
29.26
35.32
43.15
52.19
61.71
71.11
80.09
88.61
96.85
104.96
113.00
120.88
128.44
135.44
141.65
146.88
151.01
154.12
156.36
157.96
159.10
159.74
159.48
157.40
152.13
141.92
125.18
100.93
69.17
31.06
-11.55
-56.77
-103.38
-151.02
-199.76
-249.18
-297.55
-341.83
-378.48
-404.77
-419.63
-423.57
-417.75
-402.82
-378.63
-344.80
-302.10
-253.39
-203.46
-157.55
-119.54
-90.67
-69.57
-53.53
-39.94
-27.44
-15.86
-5.68
2.70
9.42
15.04
20.35
25.95
32.23
39.25
46.93
54.97
62.99
70.50
77.02
82.20
85.78
87.62
87.75
86.27
83.48
79.74
75.44
70.90
66.27
61.58
56.87
52.19
47.67
43.43
39.47
35.65
31.78
27.63
23.16
18.43
13.67
9.12
5.00
1.44
-1.63
-4.45
-7.33
-10.53
-14.16
-18.07
-22.01
-25.67
-28.98
-32.10
-35.40
-39.36
-44.34
-50.41
-57.08
-63.20
-66.99
-66.42
-59.80
-46.51
-27.36
-4.44
19.34
41.16
58.99
71.85
79.81
83.58
84.17
82.58
79.68
76.17
72.53
69.06
65.94
63.29
61.30
60.36
60.97
63.65
68.73
76.23
85.68
96.17
106.64
116.09
123.78
129.40
132.82
133.94
132.40
127.51
118.35
104.16
84.70
60.62
33.50
5.61
-20.65
-43.39
-61.64
-75.49
-85.72
-93.26
-98.66
-101.98
-102.91
-101.22
-97.14
-91.30
-84.55
-77.46
-70.10
-62.00
-52.49
-41.11
-27.87
-13.25
1.96
16.99
31.23
44.35
56.31
67.42
78.32
89.96
103.19
118.24
134.19
148.87
159.19
161.99
154.98
137.30
109.63
73.81
32.32
-12.34
-57.84
-102.28
-144.07
-181.94
-214.84
-241.87
-262.14
-274.84
-279.35
-275.43
-263.51
-244.65
-220.60
-193.52
-165.70
-139.20
-115.59
-95.70
-79.67
-67.01
-56.92
-48.50
-41.01
-34.04
-27.53
-21.73
-17.06
-13.80
-12.01
-11.30
-10.93
-10.02
-7.95
-4.55
-0.38
3.48
5.81
5.63
2.63
-2.73
-9.47
-16.38
-22.49
-27.37
-31.13
-34.45
-38.29
-43.64
-51.10
-60.49
-70.51
-78.76
-82.21
-78.15
-65.13
-43.66
-16.25
13.36
41.21
64.21
80.75
90.59
94.51
93.76
89.55
82.97
74.88
66.07
57.28
49.11
42.01
36.23
31.74
28.41
26.05
24.57
23.99
24.39
25.66
27.47
29.29
30.43
30.45
29.19
26.83
23.75
20.25
16.42
12.08
6.96
0.86
-6.19
-13.83
-21.55
-28.72
-34.57
-38.32
-39.22
-36.78
-31.05
-22.65
-12.64
-1.95
8.93
20.08
31.78
43.95
55.81
66.06
73.45
77.49
78.62
77.88
76.12
73.43
69.13
62.23
52.11
38.93
23.50
6.95
-9.61
-24.92
-37.43
-45.07
-45.67
-37.80
-21.60
0.76
25.60
48.80
67.17
79.18
85.08
86.13
83.67
78.56
71.13
61.58
50.44
38.75
27.80
18.77
12.35
8.72
7.75
9.25
13.08
19.06
26.76
35.43
44.07
51.72
57.70
61.68
63.60
63.56
61.68
58.28
53.91
49.40
45.61
43.16
42.08
41.85
41.60
40.59
38.52
35.55
32.21
29.00
26.20
23.76
21.40
18.75
15.59
11.96
8.13
4.57
1.72
-0.22
-1.53
-3.00
-5.87
-11.51
-20.98
-34.47
-50.91
-67.94
-82.36
-91.02
-91.81
-84.48
-70.75
-53.69
-36.71
-22.34
-11.63
-4.13
1.40
6.14
10.59
14.42
16.90
17.38
15.70
12.25
7.79
3.26
-0.46
-2.52
-2.10
1.63
9.25
20.86
35.75
52.44
68.85
82.84
92.82
98.05
98.74
95.52
89.00
79.26
65.78
47.98
25.84
0.52
-25.53
-49.24
-67.90
-80.11
-86.34
-88.54
-89.25
-90.51
-93.12
-96.64
-100.02
-102.42
-103.73
-104.65
-106.10
-108.72
-112.51
-117.06
-121.85
-126.39
-129.93
-131.00
-127.36
-116.61
-97.37
-70.51
-39.30
-8.58
16.99
34.68
44.37
48.15
48.81
48.47
47.83
46.36
43.06
37.21
28.78
18.28
6.53
-5.42
-16.46
-25.51
-31.71
-34.74
-34.91
-33.07
-30.29
-27.51
-25.35
-24.12
-23.93
-24.75
-26.27
-27.74
-28.01
-25.76
-20.05
-10.64
1.81
16.22
31.52
47.15
62.97
78.61
92.64
102.19
103.49
93.41
71.00
38.40
0.08
-38.72
-73.94
-103.69
-128.06
-148.01
-164.39
-177.60
-187.96
-196.34
-204.09
-212.28
-220.55
-226.56
-226.36
-215.94
-193.03
-158.31
-115.58
-70.62
-29.53
3.06
25.00
36.52
39.41
35.99
28.41
18.55
8.24
-0.61
-6.16
-7.25
-3.78
3.21
11.98
20.85
28.75
35.44
41.30
46.86
52.51
58.35
64.24
69.97
75.18
79.27
81.40
80.57
76.01
67.51
55.74
42.12
28.50
16.62
7.77
2.58
1.04
2.65
6.57
11.70
16.81
20.78
22.79
22.47
19.91
15.34
8.87
0.26
-11.09
-25.80
-43.93
-64.33
-84.22
-99.41
-105.23
-98.09
-76.99
-44.25
-5.10
34.06
67.61
92.28
107.54
114.95
116.84
115.25
111.43
106.10
99.82
93.34
87.48
82.91
79.90
78.28
77.59
77.44
77.58
78.07
79.12
80.88
83.26
85.80
87.82
88.55
87.38
84.13
79.11
73.07
67.01
61.86
58.22
56.10
55.00
54.14
52.76
50.48
47.36
43.86
40.57
37.99
36.37
35.72
35.80
35.96
35.03
31.29
22.70
7.75
-13.83
-40.49
-69.06
-95.72
-117.22
-131.99
-140.49
-144.74
-147.38
-150.76
-156.15
-163.40
-170.74
-174.94
-171.97
-158.26
-132.18
-95.05
-51.18
-6.67
32.53
62.39
81.66
91.38
93.78
90.99
84.47
75.09
63.50
50.60
37.42
24.94
13.78
4.15
-3.95
-10.46
-14.95
-16.69
-14.89
-9.16
0.09
11.49
23.09
32.92
39.63
42.96
43.61
42.81
41.66
40.72
39.89
38.74
36.88
34.27
31.15
27.84
24.50
21.05
17.34
13.42
9.72
6.87
5.29
4.83
4.61
3.30
-0.25
-6.42
-14.58
-23.37
-31.37
-37.77
-42.72
-47.12
-52.02
-58.04
-65.16
-72.97
-80.88
-88.25
-94.06
-96.64
-93.82
-83.63
-65.46
-40.72
-12.75
14.25
36.78
53.10
63.44
69.28
72.25
73.25
72.41
69.44
64.35
57.66
50.30
43.24
37.12
32.24
28.59
26.22
25.31
26.14
28.91
33.50
39.29
45.33
50.51
53.95
55.17
54.29
51.77
48.26
44.30
40.15
35.80
31.16
26.29
21.54
17.48
14.56
12.79
11.53
9.67
6.06
0.12
-7.84
-16.68
-24.88
-31.27
-35.53
-38.30
-40.94
-44.98
-51.62
-61.40
-74.10
-88.60
-102.81
-113.69
-117.79
-112.17
-95.55
-69.08
-36.37
-2.45
27.80
51.04
66.18
74.15
76.88
76.35
73.99
70.54
66.35
61.61
56.47
51.00
45.20
39.08
32.80
26.81
21.71
18.21
16.79
17.52
19.96
23.27
26.45
28.72
29.61
29.13
27.59
25.42
23.03
20.68
18.55
16.69
15.05
13.36
11.25
8.22
3.99
-1.42
-7.60
-13.85
-19.45
-23.96
-27.39
-30.20
-33.06
-36.61
-41.16
-46.55
-52.21
-57.39
-61.54
-64.49
-66.64
-68.87
-72.23
-77.61
-85.55
-95.90
-107.63
-118.66
-126.03
-126.51
-117.63
-98.72
-71.51
-39.85
-8.49
18.40
38.48
51.51
58.86
62.38
63.51
62.94
60.84
57.31
52.74
47.75
42.89
38.43
34.30
30.30
26.35
22.81
20.35
19.71
21.27
24.75
29.20
33.25
35.64
35.66
33.40
29.64
25.45
21.77
19.10
17.38
16.27
15.32
14.15
12.58
10.51
7.91
4.80
1.30
-2.37
-5.95
-9.31
-12.50
-15.92
-20.11
-25.57
-32.42
-40.17
-47.75
-53.85
-57.48
-58.42
-57.36
-55.67
-54.87
-56.19
-60.24
-66.93
-75.39
-83.95
-90.14
-91.09
-84.34
-68.77
-45.37
-17.17
11.68
37.26
57.17
70.86
79.24
83.70
85.29
84.37
80.99
75.27
67.82
59.63
51.72
44.77
39.03
34.52
31.25
29.49
29.63
31.90
36.09
41.42
46.66
50.59
52.33
51.58
48.59
44.04
38.68
33.29
28.44
24.41
21.14
18.27
15.26
11.55
6.91
1.47
-4.26
-9.67
-14.35
-18.29
-21.87
-25.62
-29.93
-34.79
-39.79
-44.37
-48.14
-51.12
-53.85
-57.19
-62.02
-68.95
-78.03
-88.61
-99.24
-107.79
-111.84
-109.23
-98.75
-80.60
-56.46
-29.12
-1.76
22.85
42.84
57.46
66.86
71.78
73.18
72.06
69.33
65.83
62.24
59.11
56.64
54.74
53.11
51.38
49.41
47.39
45.71
44.83
44.90
45.74
46.84
47.70
48.04
47.93
47.71
47.77
48.36
49.49
51.00
52.57
53.97
55.02
55.68
55.95
55.80
55.12
53.79
51.75
49.09
46.13
43.36
41.19
39.92
39.51
39.67
39.88
39.58
38.29
35.73
31.84
26.80
20.89
14.39
7.40
-0.14
-8.41
-17.55
-27.46
-37.67
-47.42
-55.69
-61.36
-63.50
-61.59
-55.74
-46.77
-36.10
-25.38
-16.26
-10.10
-7.92
-10.38
-17.67
-29.40
-44.20
-59.83
-73.36
-81.87
-83.17
-76.40
-62.24
-42.75
-20.79
0.66
19.20
33.50
43.44
49.89
54.23
57.77
61.13
64.06
65.39
63.51
56.95
45.02
28.06
7.31
-15.62
-39.28
-62.76
-85.63
-107.61
-128.24
-146.98
-163.63
-178.76
-193.97
-211.19
-231.75
-255.31
-279.51
-300.46
-313.91
-316.59
-307.30
-287.22
-259.61
-228.96
-199.89
-176.04
-159.31
-149.50
-144.54
-141.18
-136.00
-126.27
-110.62
-89.10
-62.95
-34.16
-4.90
22.80
47.26
67.29
82.22
91.86
96.52
96.94
94.12
89.12
82.88
76.12
69.33
62.92
57.32
53.04
50.66
50.62
53.00
57.38
62.87
68.43
73.13
76.47
78.40
79.22
79.31
79.02
78.52
78.00
77.70
77.97
79.27
81.81
85.54
89.96
94.38
98.20
101.21
103.78
106.71
110.94
117.13
125.41
135.27
145.79
155.83
164.33
170.54
174.28
176.10
177.39
180.07
186.01
196.20
210.03
225.17
238.18
245.61
245.18
236.30
219.90
197.55
170.61
139.88
105.87
69.47
32.37
-3.15
-35.14
-62.89
-87.46
-111.21
-136.69
-165.34
-196.96
-229.86
-261.68
-290.34
-314.46
-333.38
-346.84
-354.76
-357.23
-354.66
-347.64
-336.72
-322.03
-303.05
-278.71
-247.92
-210.02
-165.30
-115.26
-62.61
-11.05
35.10
71.62
95.09
103.59
97.15
77.82
49.43
17.05
-13.90
-38.48
-53.19
-56.52
-49.24
-33.90
-14.22
5.88
22.99
34.82
40.42
40.29
36.13
30.49
26.17
25.52
29.86
39.37
53.21
70.04
88.43
107.18
125.37
142.21
156.80
168.06
174.85
176.21
171.76
161.91
147.79
130.95
112.89
94.67
76.88
59.84
43.90
29.57
17.44
7.78
0.30
-5.91
-12.15
-19.61
-28.99
-40.27
-52.61
-64.41
-73.44
-77.00
-72.44
-57.84
-32.78
1.25
40.97
82.19
120.78
153.72
179.46
197.76
209.20
214.78
215.68
213.26
208.99
204.19
199.49
194.52
187.97
178.26
164.45
146.85
127.10
107.59
90.48
76.94
66.96
59.64
53.94
49.11
44.84
41.06
37.56
33.91
29.52
23.99
17.22
9.46
1.24
-6.86
-14.22
-20.31
-24.74
-27.34
-28.29
-28.23
-28.13
-29.08
-32.16
-38.25
-48.02
-62.00
-80.46
-103.21
-129.32
-156.84
-182.87
-204.11
-217.52
-221.23
-215.03
-200.38
-179.98
-156.91
-133.96
-113.09
-95.34
-81.06
-70.15
-62.31
-57.10
-53.96
-52.25
-51.32
-50.57
-49.65
-48.42
-46.98
-45.44
-43.78
-41.67
-38.53
-33.69
-26.70
-17.58
-6.86
4.46
15.28
24.56
31.50
35.67
36.96
35.63
32.34
28.02
23.66
19.99
17.39
15.90
15.43
16.00
17.82
21.01
25.32
29.92
33.53
34.88
33.34
29.12
23.15
16.58
10.25
4.43
-1.13
-6.90
-13.35
-20.69
-28.92
-37.73
-46.42
-53.83
-58.40
-58.49
-52.95
-41.61
-25.52
-6.78
12.10
28.88
42.11
51.37
56.91
59.39
59.44
57.49
53.84
48.84
42.98
36.89
31.15
26.16
22.10
18.96
16.67
15.25
14.82
15.54
17.40
20.17
23.29
26.02
27.56
27.35
25.14
21.15
15.98
10.37
5.01
0.28
-3.82
-7.58
-11.42
-15.64
-20.24
-24.98
-29.44
-33.25
-36.27
-38.62
-40.63
-42.76
-45.55
-49.47
-54.84
-61.51
-68.69
-74.77
-77.69
-75.44
-66.90
-52.36
-33.54
-13.16
5.93
21.58
32.74
39.43
42.41
42.70
41.22
38.63
35.36
31.72
27.90
24.04
20.25
16.64
13.37
10.62
8.64
7.70
8.00
9.60
12.38
15.97
19.79
23.11
25.23
25.63
24.21
21.32
17.67
14.05
11.11
9.07
7.70
6.49
4.85
2.36
-1.01
-5.01
-9.16
-12.94
-16.04
-18.45
-20.51
-22.79
-25.84
-29.99
-35.18
-40.93
-46.54
-51.28
-54.76
-57.07
-58.77
-60.74
-63.84
-68.63
-75.00
-82.09
-88.29
-91.59
-89.97
-82.09
-67.73
-48.07
-25.40
-2.59
17.73
33.77
44.93
51.52
54.36
54.30
52.01
48.09
43.12
37.80
32.77
28.35
24.56
21.13
17.81
14.70
12.20
10.92
11.27
13.23
16.30
19.69
22.65
24.67
25.58
25.43
24.39
22.65
20.45
18.06
15.81
13.92
12.47
11.28
10.04
8.43
6.35
3.98
1.68
-0.22
-1.63
-2.74
-3.97
-5.78
-8.44
-11.93
-16.02
-20.26
-24.16
-27.35
-29.66
-31.25
-32.71
-34.85
-38.43
-43.78
-50.42
-56.98
-61.47
-61.86
-56.76
-45.90
-30.25
-11.86
6.87
23.72
37.24
46.92
53.00
56.17
57.16
56.49
54.45
51.27
47.20
42.60
37.87
33.31
29.13
25.48
22.62
20.93
20.76
22.31
25.37
29.34
33.35
36.56
38.42
38.73
37.69
35.60
32.80
29.51
25.86
21.96
17.94
13.98
10.25
6.85
3.69
0.49
-3.09
-7.31
-12.16
-17.35
-22.39
-26.82
-30.39
-33.14
-35.39
-37.60
-40.27
-43.84
-48.56
-54.28
-60.29
-65.22
-67.32
-64.92
-57.07
-44.03
-27.28
-9.15
7.94
22.09
32.35
38.67
41.59
41.85
40.12
36.94
32.77
28.05
23.25
18.74
14.80
11.49
8.81
6.70
5.18
4.35
4.34
5.23
7.01
9.51
12.38
15.12
17.13
17.91
17.19
15.04
11.91
8.41
5.12
2.34
0.09
-1.85
-3.73
-5.72
-7.87
-10.16
-12.57
-15.07
-17.61
-20.08
-22.34
-24.39
-26.42
-28.81
-31.89
-35.83
-40.41
-45.14
-49.45
-52.99
-55.75
-58.08
-60.48
-63.42
-67.21
-71.83
-76.90
-81.51
-84.30
-83.59
-77.95
-66.71
-50.42
-30.83
-10.41
8.44
24.15
36.24
45.16
51.72
56.56
59.83
61.36
61.00
58.96
55.81
52.29
48.97
46.06
43.39
40.73
38.04
35.68
34.18
34.05
35.37
37.65
40.02
41.54
41.58
40.02
37.29
34.05
30.91
28.16
25.69
23.21
20.39
17.18
13.79
10.57
7.83
5.60
3.60
1.45
-1.23
-4.53
-8.24
-11.95
-15.24
-17.86
-19.77
-21.13
-22.26
-23.57
-25.50
-28.50
-32.75
-38.05
-43.59
-48.04
-49.80
-47.52
-40.52
-29.12
-14.58
1.29
16.60
29.83
40.06
46.92
50.54
51.24
49.46
45.72
40.62
34.83
29.06
23.91
19.79
16.80
14.84
13.72
13.28
13.43
14.15
15.39
17.03
18.81
20.42
21.59
22.08
21.84
20.89
19.29
17.15
14.54
11.47
8.01
4.26
0.47
-3.07
-6.15
-8.72
-10.94
-13.18
-15.80
-19.04
-22.88
-27.04
-31.13
-34.75
-37.65
-39.86
-41.67
-43.70
-46.59
-50.82
-56.31
-62.23
-67.04
-68.84
-66.02
-57.76
-44.46
-27.58
-9.28
8.20
23.08
34.33
41.66
45.35
45.95
44.16
40.71
36.30
31.59
27.08
23.10
19.72
16.88
14.48
12.47
10.98
10.22
10.43
11.75
14.11
17.20
20.52
23.49
25.56
26.36
25.81
24.06
21.40
18.21
14.81
11.45
8.32
5.56
3.21
1.19
-0.71
-2.77
-5.24
-8.23
-11.62
-15.13
-18.43
-21.26
-23.55
-25.43
-27.16
-29.09
-31.48
-34.43
-37.84
-41.43
-44.83
-47.75
-50.09
-52.03
-54.04
-56.76
-60.80
-66.46
-73.41
-80.60
-86.39
-88.89
-86.57
-78.81
-66.13
-50.11
-32.82
-16.26
-1.83
9.86
18.83
25.37
29.82
32.43
33.43
33.16
32.12
30.88
29.90
29.41
29.37
29.69
30.37
31.62
33.84
37.37
42.29
48.32
54.91
61.49
67.70
73.55
79.29
85.24
91.52
98.00
104.32
110.20
115.63
120.91
126.55
133.05
140.61
149.06
157.83
166.19
173.40
178.97
182.81
185.39
187.80
191.57
198.08
207.65
218.84
228.20
231.16
223.53
203.15
170.65
129.16
82.94
35.78
-10.11
-54.18
-97.00
-139.66
-183.22
-228.60
-276.17
-325.23
-373.60
-417.55
-452.53
-474.35
-480.36
-469.95
-444.61
-407.32
-362.02
-313.07
-264.88
-221.39
-185.48
-158.30
-139.10
-125.54
-114.55
-103.35
-90.13
-74.32
-56.34
-37.14
-17.72
1.32
19.66
37.15
53.52
68.17
80.29
89.07
93.91
94.52
90.71
82.29
69.07
51.27
29.95
7.17
-14.30
-31.86
-44.01
-50.89
-54.10
-55.92
-58.27
-61.90
-66.17
-69.30
-69.04
-63.40
-51.11
-32.05
-7.34
20.92
50.01
77.31
100.86
119.68
133.90
144.41
152.57
159.79
167.28
175.90
185.98
197.25
208.75
218.94
225.86
227.54
222.45
210.03
191.06
167.52
142.11
117.39
95.03
75.46
58.01
41.45
24.76
7.57
-9.79
-26.58
-42.02
-55.68
-67.53
-77.73
-86.47
-93.80
-99.64
-103.91
-106.64
-108.02
-108.44
-108.36
-108.20
-108.36
-109.16
-110.83
-113.39
-116.43
-119.06
-119.88
-117.31
-110.06
-97.57
-80.30
-59.64
-37.59
-16.28
2.52
17.69
28.85
36.18
40.24
41.65
41.00
38.83
35.66
32.00
28.38
25.21
22.74
21.03
20.08
19.82
20.27
21.49
23.47
26.08
29.01
31.84
34.07
35.29
35.18
33.68
30.98
27.53
23.91
20.63
17.99
15.95
14.16
12.18
9.64
6.47
2.84
-0.88
-4.34
-7.29
-9.71
-11.75
-13.68
-15.79
-18.29
-21.24
-24.52
-27.82
-30.83
-33.26
-35.11
-36.61
-38.29
-40.81
-44.71
-50.18
-56.82
-63.52
-68.61
-70.26
-66.94
-58.02
-43.97
-26.37
-7.47
10.40
25.36
36.39
43.32
46.60
46.97
45.16
41.68
36.93
31.19
24.88
18.56
12.90
8.54
5.87
4.98
5.65
7.50
10.14
13.31
16.81
20.42
23.79
26.39
27.70
27.41
25.56
22.64
19.35
16.33
13.84
11.66
9.25
6.01
1.63
-3.76
-9.62
-15.28
-20.17
-24.07
-27.09
-29.61
-32.11
-35.05
-38.77
-43.48
-49.07
-55.08
-60.48
-63.81
-63.41
-57.99
-47.14
-31.64
-13.33
5.35
22.12
35.43
44.74
50.38
53.19
54.01
53.48
51.92
49.43
46.19
42.48
38.77
35.57
33.28
32.05
31.85
32.45
33.66
35.35
37.46
39.92
42.52
44.92
46.59
47.06
46.02
43.40
39.44
34.62
29.47
24.53
20.16
16.43
13.19
10.09
6.82
3.19
-0.69
-4.51
-7.95
-10.78
-13.07
-15.14
-17.45
-20.50
-24.66
-30.06
-36.47
-43.20
-49.12
-52.80
-52.82
-48.25
-39.07
-26.25
-11.65
2.59
14.62
23.36
28.60
30.76
30.52
28.54
25.38
21.50
17.43
13.71
10.77
8.77
7.52
6.66
5.82
4.96
4.34
4.44
5.68
8.18
11.63
15.38
18.67
20.76
21.27
20.18
17.75
14.50
10.90
7.29
3.70
0.01
-4.02
-8.51
-13.30
-18.05
-22.35
-25.94
-28.89
-31.63
-34.77
-38.92
-44.39
-51.00
-58.00
-64.11
-67.70
-67.21
-61.61
-50.84
-35.90
-18.65
-1.34
14.07
26.28
34.84
39.95
42.17
42.13
40.44
37.64
34.21
30.54
26.89
23.32
19.80
16.29
12.90
9.91
7.73
6.70
6.96
8.32
10.33
12.40
13.99
14.80
14.78
14.18
13.30
12.45
11.83
11.49
11.34
11.23
10.96
10.33
9.20
7.50
5.30
2.82
0.40
-1.62
-3.05
-3.92
-4.51
-5.31
-6.78
-9.20
-12.55
-16.44
-20.32
-23.65
-26.15
-27.93
-29.38
-31.12
-33.67
-37.30
-41.91
-46.96
-51.44
-54.00
-53.13
-47.60
-36.90
-21.57
-3.24
15.73
32.91
46.46
55.57
60.37
61.65
60.37
57.36
53.18
48.29
43.09
38.00
33.42
29.63
26.70
24.60
23.23
22.48
22.33
22.77
23.74
25.14
26.68
28.01
28.72
28.51
27.25
25.08
22.33
19.43
16.73
14.40
12.41
10.55
8.57
6.30
3.70
0.90
-1.92
-4.53
-6.79
-8.70
-10.41
-12.15
-14.18
-16.67
-19.62
-22.83
-25.96
-28.59
-30.47
-31.61
-32.35
-33.26
-35.02
-38.11
-42.58
-47.93
-53.14
-56.73
-57.14
-53.13
-44.21
-30.94
-14.84
1.91
17.10
29.03
37.00
41.15
42.33
41.49
39.44
36.61
33.22
29.42
25.40
21.42
17.80
14.74
12.40
10.89
10.28
10.64
12.00
14.29
17.23
20.44
23.41
25.61
26.68
26.43
24.98
22.62
19.77
16.81
13.99
11.41
9.04
6.80
4.60
2.38
0.10
-2.28
-4.77
-7.27
-9.69
-11.87
-13.70
-15.23
-16.61
-18.08
-19.87
-22.05
-24.55
-27.15
-29.59
-31.64
-33.27
-34.55
-35.76
-37.28
-39.51
-42.76
-47.03
-51.88
-56.32
-58.97
-58.35
-53.40
-43.91
-30.67
-15.31
0.13
13.82
24.50
31.62
35.31
36.03
34.41
31.13
26.80
22.08
17.44
13.25
9.63
6.53
3.85
1.56
-0.21
-1.20
-1.13
0.13
2.51
5.69
9.18
12.43
14.93
16.33
16.50
15.47
13.51
10.99
8.29
5.80
3.71
2.09
0.79
-0.46
-1.96
-3.90
-6.28
-8.85
-11.24
-13.08
-14.20
-14.72
-15.03
-15.58
-16.71
-18.52
-20.81
-23.22
-25.37
-27.04
-28.25
-29.21
-30.27
-31.83
-34.18
-37.41
-41.27
-45.11
-47.87
-48.24
-45.01
-37.46
-25.73
-10.87
5.32
20.84
33.94
43.59
49.57
52.24
52.32
50.53
47.42
43.41
38.79
33.86
28.94
24.34
20.36
17.17
14.90
13.55
13.11
13.54
14.75
16.55
18.66
20.71
22.33
23.24
23.26
22.43
20.86
18.74
16.26
13.58
10.78
7.93
5.07
2.28
-0.37
-2.78
-4.88
-6.73
-8.50
-10.47
-12.89
-15.83
-19.15
-22.49
-25.42
-27.68
-29.31
-30.63
-32.23
-34.69
-38.33
-42.96
-47.83
-51.69
-53.08
-50.75
-44.09
-33.41
-19.90
-5.33
8.45
20.02
28.61
34.16
37.00
37.62
36.49
33.98
30.48
26.38
22.15
18.17
14.70
11.85
9.61
7.96
6.97
6.73
7.34
8.85
11.11
13.86
16.74
19.32
21.25
22.29
22.35
21.46
19.83
17.70
15.35
13.05
10.97
9.16
7.49
5.78
3.82
1.57
-0.90
-3.40
-5.71
-7.75
-9.60
-11.45
-13.53
-15.97
-18.75
-21.77
-24.84
-27.82
-30.60
-33.10
-35.23
-37.03
-38.60
-40.26
-42.45
-45.50
-49.42
-53.63
-56.94
-57.82
-54.89
-47.45
-35.79
-21.26
-5.79
8.61
20.32
28.52
33.11
34.59
33.74
31.37
28.13
24.47
20.61
16.66
12.71
8.91
5.44
2.56
0.44
-0.77
-0.96
-0.11
1.81
4.66
8.16
11.78
14.88
16.90
17.53
16.80
15.05
12.74
10.25
7.80
5.45
3.22
1.14
-0.73
-2.36
-3.81
-5.18
-6.58
-8.02
-9.39
-10.53
-11.35
-11.95
-12.54
-13.42
-14.83
-16.86
-19.38
-22.10
-24.67
-26.78
-28.31
-29.34
-30.22
-31.44
-33.46
-36.56
-40.64
-45.06
-48.78
-50.42
-48.66
-42.61
-32.17
-18.19
-2.30
13.50
27.35
38.03
45.10
48.80
49.77
48.73
46.28
42.83
38.73
34.30
29.89
25.83
22.40
19.77
18.07
17.37
17.73
19.17
21.59
24.72
28.16
31.37
33.84
35.18
35.19
33.90
31.54
28.43
24.93
21.39
18.01
14.87
11.87
8.85
5.65
2.29
-1.03
-4.02
-6.43
-8.21
-9.61
-11.08
-13.05
-15.75
-19.07
-22.62
-25.89
-28.54
-30.52
-32.17
-34.02
-36.68
-40.51
-45.46
-50.93
-55.78
-58.53
-57.69
-52.25
-42.03
-27.87
-11.40
5.36
20.50
32.64
41.12
45.93
47.48
46.43
43.45
39.22
34.33
29.31
24.55
20.35
16.84
14.07
12.04
10.71
10.12
10.38
11.57
13.70
16.61
19.87
22.98
25.40
26.73
26.78
25.58
23.29
20.23
16.80
13.42
10.43
8.01
6.10
4.41
2.61
0.48
-1.97
-4.50
-6.83
-8.73
-10.21
-11.49
-12.88
-14.68
-17.07
-20.00
-23.26
-26.55
-29.55
-32.12
-34.24
-36.09
-37.96
-40.17
-43.01
-46.64
-50.99
-55.64
-59.64
-61.70
-60.44
-54.81
-44.63
-30.71
-14.70
1.39
15.76
27.23
35.30
40.07
41.91
41.28
38.66
34.56
29.51
24.07
18.76
13.94
9.83
6.48
3.88
2.06
1.09
1.12
2.27
4.52
7.59
10.99
14.04
16.14
16.93
16.42
14.89
12.85
10.78
8.95
7.47
6.22
5.03
3.78
2.39
0.86
-0.76
-2.47
-4.23
-6.01
-7.73
-9.29
-10.63
-11.81
-13.02
-14.55
-16.65
-19.36
-22.50
-25.64
-28.32
-30.25
-31.45
-32.31
-33.41
-35.38
-38.61
-43.07
-48.21
-52.91
-55.68
-54.99
-49.73
-39.68
-25.61
-9.17
7.56
22.72
35.04
43.98
49.61
52.31
52.54
50.82
47.65
43.62
39.31
35.20
31.56
28.48
25.92
23.88
22.49
21.98
22.62
24.51
27.52
31.22
35.01
38.24
40.38
41.18
40.62
38.93
36.43
33.43
30.14
26.67
23.05
19.30
15.52
11.81
8.30
5.08
2.13
-0.67
-3.47
-6.47
-9.76
-13.33
-17.05
-20.69
-24.02
-26.91
-29.39
-31.68
-34.17
-37.27
-41.24
-45.99
-50.95
-55.02
-56.87
-55.17
-49.10
-38.69
-24.88
-9.34
5.94
19.24
29.43
36.19
39.80
40.88
40.07
37.86
34.57
30.54
26.14
21.85
18.11
15.22
13.30
12.28
12.04
12.51
13.67
15.52
17.92
20.58
23.08
24.94
25.84
25.70
24.59
22.77
20.52
18.14
15.80
13.63
11.59
9.62
7.64
5.57
3.44
1.28
-0.91
-3.12
-5.38
-7.64
-9.77
-11.62
-13.12
-14.42
-15.83
-17.71
-20.28
-23.43
-26.78
-29.84
-32.24
-33.92
-35.18
-36.54
-38.64
-41.92
-46.47
-51.89
-57.22
-61.09
-62.03
-58.84
-51.11
-39.31
-24.78
-9.34
5.20
17.46
26.69
32.73
35.79
36.33
34.81
31.74
27.62
22.99
18.37
14.16
10.62
7.85
5.87
4.62
4.10
4.35
5.41
7.27
9.76
12.53
15.09
16.94
17.74
17.44
16.28
14.65
12.93
11.35
9.95
8.59
7.17
5.67
4.17
2.80
1.68
0.75
-0.09
-1.07
-2.31
-3.87
-5.66
-7.51
-9.23
-10.73
-12.01
-13.22
-14.54
-16.13
-18.08
-20.32
-22.68
-24.95
-26.94
-28.57
-29.87
-31.05
-32.42
-34.38
-37.23
-41.07
-45.55
-49.83
-52.67
-52.65
-48.62
-40.14
-27.66
-12.53
3.40
18.23
30.52
39.52
45.14
47.74
47.89
46.17
43.10
39.16
34.87
30.69
27.01
24.08
21.99
20.74
20.34
20.82
22.19
24.41
27.26
30.37
33.26
35.48
36.70
36.78
35.73
33.78
31.18
28.24
25.19
22.22
19.41
16.75
14.14
11.48
8.65
5.61
2.41
-0.77
-3.73
-6.33
-8.62
-10.85
-13.39
-16.51
-20.22
-24.24
-28.07
-31.27
-33.64
-35.29
-36.63
-38.16
-40.36
-43.53
-47.64
-52.25
-56.46
-58.97
-58.43
-53.82
-44.89
-32.35
-17.72
-2.90
10.44
21.21
29.02
33.99
36.47
36.85
35.48
32.77
29.21
25.37
21.76
18.67
16.16
14.15
12.56
11.45
11.03
11.57
13.22
15.81
18.89
21.79
23.90
24.84
24.57
23.33
21.48
19.32
17.07
14.78
12.51
10.31
8.27
6.42
4.73
3.09
1.40
-0.43
-2.41
-4.44
-6.43
-8.27
-9.92
-11.39
-12.77
-14.22
-15.98
-18.21
-20.97
-24.14
-27.41
-30.42
-32.89
-34.74
-36.13
-37.44
-39.13
-41.63
-45.20
-49.77
-54.81
-59.33
-61.99
-61.40
-56.59
-47.35
-34.43
-19.36
-4.05
9.74
20.78
28.57
33.10
34.74
34.02
31.48
27.74
23.39
18.97
14.85
11.22
8.16
5.71
3.97
3.13
3.35
4.70
7.04
10.09
13.42
16.64
19.42
21.49
22.65
22.85
22.10
20.62
18.70
16.62
14.63
12.81
11.18
9.70
8.36
7.13
5.95
4.69
3.13
1.14
-1.34
-4.13
-6.90
-9.33
-11.27
-12.84
-14.41
-16.38
-18.90
-21.84
-24.75
-27.06
-28.46
-28.98
-29.09
-29.45
-30.72
-33.27
-37.06
-41.59
-45.93
-48.79
-48.82
-44.89
-36.49
-23.97
-8.63
7.64
22.87
35.48
44.68
50.42
53.19
53.63
52.28
49.51
45.62
40.95
35.93
31.06
26.79
23.43
21.09
19.81
19.58
20.40
22.26
24.99
28.23
31.42
33.95
35.30
35.19
33.66
30.97
27.53
23.79
20.11
16.67
13.50
10.48
7.44
4.28
0.99
-2.26
-5.23
-7.76
-9.81
-11.57
-13.34
-15.48
-18.18
-21.41
-24.93
-28.37
-31.39
-33.81
-35.71
-37.44
-39.49
-42.32
-46.21
-50.96
-55.83
-59.59
-60.73
-57.94
-50.54
-38.81
-24.04
-8.13
6.91
19.60
29.25
35.86
39.81
41.48
41.10
38.82
34.95
30.03
24.89
20.32
16.84
14.50
12.97
11.80
10.69
9.66
9.11
9.52
11.24
14.22
17.82
21.01
22.68
22.06
19.22
15.03
10.95
8.40
8.06
9.57
11.73
13.04
12.58
10.45
7.76
6.15
6.98
10.69
16.70
23.66
30.00
34.58
36.97
37.49
37.32
38.60
44.46
58.40
82.93
117.77
158.75
198.38
228.05
241.06
235.12
212.71
179.42
141.09
101.33
60.73
17.77
-29.04
-79.08
-128.93
-173.18
-206.34
-224.88
-228.30
-218.91
-200.57
-176.85
-149.89
-120.56
-89.46
-58.17
-29.66
-7.48
5.84
10.19
8.18
4.09
2.08
4.59
11.66
21.45
31.32
39.18
44.18
46.60
47.20
46.41
43.97
39.10
31.06
19.77
6.09
-8.51
-22.46
-34.68
-44.81
-53.06
-59.89
-65.61
-70.20
-73.40
-74.91
-74.74
-73.30
-71.29
-69.50
-68.41
-68.11
-68.27
-68.37
-68.06
-67.26
-66.19
-65.22
-64.65
-64.68
-65.43
-66.95
-69.19
-71.76
-73.79
-73.89
-70.46
-62.26
-49.00
-31.59
-12.01
7.26
23.99
36.79
45.27
49.84
51.30
50.40
47.67
43.49
38.26
32.54
26.99
22.15
18.26
15.26
12.89
10.94
9.48
8.77
9.13
10.63
12.92
15.30
16.96
17.34
16.31
14.17
11.50
8.75
6.17
3.68
1.04
-2.03
-5.63
-9.71
-14.06
-18.41
-22.50
-26.16
-29.41
-32.51
-35.92
-40.22
-45.81
-52.50
-59.35
-64.61
-66.16
-62.18
-51.83
-35.73
-15.82
5.20
24.66
40.74
52.76
61.04
66.45
69.82
71.66
72.13
71.22
68.98
65.60
61.36
56.54
51.27
45.65
39.83
34.12
29.06
25.25
23.09
22.69
23.67
25.34
26.79
27.22
26.08
23.26
19.02
14.04
9.21
5.42
3.32
3.07
4.27
6.04
7.41
7.66
6.66
4.78
2.72
0.96
-0.42
-1.87
-4.11
-7.83
-13.37
-20.74
-29.57
-39.31
-49.16
-58.03
-64.54
-67.21
-64.87
-57.14
-44.73
-29.36
-13.28
1.35
13.03
21.12
25.76
27.47
26.92
24.65
21.08
16.59
11.58
6.48
1.73
-2.33
-5.47
-7.63
-8.86
-9.27
-8.93
-7.84
-5.95
-3.34
-0.27
2.72
4.95
5.85
5.16
3.10
0.27
-2.63
-5.08
-6.93
-8.45
-10.10
-12.25
-15.02
-18.16
-21.19
-23.68
-25.37
-26.41
-27.28
-28.61
-30.94
-34.56
-39.34
-44.73
-49.77
-53.16
-53.44
-49.39
-40.37
-26.72
-9.78
8.34
25.37
39.42
49.51
55.54
58.08
57.97
55.98
52.63
48.29
43.24
37.79
32.28
27.03
22.30
18.31
15.25
13.31
12.66
13.31
15.03
17.31
19.49
20.85
20.90
19.47
16.73
13.10
9.13
5.33
2.04
-0.67
-2.95
-5.20
-7.82
-11.12
-15.15
-19.65
-24.11
-27.98
-30.98
-33.22
-35.22
-37.80
-41.71
-47.36
-54.53
-62.26
-68.91
-72.51
-71.27
-64.15
-51.28
-34.03
-14.62
4.44
21.05
33.96
42.87
48.19
50.63
50.92
49.63
47.13
43.75
39.79
35.58
31.45
27.71
24.57
22.14
20.43
19.34
18.80
18.73
19.11
19.91
20.97
21.96
22.40
21.79
19.78
16.27
11.51
5.98
0.26
-5.14
-9.91
-14.05
-17.74
-21.40
-25.49
-30.45
-36.55
-43.67
-51.14
-57.72
-61.79
-61.76
-56.59
-46.22
-31.65
-14.69
2.55
18.18
30.93
40.26
46.22
49.23
49.83
48.56
45.97
42.50
38.57
34.51
30.53
26.76
23.27
20.15
17.57
15.69
14.71
14.71
15.63
17.20
18.97
20.46
21.20
20.86
19.35
16.82
13.60
10.09
6.62
3.29
-0.07
-3.78
-8.18
-13.41
-19.29
-25.33
-30.92
-35.58
-39.15
-41.94
-44.59
-47.92
-52.54
-58.54
-65.22
-71.21
-74.67
-73.84
-67.63
-56.00
-40.11
-21.89
-3.58
12.93
26.42
36.46
43.20
47.09
48.62
48.27
46.50
43.77
40.59
37.42
34.66
32.55
31.20
30.62
30.81
31.77
33.49
35.94
39.03
42.60
46.44
50.21
53.49
55.76
56.45
55.11
51.59
46.10
39.23
31.89
25.03
19.48
15.76
13.92
13.62
14.16
14.67
14.37
12.72
9.59
5.31
0.57
-3.75
-6.89
-8.56
-9.01
-9.05
-9.65
-11.58
-15.07
-19.83
-25.19
-30.48
-35.22
-39.28
-42.78
-45.97
-49.24
-52.90
-57.18
-61.89
-66.24
-68.84
-67.97
-62.24
-51.16
-35.46
-17.00
1.82
18.79
32.36
41.89
47.43
49.43
48.46
45.10
40.03
34.00
27.82
22.15
17.42
13.70
10.93
8.99
7.88
7.75
8.72
10.77
13.67
17.01
20.31
23.16
25.20
26.23
26.13
24.91
22.67
19.56
15.79
11.54
7.04
2.53
-1.75
-5.56
-8.83
-11.63
-14.22
-16.94
-20.09
-23.79
-27.92
-32.18
-36.15
-39.48
-41.96
-43.61
-44.78
-46.00
-47.88
-50.85
-54.85
-59.15
-62.32
-62.59
-58.33
-48.71
-34.08
-16.06
2.94
20.37
34.26
43.62
48.49
49.64
48.16
45.04
41.07
36.83
32.71
29.01
25.87
23.26
21.03
18.95
16.93
15.08
13.66
13.00
13.23
14.23
15.56
16.59
16.74
15.54
12.79
8.59
3.34
-2.36
-7.76
-12.17
-15.28
-17.23
-18.70
-20.58
-23.68
-28.30
-34.18
-40.67
-47.07
-53.01
-58.57
-64.13
-70.06
-76.45
-82.98
-89.03
-93.79
-96.35
-95.77
-91.10
-81.59
-67.01
-47.99
-26.17
-3.83
16.62
33.34
45.53
53.38
57.81
59.89
60.50
60.10
58.78
56.45
53.10
48.93
44.43
40.35
37.52
36.66
38.15
41.92
47.46
53.98
60.60
66.53
71.14
73.98
74.78
73.47
70.25
65.52
59.85
53.83
47.94
42.50
37.64
33.33
29.45
25.76
21.93
17.63
12.65
7.11
1.49
-3.42
-6.74
-7.95
-7.06
-4.77
-2.23
-0.61
-0.72
-2.51
-5.01
-6.42
-4.53
2.59
16.00
35.49
59.52
85.65
111.34
134.68
154.91
172.48
188.51
204.09
219.49
233.70
244.57
249.35
245.63
232.22
209.73
180.66
148.71
117.83
91.05
69.69
53.36
40.55
29.50
19.13
9.28
0.52
-6.43
-11.17
-13.78
-14.59
-13.74
-10.91
-5.47
3.03
14.20
26.35
36.60
41.59
38.62
26.73
7.27
-16.53
-40.73
-62.20
-79.68
-93.86
-106.57
-119.59
-133.73
-148.84
-164.05
-178.18
-189.75
-196.65
-196.24
-185.99
-164.78
-134.04
-97.94
-62.26
-32.48
-12.00
-1.54
0.19
-4.86
-15.31
-30.54
-50.21
-73.40
-98.22
-122.07
-142.45
-157.65
-167.08
-171.06
-170.33
-165.67
-157.78
-147.40
-135.55
-123.47
-112.42
-103.33
-96.54
-91.83
-88.62
-86.36
-84.74
-83.79
-83.71
-84.67
-86.62
-89.23
-92.01
-94.50
-96.49
-98.04
-99.51
-101.35
-103.86
-107.01
-110.30
-112.99
-114.33
-113.89
-111.84
-108.97
-106.53
-105.87
-107.98
-112.99
-119.76
-125.83
-127.88
-122.60
-107.79
-83.31
-51.28
-15.59
19.33
49.75
73.50
90.12
100.36
105.44
106.53
104.56
100.29
94.58
88.29
82.20
76.75
72.00
67.75
63.87
60.46
57.88
56.68
57.19
59.41
62.85
66.67
69.86
71.51
70.99
68.05
62.89
56.06
48.35
40.57
33.33
26.85
20.93
15.08
8.75
1.65
-6.21
-14.40
-22.28
-29.29
-35.10
-39.78
-43.80
-47.93
-53.09
-60.04
-69.04
-79.49
-89.69
-97.06
-98.76
-92.61
-77.92
-55.90
-29.37
-1.94
23.05
43.28
57.74
66.56
70.44
70.32
67.08
61.54
54.52
46.84
39.22
32.20
26.08
21.03
17.17
14.72
13.98
15.22
18.53
23.71
30.14
36.90
43.00
47.60
50.21
50.78
49.68
47.49
44.79
42.00
39.34
36.75
34.11
31.30
28.30
25.17
22.06
19.05
16.14
13.24
10.21
6.98
3.55
0.05
-3.39
-6.69
-9.89
-13.13
-16.57
-20.34
-24.41
-28.62
-32.75
-36.58
-39.96
-42.86
-45.45
-48.07
-51.22
-55.47
-61.26
-68.56
-76.58
-83.72
-87.72
-86.29
-77.84
-62.06
-40.21
-14.83
10.96
34.19
52.73
65.61
72.83
75.12
73.54
69.14
62.85
55.43
47.51
39.56
31.97
25.05
19.08
14.33
11.15
9.80
10.47
13.08
17.22
22.22
27.27
31.62
34.73
36.37
36.53
35.42
33.28
30.42
27.18
23.89
20.88
18.33
16.21
14.32
12.37
10.09
7.37
4.31
1.12
-1.95
-4.71
-7.04
-8.95
-10.54
-12.09
-13.95
-16.46
-19.78
-23.78
-28.05
-32.06
-35.41
-38.07
-40.41
-43.07
-46.75
-51.91
-58.56
-66.04
-72.94
-77.21
-76.60
-69.27
-54.55
-33.30
-7.83
18.64
42.90
62.51
76.23
84.06
86.82
85.70
81.90
76.40
69.89
62.88
55.70
48.68
42.14
36.41
31.81
28.64
27.12
27.36
29.22
32.34
36.11
39.84
42.95
45.07
46.03
45.80
44.35
41.65
37.76
32.95
27.73
22.66
18.15
14.23
10.52
6.46
1.56
-4.21
-10.50
-16.67
-22.17
-26.72
-30.46
-33.81
-37.27
-41.30
-46.25
-52.23
-59.06
-66.03
-71.81
-74.57
-72.38
-63.94
-49.14
-29.30
-6.87
15.26
34.60
49.57
59.71
65.35
67.23
66.18
62.91
58.10
52.31
46.14
40.10
34.57
29.74
25.65
22.31
19.80
18.32
18.14
19.46
22.22
25.99
30.07
33.63
35.96
36.64
35.61
33.17
29.75
25.85
21.83
17.87
13.96
9.99
5.91
1.80
-2.10
-5.50
-8.28
-10.60
-12.84
-15.50
-18.91
-23.05
-27.60
-32.03
-35.87
-38.87
-41.14
-43.05
-45.20
-48.21
-52.58
-58.43
-65.24
-71.77
-76.11
-76.14
-70.22
-57.74
-39.59
-17.87
4.60
25.11
41.70
53.41
60.26
62.83
61.94
58.46
53.19
46.89
40.21
33.66
27.59
22.14
17.38
13.39
10.32
8.42
7.92
8.94
11.35
14.77
18.65
22.40
25.46
27.44
28.11
27.38
25.36
22.34
18.79
15.24
12.15
9.73
7.84
6.08
3.96
1.21
-2.13
-5.71
-9.10
-11.98
-14.30
-16.33
-18.40
-20.81
-23.62
-26.73
-29.92
-32.98
-35.76
-38.21
-40.36
-42.36
-44.50
-47.25
-51.11
-56.34
-62.64
-68.88
-73.16
-73.28
-67.45
-55.05
-36.95
-15.41
6.62
26.39
42.02
52.81
58.99
61.31
60.57
57.45
52.54
46.45
39.87
33.50
27.89
23.33
19.87
17.46
16.11
15.94
17.12
19.68
23.35
27.56
31.62
34.87
36.92
37.68
37.29
36.02
34.06
31.55
28.51
24.95
20.93
16.60
12.15
7.78
3.56
-0.57
-4.75
-9.15
-13.85
-18.76
-23.68
-28.37
-32.70
-36.70
-40.60
-44.78
-49.69
-55.69
-62.85
-70.72
-78.21
-83.63
-85.12
-81.23
-71.49
-56.72
-38.84
-20.29
-3.40
10.25
20.04
26.17
29.35
30.42
30.12
28.99
27.36
25.42
23.31
21.14
19.06
17.26
15.93
15.29
15.57
16.92
19.41
22.88
26.96
31.06
34.53
36.80
37.59
36.92
35.08
32.41
29.21
25.69
22.00
18.35
14.97
12.05
9.58
7.35
5.03
2.31
-0.85
-4.18
-7.22
-9.54
-10.95
-11.62
-12.04
-12.75
-14.16
-16.39
-19.17
-21.99
-24.31
-25.82
-26.61
-27.18
-28.34
-30.90
-35.36
-41.57
-48.67
-55.05
-58.71
-57.79
-51.11
-38.61
-21.50
-1.99
17.33
34.15
46.99
55.32
59.46
60.08
57.97
53.75
47.94
41.05
33.65
26.31
19.55
13.74
9.11
5.75
3.74
3.12
3.90
5.99
9.09
12.76
16.46
19.62
21.77
22.65
22.22
20.66
18.32
15.57
12.71
9.95
7.38
5.01
2.83
0.83
-0.98
-2.67
-4.28
-5.89
-7.52
-9.17
-10.78
-12.33
-13.86
-15.44
-17.14
-18.93
-20.61
-21.92
-22.68
-22.91
-22.94
-23.30
-24.54
-26.99
-30.67
-35.21
-39.88
-43.59
-44.92
-42.38
-34.80
-21.88
-4.51
15.25
34.65
51.08
62.80
69.24
70.90
68.87
64.24
57.82
50.12
41.50
32.47
23.69
15.89
9.64
5.24
2.64
1.58
1.80
3.18
5.70
9.35
13.92
18.84
23.40
26.86
28.78
29.12
28.17
26.36
24.03
21.39
18.46
15.24
11.74
8.12
4.57
1.25
-1.81
-4.74
-7.81
-11.26
-15.22
-19.62
-24.18
-28.50
-32.28
-35.38
-37.94
-40.42
-43.44
-47.62
-53.34
-60.39
-67.82
-73.96
-76.76
-74.42
-65.98
-51.73
-33.23
-12.91
6.62
23.17
35.44
43.13
46.66
46.92
44.85
41.27
36.77
31.73
26.49
21.41
16.81
13.04
10.33
8.79
8.42
9.09
10.65
12.89
15.56
18.38
21.01
23.12
24.39
24.61
23.72
21.82
19.18
16.17
13.14
10.36
7.98
6.02
4.29
2.51
0.36
-2.41
-5.80
-9.55
-13.18
-16.20
-18.37
-19.86
-21.20
-23.00
-25.76
-29.52
-33.85
-38.09
-41.64
-44.21
-45.96
-47.39
-49.19
-52.01
-56.29
-62.07
-68.83
-75.40
-80.03
-80.72
-75.82
-64.66
-47.91
-27.56
-6.34
13.03
28.55
39.28
45.27
47.20
45.95
42.38
37.22
31.11
24.63
18.31
12.50
7.49
3.40
0.33
-1.61
-2.31
-1.71
0.17
3.16
6.92
10.99
14.83
17.92
19.88
20.49
19.79
18.04
15.64
13.04
10.61
8.59
7.04
5.82
4.64
3.24
1.39
-0.93
-3.54
-6.14
-8.41
-10.19
-11.57
-12.83
-14.38
-16.57
-19.52
-23.10
-26.94
-30.60
-33.76
-36.36
-38.63
-41.03
-44.13
-48.34
-53.71
-59.78
-65.56
-69.57
-70.19
-66.05
-56.55
-42.12
-24.29
-5.35
12.29
26.70
36.88
42.80
45.11
44.74
42.55
39.10
34.73
29.65
24.07
18.26
12.55
7.37
3.19
0.52
-0.23
1.12
4.45
9.27
14.89
20.52
25.53
29.51
32.29
33.95
34.71
34.86
34.63
34.05
32.97
31.09
28.25
24.51
20.25
15.96
11.98
8.30
4.54
0.07
-5.74
-13.18
-21.95
-31.05
-38.82
-43.35
-42.98
-36.89
-25.56
-10.71
5.11
19.28
29.92
36.30
38.93
39.07
38.06
36.86
35.66
34.11
31.78
28.58
25.02
22.01
20.36
20.33
21.49
23.01
24.14
24.55
24.37
23.79
22.79
20.94
17.69
12.75
6.38
-0.71
-7.70
-14.08
-19.76
-25.05
-30.27
-35.49
-40.57
-45.30
-49.65
-53.96
-58.80
-64.71
-71.82
-79.56
-86.56
-90.90
-90.64
-84.49
-72.31
-55.28
-35.68
-16.11
1.18
14.83
24.54
30.69
33.99
35.06
34.30
32.04
28.62
24.55
20.42
16.75
13.87
11.90
10.69
10.03
9.70
9.62
9.80
10.30
11.20
12.43
13.76
14.83
15.19
14.48
12.50
9.29
5.10
0.34
-4.56
-9.23
-13.41
-17.00
-20.09
-22.95
-26.02
-29.77
-34.50
-40.05
-45.57
-49.61
-50.42
-46.63
-37.71
-24.34
-8.21
8.52
23.86
36.48
45.85
52.00
55.21
55.76
53.92
50.02
44.65
38.59
32.68
27.55
23.51
20.48
18.15
16.25
14.68
13.54
13.11
13.58
14.91
16.72
18.35
19.07
18.31
15.82
11.75
6.54
0.86
-4.66
-9.54
-13.63
-17.07
-20.34
-24.06
-28.83
-34.96
-42.23
-49.83
-56.41
-60.33
-60.08
-54.74
-44.30
-29.77
-12.99
3.91
18.99
31.00
39.49
44.64
46.98
47.12
45.60
42.88
39.47
35.84
32.40
29.41
26.97
25.14
23.96
23.59
24.07
25.37
27.21
29.24
31.18
32.78
33.85
34.25
33.78
32.34
29.99
27.09
24.10
21.47
19.36
17.64
15.96
14.06
11.86
9.55
7.41
5.64
4.32
3.34
2.50
1.62
0.52
-0.94
-2.85
-5.18
-7.82
-10.47
-12.86
-14.72
-16.05
-17.06
-18.11
-19.51
-21.41
-23.67
-25.99
-28.07
-29.72
-30.95
-32.06
-33.47
-35.72
-39.17
-43.83
-49.04
-53.52
-55.49
-53.23
-45.71
-33.07
-16.61
1.54
19.15
34.42
46.33
54.59
59.40
61.11
60.15
57.00
52.20
46.37
40.21
34.33
29.21
25.13
22.27
20.70
20.47
21.56
23.82
26.91
30.27
33.23
35.16
35.65
34.63
32.36
29.32
26.00
22.78
19.86
17.23
14.77
12.28
9.65
6.81
3.88
1.06
-1.45
-3.52
-5.20
-6.69
-8.32
-10.37
-12.99
-16.12
-19.53
-22.86
-25.71
-27.80
-29.08
-29.79
-30.47
-31.73
-34.08
-37.51
-41.35
-44.29
-44.75
-41.35
-33.47
-21.51
-6.81
8.74
23.26
35.37
44.47
50.55
53.98
55.17
54.47
52.09
48.36
43.76
38.98
34.76
31.76
30.31
30.49
32.11
34.76
37.97
41.13
43.63
44.90
44.54
42.44
38.78
33.96
28.51
22.89
17.45
12.39
7.76
3.51
-0.43
-4.12
-7.58
-10.82
-13.88
-16.83
-19.79
-22.86
-26.01
-29.13
-32.02
-34.48
-36.42
-37.90
-39.05
-40.07
-41.13
-42.34
-43.78
-45.46
-47.30
-49.12
-50.65
-51.65
-52.03
-51.93
-51.80
-52.25
-53.87
-56.97
-61.27
-65.85
-69.30
-69.98
-66.60
-58.62
-46.53
-31.73
-16.23
-2.02
9.35
17.14
21.33
22.44
21.15
18.17
14.01
9.10
3.80
-1.47
-6.31
-10.34
-13.28
-15.03
-15.55
-14.93
-13.24
-10.59
-7.13
-3.15
0.93
4.57
7.32
8.85
9.12
8.33
6.82
4.96
2.97
0.94
-1.09
-3.07
-4.86
-6.26
-7.15
-7.55
-7.68
-7.91
-8.51
-9.55
-10.88
-12.18
-13.17
-13.77
-14.15
-14.62
-15.47
-16.79
-18.45
-20.17
-21.63
-22.66
-23.24
-23.55
-23.90
-24.67
-26.19
-28.64
-31.92
-35.49
-38.36
-39.29
-37.05
-30.86
-20.75
-7.59
6.99
21.12
33.20
42.23
47.99
50.79
51.28
50.03
47.52
44.10
40.05
35.72
31.45
27.50
24.02
21.06
18.64
16.82
15.76
15.62
16.53
18.34
20.67
22.92
24.44
24.73
23.64
21.41
18.55
15.64
13.11
11.10
9.47
7.94
6.25
4.31
2.17
-0.03
-2.18
-4.28
-6.45
-8.80
-11.35
-14.01
-16.57
-18.86
-20.81
-22.52
-24.17
-25.99
-28.15
-30.83
-34.15
-38.19
-42.80
-47.40
-50.98
-52.23
-49.92
-43.45
-33.08
-20.05
-6.14
6.74
17.13
24.30
28.22
29.35
28.37
25.85
22.22
17.77
12.66
7.10
1.29
-4.55
-10.23
-15.55
-20.25
-23.94
-26.17
-26.48
-24.62
-20.71
-15.29
-9.24
-3.54
1.02
4.09
5.84
6.82
7.69
8.89
10.48
12.11
13.26
13.46
12.55
10.72
8.45
6.27
4.57
3.54
3.03
2.78
2.45
1.87
1.07
0.33
0.11
0.87
2.93
6.18
10.01
13.28
14.54
12.51
6.62
-2.51
-12.98
-22.11
-27.24
-26.62
-20.08
-8.91
4.60
17.99
29.37
37.66
42.57
44.23
43.00
39.32
33.78
27.10
20.08
13.38
7.40
2.20
-2.29
-6.16
-9.25
-11.20
-11.51
-9.75
-5.73
0.39
7.99
16.05
23.26
28.38
30.56
29.71
26.46
22.05
17.72
14.32
11.95
10.09
7.89
4.64
0.05
-5.71
-12.15
-18.78
-25.24
-31.45
-37.55
-43.66
-49.77
-55.62
-60.78
-64.64
-66.63
-66.46
-64.27
-60.82
-57.27
-54.76
-53.84
-54.04
-53.88
-51.42
-44.96
-33.85
-18.70
-1.19
16.58
32.77
46.15
56.11
62.53
65.51
65.37
62.72
58.47
53.61
49.01
45.01
41.42
37.65
33.17
27.91
22.44
17.80
15.05
14.80
17.06
21.28
26.66
32.46
38.06
42.91
46.45
48.14
47.61
44.81
40.09
34.00
27.09
19.71
11.98
3.90
-4.42
-12.70
-20.53
-27.50
-33.44
-38.41
-42.61
-46.29
-49.52
-52.25
-54.36
-55.88
-57.06
-58.44
-60.64
-64.06
-68.52
-73.09
-76.19
-76.09
-71.51
-62.16
-48.88
-33.41
-17.79
-3.75
7.65
16.07
21.63
24.59
25.16
23.55
20.08
15.40
10.43
6.07
3.01
1.50
1.37
2.23
3.83
6.10
9.23
13.40
18.67
24.92
31.82
39.01
46.10
52.63
58.06
61.80
63.36
62.52
59.46
54.64
48.59
41.79
34.56
27.13
19.78
12.82
6.45
0.61
-5.25
-11.95
-20.26
-30.37
-41.54
-52.14
-60.07
-63.56
-61.74
-55.01
-44.79
-33.04
-21.56
-11.63
-3.82
1.71
5.11
6.58
6.47
5.20
3.28
1.21
-0.68
-2.22
-3.40
-4.28
-4.84
-4.97
-4.49
-3.17
-0.89
2.30
6.05
9.83
12.99
14.97
15.44
14.39
12.10
9.02
5.57
2.08
-1.34
-4.72
-8.16
-11.79
-15.66
-19.65
-23.57
-27.13
-30.14
-32.58
-34.69
-36.91
-39.71
-43.37
-47.78
-52.26
-55.59
-56.27
-52.94
-44.89
-32.37
-16.66
0.28
16.40
30.06
40.40
47.35
51.31
52.84
52.39
50.25
46.70
42.07
36.84
31.52
26.57
22.23
18.61
15.78
13.84
12.96
13.27
14.74
17.10
19.85
22.41
24.28
25.14
24.90
23.63
21.48
18.71
15.60
12.48
9.59
7.03
4.66
2.23
-0.54
-3.74
-7.23
-10.69
-13.75
-16.17
-18.00
-19.44
-20.86
-22.54
-24.73
-27.45
-30.60
-33.87
-36.87
-39.18
-40.59
-41.20
-41.47
-42.11
-43.87
-47.19
-52.00
-57.49
-62.26
-64.53
-62.61
-55.50
-43.20
-26.90
-8.66
9.14
24.47
36.12
43.83
48.03
49.50
48.99
47.03
44.03
40.30
36.15
31.83
27.58
23.56
19.94
16.93
14.84
14.00
14.61
16.72
20.01
23.95
27.86
31.09
33.15
33.87
33.30
31.75
29.60
27.26
25.04
23.08
21.35
19.73
18.02
16.09
13.93
11.64
9.44
7.49
5.79
4.16
2.32
-0.03
-2.92
-6.15
-9.33
-12.10
-14.26
-15.94
-17.55
-19.64
-22.72
-27.07
-32.54
-38.45
-43.57
-46.37
-45.36
-39.60
-29.09
-14.87
1.19
16.93
30.45
40.53
46.76
49.43
49.27
47.11
43.67
39.51
34.96
30.27
25.64
21.30
17.45
14.28
11.93
10.51
10.11
10.81
12.60
15.31
18.59
21.88
24.59
26.19
26.38
25.11
22.59
19.19
15.36
11.59
8.24
5.52
3.41
1.70
0.04
-1.86
-4.12
-6.61
-9.06
-11.14
-12.68
-13.72
-14.57
-15.58
-17.07
-19.13
-21.63
-24.26
-26.72
-28.78
-30.44
-31.87
-33.43
-35.57
-38.61
-42.63
-47.21
-51.39
-53.82
-53.10
-48.24
-39.12
-26.51
-11.95
2.75
15.98
26.62
34.16
38.59
40.25
39.68
37.50
34.35
30.76
27.02
23.25
19.44
15.64
12.02
8.95
6.84
6.01
6.54
8.27
10.88
13.94
17.04
19.77
21.72
22.61
22.27
20.79
18.44
15.66
12.85
10.27
8.02
6.00
4.07
2.13
0.14
-1.88
-3.91
-5.95
-8.03
-10.14
-12.25
-14.28
-16.19
-17.98
-19.79
-21.76
-24.04
-26.68
-29.53
-32.34
-34.83
-36.78
-38.12
-38.95
-39.46
-39.92
-40.62
-41.86
-43.91
-46.85
-50.33
-53.46
-54.92
-53.23
-47.33
-37.03
-23.26
-7.79
7.27
20.16
29.86
36.20
39.57
40.52
39.58
37.08
33.33
28.69
23.66
18.76
14.40
10.87
8.26
6.59
5.84
6.04
7.20
9.27
12.12
15.45
18.85
21.88
24.14
25.41
25.64
24.99
23.72
22.10
20.39
18.74
17.20
15.79
14.47
13.15
11.73
10.10
8.22
6.14
4.02
2.02
0.20
-1.52
-3.37
-5.52
-8.09
-10.94
-13.79
-16.25
-17.99
-18.90
-19.10
-18.98
-19.07
-19.87
-21.72
-24.57
-27.95
-30.91
-32.28
-30.87
-25.91
-17.24
-5.50
8.00
21.56
33.51
42.65
48.42
50.93
50.71
48.47
44.84
40.31
35.27
30.04
24.92
20.20
16.12
12.83
10.39
8.80
8.02
8.01
8.73
10.10
11.97
14.11
16.19
17.80
18.55
18.16
16.62
14.12
11.06
7.92
5.10
2.87
1.30
0.32
-0.23
-0.51
-0.64
-0.69
-0.75
-0.90
-1.30
-2.13
-3.53
-5.52
-7.95
-10.49
-12.78
-14.50
-15.51
-15.87
-15.78
-15.52
-15.45
-16.00
-17.59
-20.46
-24.46
-28.87
-32.34
-33.28
-30.37
-23.15
-12.30
0.44
12.88
23.07
29.91
33.33
34.02
32.98
31.03
28.59
25.68
22.22
18.16
13.68
9.10
4.77
0.93
-2.31
-4.96
-7.01
-8.35
-8.85
-8.36
-6.92
-4.81
-2.56
-0.77
0.08
-0.23
-1.64
-3.80
-6.34
-8.98
-11.58
-14.16
-16.75
-19.37
-21.92
-24.22
-26.09
-27.42
-28.25
-28.81
-29.41
-30.35
-31.77
-33.60
-35.56
-37.30
-38.52
-39.11
-39.16
-38.99
-39.03
-39.70
-41.25
-43.61
-46.24
-48.17
-48.11
-44.83
-37.62
-26.61
-12.90
1.78
15.54
26.84
34.92
39.71
41.70
41.54
39.80
36.90
33.12
28.75
24.13
19.65
15.74
12.75
10.92
10.36
11.07
12.90
15.59
18.76
21.93
24.66
26.61
27.69
28.03
27.92
27.58
27.05
26.11
24.47
21.92
18.49
14.52
10.41
6.41
2.54
-1.45
-5.83
-10.71
-15.91
-21.02
-25.57
-29.26
-32.05
-34.20
-36.13
-38.33
-41.18
-44.91
-49.49
-54.58
-59.48
-63.16
-64.37
-61.96
-55.19
-44.13
-29.73
-13.60
2.30
16.30
27.27
34.84
39.21
40.91
40.56
38.71
35.84
32.34
28.53
24.65
20.83
17.20
13.87
11.04
8.99
7.99
8.30
9.99
12.87
16.49
20.21
23.38
25.49
26.35
26.05
24.92
23.38
21.78
20.29
18.94
17.58
15.89
13.55
10.33
6.19
1.42
-3.46
-7.86
-11.45
-14.22
-16.57
-19.16
-22.53
-26.92
-31.99
-36.80
-40.06
-40.42
-36.88
-29.17
-17.86
-4.26
9.91
22.94
33.51
40.85
44.75
45.52
43.78
40.30
35.85
31.04
26.25
21.68
17.40
13.49
10.09
7.39
5.53
4.58
4.59
5.56
7.46
10.22
13.55
16.97
19.91
21.83
22.49
21.94
20.51
18.66
16.78
15.12
13.77
12.69
11.79
10.97
10.16
9.34
8.50
7.68
6.90
6.09
5.23
4.28
3.32
2.55
2.19
2.43
3.25
4.41
5.47
5.88
5.11
2.70
-1.65
-8.10
-16.49
-26.16
-35.81
-43.54
-47.14
-44.74
-35.46
-19.85
0.15
21.69
41.89
58.59
70.84
78.80
83.44
86.09
88.04
90.41
93.94
98.63
103.61
107.03
106.61
100.35
87.46
68.78
46.66
24.10
3.77
-12.72
-24.98
-33.47
-39.05
-42.59
-44.91
-46.94
-49.60
-53.69
-59.44
-66.42
-73.54
-79.53
-83.40
-84.90
-84.52
-83.18
-81.78
-80.75
-80.02
-79.20
-77.88
-76.02
-73.95
-72.20
-71.20
-71.06
-71.51
-72.06
-72.27
-72.01
-71.47
-71.05
-71.27
-72.51
-74.95
-78.37
-82.10
-84.95
-85.32
-81.54
-72.43
-57.74
-38.55
-16.98
4.26
22.75
36.85
46.09
50.89
52.20
50.95
47.88
43.49
38.19
32.44
26.73
21.53
17.17
13.83
11.61
10.64
11.08
13.02
16.41
20.88
25.79
30.37
33.94
36.06
36.66
35.93
34.25
31.97
29.32
26.42
23.28
19.92
16.45
12.99
9.72
6.70
3.86
1.00
-2.13
-5.68
-9.66
-13.87
-17.98
-21.72
-24.96
-27.79
-30.52
-33.55
-37.25
-41.85
-47.22
-52.81
-57.56
-59.99
-58.53
-52.00
-40.10
-23.74
-4.86
14.07
30.76
43.65
52.19
56.64
57.74
56.34
53.14
48.71
43.51
37.99
32.57
27.64
23.46
20.22
18.01
16.86
16.74
17.63
19.41
21.91
24.82
27.73
30.14
31.54
31.53
29.99
27.06
23.22
19.03
15.08
11.71
8.96
6.62
4.32
1.72
-1.35
-4.84
-8.51
-12.05
-15.20
-17.90
-20.28
-22.66
-25.44
-28.90
-33.14
-37.92
-42.81
-47.27
-50.92
-53.66
-55.76
-57.87
-60.71
-64.89
-70.47
-76.75
-82.24
-84.93
-82.86
-74.86
-60.93
-42.46
-21.80
-1.57
15.99
29.57
38.84
44.20
46.40
46.19
44.20
40.89
36.71
32.10
27.51
23.35
19.96
17.53
16.19
16.00
17.02
19.23
22.51
26.57
30.94
35.02
38.18
39.96
40.15
38.85
36.43
33.46
30.48
27.88
25.73
23.81
21.75
19.23
16.16
12.70
9.19
5.93
3.11
0.73
-1.35
-3.31
-5.36
-7.62
-10.17
-12.95
-15.79
-18.40
-20.55
-22.20
-23.59
-25.21
-27.69
-31.49
-36.77
-43.09
-49.38
-54.01
-55.12
-51.11
-41.26
-26.13
-7.54
11.93
29.59
43.45
52.60
57.22
58.17
56.57
53.36
49.14
44.22
38.76
32.85
26.78
20.92
15.74
11.70
9.13
8.15
8.64
10.35
12.91
15.88
18.81
21.24
22.73
22.99
22.01
20.02
17.46
14.79
12.33
10.12
7.92
5.45
2.48
-1.03
-4.87
-8.71
-12.22
-15.22
-17.78
-20.20
-22.88
-26.19
-30.23
-34.84
-39.66
-44.34
-48.70
-52.80
-56.89
-61.25
-66.16
-71.68
-77.65
-83.51
-88.19
-90.17
-87.76
-79.63
-65.39
-45.96
-23.44
-0.57
20.04
36.57
48.30
55.48
58.96
59.75
58.67
56.24
52.79
48.59
44.06
39.71
36.06
33.47
32.06
31.73
32.34
33.81
36.13
39.22
42.79
46.28
49.00
50.37
50.17
48.53
45.87
42.72
39.46
36.35
33.51
30.93
28.59
26.39
24.20
21.85
19.25
16.36
13.27
10.10
7.08
4.41
2.25
0.66
-0.47
-1.33
-2.27
-3.63
-5.77
-8.93
-13.19
-18.42
-24.30
-30.41
-36.40
-42.18
-47.92
-53.92
-60.25
-66.45
-71.39
-73.51
-71.27
-63.74
-51.01
-34.22
-15.27
3.68
20.63
34.08
43.12
47.42
47.12
42.81
35.47
26.30
16.57
7.34
-0.71
-7.24
-12.18
-15.51
-17.17
-17.05
-15.17
-11.78
-7.37
-2.58
1.98
5.91
8.99
11.13
12.31
12.49
11.64
9.86
7.41
4.70
2.21
0.34
-0.78
-1.36
-1.90
-2.95
-4.85
-7.51
-10.45
-13.06
-14.89
-15.97
-16.70
-17.72
-19.49
-22.10
-25.23
-28.31
-30.84
-32.58
-33.62
-34.35
-35.29
-36.99
-39.91
-44.22
-49.64
-55.24
-59.51
-60.66
-57.06
-47.91
-33.56
-15.58
3.66
21.65
36.36
46.71
52.46
54.13
52.51
48.44
42.68
35.79
28.24
20.39
12.54
4.90
-2.28
-8.80
-14.39
-18.74
-21.47
-22.18
-20.60
-16.73
-10.98
-4.21
2.51
8.11
11.90
13.64
13.46
11.77
8.98
5.53
1.84
-1.64
-4.54
-6.61
-7.94
-8.86
-9.86
-11.40
-13.71
-16.73
-20.17
-23.63
-26.70
-29.16
-31.00
-32.53
-34.35
-37.19
-41.65
-47.81
-55.05
-61.94
-66.51
-66.81
-61.48
-50.27
-34.14
-15.06
4.54
22.44
37.08
47.74
54.46
57.71
58.14
56.43
53.19
49.05
44.56
40.28
36.62
33.79
31.84
30.67
30.19
30.33
31.06
32.34
34.04
35.91
37.60
38.75
39.18
38.85
37.91
36.55
34.89
32.88
30.30
26.92
22.57
17.36
11.68
6.12
1.27
-2.51
-5.23
-7.25
-9.10
-11.23
-13.87
-16.90
-19.99
-22.82
-25.21
-27.24
-29.22
-31.62
-34.90
-39.38
-45.01
-51.20
-56.74
-59.99
-59.35
-53.77
-43.25
-28.97
-12.96
2.51
15.55
25.13
31.06
33.79
33.95
32.14
28.79
24.34
19.29
14.19
9.57
5.78
2.97
1.10
0.09
-0.06
0.73
2.52
5.23
8.61
12.23
15.63
18.40
20.24
20.99
20.70
19.50
17.67
15.56
13.45
11.55
9.91
8.42
6.93
5.25
3.30
1.08
-1.27
-3.56
-5.57
-7.19
-8.54
-9.91
-11.66
-14.04
-17.07
-20.43
-23.59
-26.07
-27.61
-28.42
-29.06
-30.34
-32.94
-37.18
-42.69
-48.46
-52.97
-54.57
-51.88
-44.28
-32.06
-16.49
0.48
16.72
30.40
40.40
46.42
48.84
48.44
46.06
42.36
37.78
32.59
27.02
21.34
15.93
11.25
7.72
5.68
5.28
6.48
8.97
12.33
15.98
19.37
22.03
23.67
24.23
23.84
22.72
21.18
19.44
17.67
15.92
14.27
12.76
11.44
10.25
9.05
7.63
5.74
3.27
0.29
-2.95
-6.06
-8.71
-10.74
-12.27
-13.69
-15.55
-18.42
-22.67
-28.27
-34.59
-40.39
-43.96
-43.61
-38.19
-27.61
-13.02
3.53
19.63
33.22
43.12
49.06
51.54
51.37
49.36
46.14
42.19
37.88
33.54
29.45
25.76
22.52
19.69
17.25
15.28
13.97
13.60
14.31
16.03
18.35
20.66
22.33
22.92
22.33
20.76
18.58
16.14
13.67
11.25
8.90
6.65
4.50
2.47
0.48
-1.64
-4.02
-6.72
-9.66
-12.55
-15.09
-17.01
-18.26
-19.04
-19.79
-21.03
-23.15
-26.22
-29.96
-33.82
-37.23
-39.83
-41.62
-42.96
-44.45
-46.68
-50.03
-54.51
-59.60
-64.25
-67.06
-66.53
-61.50
-51.59
-37.44
-20.63
-3.23
12.68
25.61
34.86
40.46
42.90
42.82
40.83
37.40
33.00
28.12
23.23
18.77
15.02
12.10
10.04
8.87
8.67
9.57
11.65
14.80
18.71
22.85
26.61
29.46
31.06
31.35
30.51
28.91
26.97
25.03
23.31
21.80
20.40
18.93
17.25
15.31
13.14
10.85
8.58
6.46
4.58
2.95
1.44
-0.16
-2.08
-4.44
-7.10
-9.63
-11.57
-12.51
-12.41
-11.64
-10.91
-11.03
-12.60
-15.75
-19.99
-24.18
-26.83
-26.45
-21.96
-13.14
-0.72
13.75
28.32
41.15
50.88
56.84
58.96
57.62
53.43
47.16
39.64
31.73
24.14
17.36
11.59
6.82
2.97
0.05
-1.81
-2.45
-1.82
-0.08
2.43
5.21
7.86
10.01
11.45
12.01
11.60
10.19
7.83
4.62
0.75
-3.58
-8.10
-12.47
-16.37
-19.50
-21.79
-23.48
-25.02
-27.01
-29.82
-33.47
-37.64
-41.76
-45.33
-48.01
-49.73
-50.55
-50.60
-50.05
-49.17
-48.33
-47.91
-48.02
-48.24
-47.57
-44.68
-38.44
-28.46
-15.44
-0.86
13.42
25.86
35.62
42.56
47.01
49.38
49.95
48.90
46.41
42.83
38.59
34.16
29.82
25.59
21.40
17.22
13.26
9.86
7.50
6.43
6.66
7.92
9.73
11.65
13.31
14.46
14.99
14.87
14.15
12.92
11.27
9.23
6.79
3.88
0.56
-2.98
-6.44
-9.55
-12.21
-14.55
-16.92
-19.65
-22.91
-26.59
-30.37
-33.89
-36.85
-39.18
-41.00
-42.62
-44.46
-46.94
-50.23
-54.17
-58.06
-60.75
-60.88
-57.34
-49.67
-38.33
-24.61
-10.30
2.84
13.51
21.15
25.80
27.99
28.30
27.21
25.05
21.98
18.20
13.96
9.62
5.63
2.38
0.12
-1.04
-1.15
-0.33
1.32
3.71
6.76
10.34
14.24
18.19
21.91
25.14
27.71
29.46
30.30
30.11
28.85
26.57
23.52
20.03
16.45
12.98
9.57
6.02
2.10
-2.31
-7.10
-12.07
-17.10
-22.21
-27.58
-33.42
-39.65
-45.79
-50.90
-53.75
-53.11
-48.15
-38.75
-25.62
-10.21
5.64
20.13
31.91
40.28
45.20
47.07
46.48
44.06
40.33
35.81
30.94
26.15
21.72
17.82
14.42
11.48
9.01
7.18
6.27
6.53
7.95
10.18
12.58
14.40
15.09
14.42
12.56
9.94
7.07
4.32
1.89
-0.28
-2.38
-4.70
-7.47
-10.78
-14.53
-18.44
-22.07
-25.05
-27.18
-28.61
-29.77
-31.35
-33.96
-37.86
-42.68
-47.40
-50.44
-50.21
-45.58
-36.28
-23.12
-7.66
8.11
22.39
33.88
41.98
46.68
48.41
47.82
45.58
42.29
38.41
34.29
30.17
26.20
22.52
19.26
16.60
14.67
13.62
13.51
14.26
15.72
17.64
19.66
21.43
22.61
22.88
22.12
20.40
17.96
15.25
12.71
10.70
9.32
8.43
7.70
6.71
5.14
2.86
0.01
-3.02
-5.75
-7.78
-9.03
-9.75
-10.51
-11.90
-14.35
-17.85
-22.02
-26.30
-30.09
-33.13
-35.42
-37.29
-39.23
-41.75
-45.22
-49.69
-54.77
-59.52
-62.63
-62.61
-58.31
-49.29
-36.15
-20.42
-4.17
10.57
22.31
30.42
35.02
36.69
36.08
33.73
30.06
25.43
20.33
15.32
10.89
7.27
4.42
2.13
0.22
-1.27
-2.03
-1.66
0.04
2.86
6.25
9.45
11.79
12.96
12.93
11.94
10.26
8.15
5.85
3.57
1.57
-0.00
-1.17
-2.16
-3.31
-4.90
-6.97
-9.30
-11.50
-13.25
-14.47
-15.35
-16.29
-17.68
-19.68
-22.23
-25.00
-27.64
-29.84
-31.48
-32.66
-33.69
-34.97
-36.92
-39.83
-43.71
-48.14
-52.16
-54.41
-53.48
-48.28
-38.52
-24.87
-8.86
7.53
22.40
34.40
42.92
48.04
50.30
50.38
48.89
46.34
43.13
39.54
35.84
32.24
28.87
25.87
23.33
21.42
20.36
20.37
21.51
23.68
26.58
29.76
32.72
35.00
36.28
36.39
35.35
33.32
30.57
27.39
24.05
20.69
17.40
14.15
10.89
7.59
4.22
0.81
-2.65
-6.18
-9.76
-13.42
-17.10
-20.72
-24.17
-27.36
-30.34
-33.32
-36.70
-40.92
-46.18
-52.21
-58.10
-62.38
-63.42
-59.91
-51.38
-38.39
-22.45
-5.63
10.03
22.99
32.45
38.39
41.24
41.64
40.21
37.47
33.84
29.79
25.77
22.17
19.25
17.07
15.56
14.58
14.11
14.22
15.04
16.65
18.94
21.58
24.10
26.01
26.92
26.67
25.38
23.37
21.03
18.77
16.79
15.10
13.50
11.69
9.43
6.56
3.20
-0.42
-3.97
-7.14
-9.81
-12.09
-14.23
-16.58
-19.39
-22.69
-26.36
-30.10
-33.54
-36.43
-38.61
-40.18
-41.47
-43.10
-45.73
-49.79
-55.19
-61.04
-65.78
-67.50
-64.66
-56.51
-43.53
-27.18
-9.57
7.10
21.14
31.52
38.02
40.96
41.01
38.89
35.28
30.75
25.80
20.83
16.13
11.92
8.29
5.22
2.72
0.89
-0.10
-0.00
1.31
3.72
6.87
10.15
12.90
14.59
14.98
14.14
12.40
10.22
8.03
6.13
4.60
3.31
2.03
0.51
-1.37
-3.58
-5.91
-8.11
-10.06
-11.80
-13.52
-15.52
-18.05
-21.13
-24.56
-27.98
-31.01
-33.42
-35.21
-36.71
-38.42
-40.91
-44.56
-49.33
-54.54
-58.95
-60.95
-59.03
-52.25
-40.60
-25.15
-7.74
9.42
24.39
35.91
43.52
47.47
48.45
47.27
44.67
41.24
37.41
33.55
29.89
26.59
23.75
21.41
19.63
18.59
18.53
19.67
22.07
25.52
29.55
33.53
36.91
39.29
40.48
40.46
39.29
37.03
33.80
29.79
25.40
21.08
17.28
14.24
11.84
9.68
7.23
4.09
0.14
-4.43
-9.23
-13.87
-18.11
-21.93
-25.47
-28.99
-32.79
-37.16
-42.30
-48.10
-53.93
-58.64
-60.67
-58.59
-51.57
-39.79
-24.53
-7.77
8.26
21.76
31.65
37.67
40.23
40.06
37.98
34.72
30.83
26.76
22.85
19.35
16.35
13.86
11.81
10.14
8.86
8.14
8.23
9.36
11.62
14.77
18.29
21.47
23.59
24.22
23.32
21.26
18.67
16.15
14.08
12.47
11.07
9.49
7.45
4.89
1.95
-1.10
-4.03
-6.72
-9.24
-11.75
-14.44
-17.43
-20.72
-24.19
-27.62
-30.80
-33.61
-36.00
-38.03
-39.94
-42.05
-44.76
-48.45
-53.23
-58.82
-64.31
-68.26
-69.02
-65.18
-56.22
-42.77
-26.58
-10.05
4.49
15.36
21.81
23.96
22.45
18.17
12.07
5.13
-1.66
-7.42
-11.56
-13.91
-14.70
-14.46
-13.68
-12.61
-11.18
-9.09
-6.03
-1.88
3.18
8.77
14.35
19.48
23.80
27.14
29.37
30.49
30.55
29.69
28.20
26.38
24.45
22.51
20.45
18.10
15.37
12.32
9.16
6.18
3.56
1.31
-0.75
-2.88
-5.28
-8.00
-10.89
-13.63
-15.90
-17.48
-18.37
-18.90
-19.53
-20.80
-23.04
-26.20
-29.77
-32.81
-34.10
-32.43
-26.90
-17.31
-4.23
10.98
26.52
40.57
51.78
59.49
63.74
65.06
64.15
61.59
57.76
52.89
47.17
40.91
34.56
28.62
23.50
19.47
16.53
14.61
13.59
13.48
14.35
16.17
18.67
21.36
23.52
24.54
24.10
22.30
19.58
16.51
13.56
10.94
8.59
6.28
3.87
1.37
-1.02
-2.96
-4.19
-4.66
-4.62
-4.55
-5.01
-6.36
-8.62
-11.44
-14.22
-16.37
-17.53
-17.72
-17.35
-17.08
-17.59
-19.45
-22.86
-27.48
-32.46
-36.37
-37.59
-34.75
-27.22
-15.49
-1.20
13.36
25.87
34.76
39.53
40.72
39.48
37.03
34.24
31.53
29.03
26.73
24.68
23.01
21.83
21.17
20.98
21.16
21.65
22.32
23.07
23.77
24.27
24.43
24.13
23.21
21.47
18.79
15.15
10.83
6.32
2.19
-1.19
-3.78
-5.97
-8.26
-11.02
-14.31
-17.77
-20.89
-23.27
-24.78
-25.72
-26.63
-28.09
-30.48
-33.81
-37.73
-41.63
-44.87
-47.07
-48.22
-48.72
-49.17
-50.19
-52.22
-55.29
-58.99
-62.46
-64.50
-63.78
-59.19
-50.20
-37.20
-21.46
-4.90
10.43
22.95
31.83
37.05
39.14
38.84
36.80
33.51
29.35
24.68
19.87
15.31
11.27
7.91
5.31
3.51
2.54
2.45
3.20
4.70
6.71
8.95
11.09
12.85
13.98
14.35
13.96
12.94
11.60
10.22
9.00
7.99
7.05
5.99
4.70
3.21
1.66
0.21
-1.11
-2.47
-4.08
-6.12
-8.55
-11.05
-13.27
-14.90
-15.96
-16.80
-18.02
-20.22
-23.74
-28.47
-33.76
-38.45
-41.10
-40.36
-35.38
-26.11
-13.41
1.18
15.83
28.84
39.05
45.97
49.71
50.73
49.67
47.19
43.80
39.94
35.86
31.69
27.49
23.28
19.18
15.44
12.43
10.53
9.99
10.87
12.88
15.46
17.93
19.62
20.04
19.02
16.71
13.44
9.72
5.98
2.51
-0.66
-3.68
-6.84
-10.37
-14.37
-18.68
-22.96
-26.83
-30.03
-32.57
-34.75
-37.15
-40.30
-44.49
-49.44
-54.21
-57.37
-57.35
-53.01
-44.06
-31.27
-16.28
-1.09
12.46
23.18
30.64
35.04
36.92
36.82
35.19
32.40
28.82
24.83
20.86
17.20
14.03
11.37
9.22
7.60
6.66
6.57
7.43
9.21
11.58
14.09
16.20
17.49
17.74
16.95
15.30
13.05
10.41
7.51
4.44
1.25
-1.94
-4.92
-7.47
-9.47
-11.04
-12.51
-14.34
-16.88
-20.23
-24.12
-28.08
-31.58
-34.32
-36.33
-37.98
-39.91
-42.77
-47.07
-52.88
-59.63
-66.14
-70.71
-71.56
-67.40
-57.82
-43.59
-26.35
-8.16
9.01
23.70
35.09
42.89
47.18
48.28
46.67
43.00
37.98
32.32
26.58
21.15
16.25
12.06
8.77
6.61
5.74
6.15
7.66
9.93
12.53
15.04
17.11
18.44
18.83
18.20
16.59
14.17
11.25
8.20
5.36
2.97
1.13
-0.25
-1.36
-2.47
-3.77
-5.29
-6.90
-8.37
-9.49
-10.20
-10.69
-11.25
-12.25
-13.89
-16.15
-18.80
-21.52
-24.00
-26.07
-27.81
-29.47
-31.47
-34.19
-37.79
-42.03
-46.16
-48.90
-48.82
-44.74
-36.16
-23.61
-8.54
7.12
21.48
33.22
41.75
47.09
49.67
49.94
48.38
45.47
41.73
37.77
34.13
31.09
28.70
26.81
25.26
24.05
23.40
23.62
24.91
27.20
30.11
33.08
35.50
36.95
37.26
36.49
34.81
32.44
29.56
26.34
22.96
19.65
16.59
13.93
11.66
9.62
7.56
5.20
2.29
-1.32
-5.61
-10.41
-15.41
-20.26
-24.66
-28.42
-31.57
-34.35
-37.17
-40.52
-44.77
-50.03
-55.88
-61.43
-65.35
-66.19
-62.86
-54.97
-43.10
-28.65
-13.50
0.52
12.08
20.53
25.89
28.60
29.22
28.31
26.30
23.53
20.31
16.94
13.73
10.86
8.42
6.44
4.97
4.12
4.07
5.03
7.04
9.89
13.11
16.09
18.30
19.43
19.43
18.48
16.84
14.74
12.37
9.92
7.62
5.75
4.43
3.66
3.14
2.48
1.36
-0.31
-2.34
-4.39
-6.17
-7.65
-9.03
-10.66
-12.87
-15.72
-19.05
-22.48
-25.64
-28.26
-30.31
-31.98
-33.65
-35.75
-38.70
-42.79
-47.96
-53.68
-58.93
-62.27
-62.21
-57.64
-48.36
-35.17
-19.77
-4.27
9.42
20.07
27.23
31.12
32.27
31.29
28.67
24.84
20.25
15.37
10.70
6.63
3.37
0.97
-0.61
-1.38
-1.28
-0.19
1.98
5.14
8.95
12.93
16.48
19.17
20.69
20.98
20.19
18.58
16.54
14.40
12.47
10.88
9.55
8.25
6.68
4.63
2.10
-0.70
-3.46
-5.91
-7.99
-9.84
-11.77
-14.03
-16.71
-19.60
-22.35
-24.58
-26.08
-26.96
-27.56
-28.40
-29.96
-32.52
-36.01
-39.88
-43.14
-44.48
-42.54
-36.39
-25.85
-11.68
4.56
20.96
35.71
47.51
55.76
60.41
61.89
60.82
57.90
53.83
49.17
44.35
39.65
35.22
31.18
27.65
24.77
22.71
21.53
21.23
21.65
22.56
23.69
24.80
25.66
26.08
25.91
24.99
23.26
20.68
17.34
13.48
9.39
5.45
1.89
-1.15
-3.76
-6.13
-8.50
-11.05
-13.93
-17.08
-20.41
-23.72
-26.84
-29.70
-32.37
-35.05
-37.99
-41.46
-45.66
-50.68
-56.39
-62.32
-67.55
-70.78
-70.50
-65.54
-55.48
-41.02
-23.85
-6.18
9.92
23.08
32.77
39.12
42.52
43.32
41.77
38.14
32.96
27.02
21.28
16.60
13.47
11.94
11.72
12.35
13.46
14.89
16.69
19.01
21.97
25.57
29.65
33.91
37.99
41.59
44.46
46.46
47.49
47.43
46.17
43.64
39.90
35.18
29.88
24.47
19.45
15.17
11.76
9.04
6.58
3.79
0.03
-5.17
-11.95
-20.09
-28.98
-37.82
-45.83
-52.53
-57.83
-62.09
-65.98
-70.21
-75.10
-80.37
-85.00
-87.44
-86.05
-79.72
-68.28
-52.67
-34.70
-16.62
-0.41
12.61
21.91
27.68
30.43
30.78
29.22
26.15
21.97
17.13
12.16
7.56
3.73
0.90
-0.89
-1.65
-1.43
-0.20
2.05
5.27
9.19
13.39
17.26
20.22
21.83
21.97
20.76
18.60
15.93
13.12
10.39
7.74
5.03
2.12
-1.01
-4.23
-7.30
-9.91
-11.92
-13.36
-14.52
-15.83
-17.81
-20.89
-25.23
-30.53
-35.97
-40.25
-41.85
-39.55
-32.82
-22.12
-8.76
5.45
18.82
30.11
38.72
44.61
48.00
49.24
48.70
46.76
43.87
40.45
36.86
33.31
29.86
26.58
23.54
20.98
19.16
18.31
18.46
19.44
20.86
22.32
23.44
23.96
23.79
22.87
21.19
18.76
15.66
12.05
8.16
4.26
0.54
-2.91
-6.18
-9.43
-12.88
-16.68
-20.85
-25.23
-29.55
-33.47
-36.75
-39.36
-41.49
-43.48
-45.72
-48.50
-52.04
-56.41
-61.47
-66.79
-71.51
-74.40
-74.13
-69.62
-60.59
-47.69
-32.42
-16.63
-2.04
10.17
19.44
25.69
29.09
29.83
28.15
24.48
19.55
14.31
9.81
6.81
5.65
6.09
7.57
9.52
11.59
13.76
16.24
19.20
22.54
25.90
28.79
30.79
31.72
31.54
30.37
28.23
25.11
21.08
16.39
11.59
7.37
4.32
2.71
2.31
2.54
2.68
2.16
0.79
-1.26
-3.57
-5.65
-7.20
-8.13
-8.67
-9.29
-10.56
-12.99
-16.78
-21.67
-26.83
-30.89
-32.37
-29.91
-22.86
-11.47
3.09
19.03
34.45
47.83
58.37
66.00
71.11
74.14
75.34
74.63
71.83
66.84
59.96
51.81
43.28
35.30
28.63
23.73
20.66
19.10
18.48
18.10
17.35
15.89
13.69
11.00
8.12
5.26
2.46
-0.32
-3.08
-5.75
-8.19
-10.37
-12.47
-14.81
-17.69
-21.25
-25.32
-29.58
-33.67
-37.44
-40.98
-44.65
-48.76
-53.29
-57.67
-60.78
-61.24
-57.81
-50.00
-38.29
-24.10
-9.42
3.87
14.43
21.77
26.06
27.84
27.61
25.75
22.43
17.83
12.29
6.31
0.49
-4.62
-8.70
-11.68
-13.72
-15.01
-15.62
-15.49
-14.46
-12.45
-9.57
-6.21
-3.00
-0.54
0.72
0.66
-0.45
-2.20
-4.17
-6.13
-8.13
-10.37
-13.17
-16.79
-21.36
-26.85
-32.99
-39.16
-44.36
-47.31
-46.77
-41.89
-32.68
-20.09
-5.84
8.10
20.09
29.22
35.37
39.00
40.73
41.07
40.32
38.59
36.05
33.00
29.88
27.14
25.05
23.69
22.91
22.49
22.18
21.86
21.47
20.98
20.40
19.70
18.77
17.48
15.55
12.75
8.94
4.18
-1.22
-6.80
-12.06
-16.63
-20.35
-23.26
-25.57
-27.59
-29.70
-32.26
-35.57
-39.71
-44.31
-48.56
-51.25
-51.04
-46.91
-38.53
-26.50
-12.18
2.60
16.10
27.05
34.88
39.60
41.65
41.58
39.97
37.26
33.84
30.06
26.18
22.43
18.99
16.04
13.70
12.07
11.16
10.91
11.25
12.08
13.28
14.66
15.91
16.65
16.51
15.30
13.06
10.08
6.79
3.60
0.76
-1.65
-3.73
-5.64
-7.62
-9.84
-12.41
-15.33
-18.47
-21.62
-24.52
-26.99
-28.96
-30.54
-32.00
-33.71
-36.08
-39.43
-43.85
-48.97
-53.96
-57.51
-58.13
-54.63
-46.46
-34.14
-19.11
-3.37
11.05
22.67
30.82
35.53
37.32
36.78
34.41
30.63
25.89
20.71
15.68
11.30
7.88
5.44
3.87
3.03
2.84
3.36
4.64
6.63
9.11
11.74
14.07
15.72
16.40
16.05
14.79
12.95
10.93
9.02
7.31
5.73
4.07
2.16
0.03
-2.15
-4.12
-5.73
-7.03
-8.20
-9.53
-11.22
-13.34
-15.78
-18.29
-20.60
-22.48
-23.84
-24.75
-25.50
-26.50
-28.21
-30.96
-34.69
-38.83
-42.28
-43.58
-41.38
-34.90
-24.26
-10.56
4.47
18.95
31.37
40.86
47.24
50.76
51.90
51.13
48.93
45.73
41.95
38.00
34.18
30.70
27.65
25.10
23.12
21.83
21.34
21.69
22.82
24.55
26.53
28.36
29.63
30.02
29.34
27.58
24.89
21.57
17.95
14.33
10.92
7.76
4.81
1.94
-1.00
-4.11
-7.38
-10.72
-13.97
-16.93
-19.46
-21.54
-23.37
-25.30
-27.77
-31.13
-35.43
-40.19
-44.39
-46.67
-45.69
-40.63
-31.53
-19.36
-5.77
7.43
18.70
27.12
32.49
35.08
35.39
33.97
31.27
27.71
23.72
19.68
15.99
12.86
10.33
8.30
6.62
5.23
4.24
3.88
4.40
5.92
8.27
11.04
13.63
15.48
16.25
15.88
14.59
12.78
10.85
9.07
7.50
6.07
4.63
3.09
1.42
-0.31
-2.06
-3.82
-5.60
-7.38
-9.12
-10.76
-12.30
-13.79
-15.39
-17.25
-19.45
-21.87
-24.28
-26.36
-27.95
-29.07
-30.04
-31.30
-33.35
-36.49
-40.63
-45.25
-49.29
-51.47
-50.57
-45.87
-37.36
-25.86
-12.77
0.28
11.84
20.93
27.13
30.50
31.40
30.30
27.66
23.94
19.58
15.02
10.70
7.02
4.22
2.41
1.53
1.48
2.19
3.63
5.76
8.44
11.33
13.95
15.84
16.67
16.42
15.25
13.52
11.59
9.76
8.24
7.06
6.16
5.32
4.33
3.02
1.42
-0.31
-1.88
-3.03
-3.59
-3.63
-3.40
-3.28
-3.66
-4.72
-6.42
-8.40
-10.23
-11.57
-12.30
-12.62
-12.87
-13.44
-14.60
-16.41
-18.70
-21.01
-22.58
-22.49
-19.88
-14.25
-5.80
4.56
15.48
25.53
33.64
39.28
42.38
43.18
42.01
39.17
34.97
29.77
24.02
18.22
12.82
8.18
4.49
1.79
0.08
-0.74
-0.66
0.27
2.02
4.40
7.10
9.71
11.86
13.31
14.00
14.01
13.48
12.57
11.42
10.14
8.81
7.47
6.10
4.61
2.93
0.99
-1.20
-3.60
-6.15
-8.83
-11.58
-14.29
-16.82
-19.07
-21.08
-23.09
-25.54
-28.87
-33.33
-38.69
-44.15
-48.41
-49.98
-47.68
-40.99
-30.43
-17.35
-3.57
9.12
19.45
26.86
31.42
33.53
33.64
32.12
29.29
25.51
21.26
17.07
13.42
10.54
8.45
6.99
5.99
5.35
5.18
5.66
6.92
8.90
11.28
13.55
15.12
15.58
14.80
12.97
10.52
7.94
5.60
3.68
2.14
0.79
-0.61
-2.24
-4.25
-6.62
-9.27
-11.99
-14.57
-16.82
-18.70
-20.39
-22.21
-24.47
-27.35
-30.78
-34.43
-37.89
-40.79
-42.95
-44.48
-45.72
-47.22
-49.51
-52.92
-57.36
-62.10
-65.89
-67.20
-64.65
-57.47
-45.91
-31.14
-15.02
0.47
13.75
23.92
30.84
34.91
36.69
36.75
35.50
33.23
30.22
26.77
23.23
19.93
17.11
14.91
13.40
12.62
12.63
13.46
15.17
17.69
20.76
23.97
26.73
28.43
28.64
27.24
24.46
20.81
16.84
12.95
9.32
5.92
2.63
-0.61
-3.78
-6.82
-9.73
-12.58
-15.54
-18.81
-22.58
-26.98
-32.04
-37.65
-43.59
-49.46
-54.80
-59.19
-62.43
-64.58
-65.98
-67.04
-67.91
-68.34
-67.56
-64.45
-57.91
-47.30
-32.76
-15.33
3.32
21.21
36.63
48.51
56.54
61.08
62.89
62.71
61.13
58.45
54.80
50.32
45.23
39.85
34.44
29.24
24.37
19.97
16.23
13.41
11.76
11.36
12.11
13.59
15.32
16.85
17.90
18.42
18.55
18.51
18.42
18.29
17.95
17.21
15.90
14.02
11.73
9.35
7.18
5.40
3.96
2.64
1.06
-1.10
-3.98
-7.46
-11.20
-14.80
-17.93
-20.48
-22.65
-24.81
-27.42
-30.83
-35.22
-40.41
-45.82
-50.51
-53.30
-53.06
-48.97
-40.88
-29.38
-15.71
-1.49
11.67
22.47
30.18
34.64
36.20
35.51
33.36
30.48
27.39
24.36
21.45
18.62
15.88
13.38
11.42
10.50
11.07
13.44
17.52
22.83
28.51
33.56
37.10
38.65
38.23
36.31
33.66
31.09
29.17
28.11
27.64
27.15
25.93
23.43
19.46
14.25
8.30
2.17
-3.70
-9.09
-13.92
-18.17
-21.77
-24.63
-26.66
-27.94
-28.71
-29.35
-30.30
-31.92
-34.43
-37.78
-41.59
-45.13
-47.34
-47.00
-43.12
-35.22
-23.70
-9.78
4.70
17.92
28.52
35.87
40.08
41.64
41.13
39.01
35.60
31.22
26.24
21.11
16.22
11.84
8.04
4.87
2.35
0.58
-0.27
-0.10
1.05
3.00
5.38
7.80
9.81
11.05
11.22
10.21
8.02
4.87
1.08
-2.96
-6.92
-10.63
-14.07
-17.35
-20.59
-23.85
-27.00
-29.81
-32.05
-33.56
-34.36
-34.60
-34.48
-34.25
-34.20
-34.65
-36.00
-38.56
-42.32
-46.76
-50.74
-52.74
-51.28
-45.43
-35.19
-21.55
-6.24
8.75
21.75
31.68
38.18
41.51
42.25
41.09
38.61
35.29
31.49
27.53
23.65
20.05
16.84
14.08
11.83
10.22
9.49
9.89
11.51
14.22
17.59
20.92
23.52
24.88
24.79
23.46
21.28
18.75
16.19
13.71
11.22
8.54
5.63
2.54
-0.54
-3.44
-6.06
-8.44
-10.71
-13.01
-15.44
-18.04
-20.79
-23.57
-26.27
-28.77
-31.01
-33.05
-35.13
-37.60
-40.86
-45.11
-50.11
-55.06
-58.63
-59.33
-55.95
-48.02
-36.16
-21.89
-7.31
5.59
15.48
21.88
25.06
25.71
24.55
22.08
18.68
14.65
10.39
6.34
2.88
0.19
-1.75
-3.11
-4.00
-4.36
-3.98
-2.63
-0.25
2.91
6.34
9.44
11.70
12.84
12.85
11.90
10.25
8.15
5.82
3.48
1.40
-0.24
-1.32
-1.95
-2.43
-3.20
-4.64
-6.91
-9.81
-12.90
-15.64
-17.68
-19.00
-19.93
-21.01
-22.79
-25.60
-29.43
-33.89
-38.18
-41.20
-41.68
-38.57
-31.30
-20.14
-6.23
8.69
22.78
34.57
43.35
49.08
52.17
53.18
52.56
50.64
47.70
44.06
40.09
36.19
32.62
29.54
26.99
24.97
23.51
22.71
22.64
23.34
24.70
26.49
28.31
29.70
30.25
29.66
27.91
25.16
21.81
18.31
15.06
12.28
9.94
7.85
5.69
3.16
0.09
-3.53
-7.51
-11.57
-15.33
-18.50
-20.94
-22.77
-24.36
-26.30
-29.16
-33.25
-38.40
-43.82
-48.15
-49.81
-47.47
-40.58
-29.58
-15.91
-1.48
11.84
22.69
30.41
35.00
36.83
36.37
34.17
30.79
26.77
22.65
18.77
15.32
12.31
9.66
7.36
5.53
4.39
4.19
5.09
7.07
9.88
13.05
15.97
18.10
19.09
18.90
17.75
16.04
14.16
12.34
10.65
8.95
7.08
4.91
2.37
-0.44
-3.30
-5.98
-8.26
-10.11
-11.67
-13.22
-15.04
-17.29
-19.90
-22.67
-25.35
-27.74
-29.80
-31.60
-33.33
-35.27
-37.79
-41.21
-45.62
-50.60
-55.16
-57.83
-57.11
-52.05
-42.64
-29.98
-15.90
-2.34
9.16
17.85
23.66
26.95
28.14
27.55
25.35
21.71
16.89
11.29
5.41
-0.23
-5.19
-9.13
-11.90
-13.39
-13.60
-12.52
-10.20
-6.76
-2.48
2.12
6.45
9.90
12.11
13.04
13.01
12.49
11.97
11.75
11.87
12.18
12.40
12.29
11.68
10.54
9.01
7.24
5.41
3.57
1.68
-0.40
-2.83
-5.68
-8.92
-12.31
-15.55
-18.30
-20.38
-21.84
-23.05
-24.54
-26.84
-30.18
-34.29
-38.27
-40.78
-40.36
-35.90
-27.08
-14.54
0.22
15.29
28.91
39.85
47.58
52.25
54.29
54.29
52.81
50.36
47.40
44.32
41.40
38.76
36.38
34.26
32.48
31.21
30.69
31.08
32.36
34.29
36.50
38.48
39.68
39.69
38.34
35.76
32.42
28.91
25.76
23.19
21.06
18.91
16.13
12.21
6.91
0.34
-7.06
-14.64
-21.65
-27.42
-31.45
-33.47
-33.50
-31.90
-29.39
-26.93
-25.56
-26.07
-28.62
-32.59
-36.69
-39.30
-38.98
-34.97
-27.40
-17.24
-5.98
4.74
13.57
19.66
22.75
23.17
21.59
18.80
15.52
12.23
9.14
6.28
3.61
1.15
-0.87
-2.10
-2.14
-0.76
1.92
5.41
8.90
11.62
13.08
13.20
12.30
10.84
9.23
7.65
6.01
4.13
1.78
-1.08
-4.33
-7.69
-10.80
-13.37
-15.27
-16.63
-17.76
-19.11
-21.03
-23.69
-27.01
-30.66
-34.28
-37.56
-40.42
-42.94
-45.39
-48.08
-51.28
-55.03
-59.10
-62.83
-65.24
-65.22
-61.81
-54.63
-44.00
-30.96
-17.04
-3.77
7.62
16.51
22.86
27.03
29.55
30.91
31.41
31.19
30.31
28.87
27.08
25.34
24.08
23.71
24.45
26.28
29.01
32.32
35.83
39.14
41.88
43.72
44.46
44.16
43.15
41.93
40.91
40.21
39.50
38.21
35.80
32.00
26.91
20.83
14.08
6.88
-0.58
-8.01
-14.91
-20.75
-25.24
-28.58
-31.50
-34.95
-39.61
-45.50
-51.81
-57.08
-59.72
-58.46
-52.77
-43.07
-30.56
-16.89
-3.73
7.68
16.69
23.16
27.29
29.29
29.35
27.69
24.68
20.94
17.21
14.17
12.15
11.12
10.75
10.63
10.51
10.37
10.34
10.56
11.08
11.81
12.64
13.43
14.10
14.63
15.00
15.28
15.54
15.84
16.17
16.31
15.90
14.37
11.21
6.12
-0.84
-9.16
-18.09
-26.80
-34.68
-41.52
-47.53
-53.19
-59.01
-65.32
-72.03
-78.61
-84.07
-87.15
-86.60
-81.60
-71.99
-58.55
-42.81
-26.71
-11.98
0.23
9.61
16.47
21.40
24.91
27.21
28.33
28.37
27.57
26.36
25.18
24.37
24.05
24.24
24.88
25.98
27.56
29.59
31.85
33.98
35.57
36.25
35.87
34.44
32.14
29.15
25.62
21.67
17.40
12.89
8.21
3.43
-1.44
-6.34
-11.23
-16.05
-20.79
-25.47
-30.16
-34.76
-38.86
-41.66
-42.12
-39.26
-32.68
-22.79
-10.86
1.34
12.13
20.36
25.67
28.36
29.13
28.63
27.28
25.22
22.48
19.07
15.24
11.33
7.74
4.79
2.60
1.15
0.34
0.09
0.34
1.09
2.30
3.77
5.25
6.44
7.07
7.01
6.23
4.77
2.73
0.21
-2.64
-5.64
-8.65
-11.54
-14.20
-16.64
-18.87
-20.96
-23.11
-25.62
-28.79
-32.72
-37.03
-40.70
-42.28
-40.31
-33.99
-23.56
-10.43
3.38
15.84
25.56
32.06
35.64
36.90
36.45
34.64
31.65
27.75
23.35
19.03
15.31
12.51
10.70
9.71
9.33
9.48
10.17
11.43
13.25
15.42
17.61
19.43
20.49
20.52
19.44
17.39
14.70
11.87
9.36
7.39
5.87
4.42
2.63
0.32
-2.43
-5.24
-7.70
-9.61
-11.04
-12.25
-13.54
-15.12
-17.08
-19.42
-22.14
-25.17
-28.33
-31.35
-33.92
-35.86
-37.27
-38.57
-40.33
-43.09
-47.02
-51.72
-56.19
-59.00
-58.72
-54.36
-45.79
-33.86
-20.16
-6.56
5.34
14.54
20.74
24.17
25.33
24.73
22.87
20.20
17.21
14.28
11.70
9.56
7.88
6.58
5.65
5.20
5.44
6.56
8.66
11.69
15.33
19.12
22.46
24.84
25.92
25.69
24.45
22.69
20.89
19.38
18.20
17.20
16.14
14.83
13.21
11.30
9.22
7.08
5.00
3.09
1.48
0.22
-0.70
-1.42
-2.14
-3.03
-4.10
-5.24
-6.21
-6.87
-7.25
-7.62
-8.39
-9.98
-12.62
-16.14
-19.92
-22.88
-23.73
-21.34
-15.19
-5.64
6.07
18.18
28.96
37.23
42.58
45.25
45.79
44.68
42.23
38.64
34.13
29.09
24.03
19.41
15.55
12.55
10.38
8.96
8.26
8.31
9.15
10.71
12.84
15.28
17.66
19.59
20.76
20.95
20.19
18.69
16.79
14.85
13.07
11.54
10.13
8.68
7.02
5.07
2.88
0.59
-1.67
-3.79
-5.77
-7.72
-9.78
-12.08
-14.66
-17.48
-20.37
-23.12
-25.50
-27.34
-28.54
-29.16
-29.47
-29.92
-31.01
-33.19
-36.53
-40.57
-44.30
-46.31
-45.31
-40.50
-31.97
-20.64
-8.09
4.02
14.31
22.01
26.89
29.21
29.40
27.91
25.16
21.55
17.50
13.42
9.68
6.54
4.14
2.50
1.63
1.52
2.18
3.61
5.76
8.45
11.40
14.26
16.70
18.42
19.28
19.25
18.42
16.99
15.20
13.31
11.50
9.82
8.26
6.69
4.99
3.06
0.91
-1.38
-3.66
-5.80
-7.70
-9.41
-11.10
-12.99
-15.32
-18.19
-21.51
-25.02
-28.37
-31.26
-33.54
-35.22
-36.55
-37.88
-39.62
-42.10
-45.42
-49.31
-53.06
-55.55
-55.56
-52.09
-44.79
-34.14
-21.41
-8.30
3.56
12.99
19.50
23.21
24.56
24.08
22.22
19.34
15.77
11.85
7.96
4.42
1.44
-0.84
-2.36
-3.09
-2.95
-1.91
0.06
2.86
6.23
9.77
12.99
15.45
16.87
17.23
16.72
15.73
14.59
13.52
12.56
11.58
10.44
9.07
7.49
5.80
4.16
2.72
1.58
0.75
0.15
-0.42
-1.21
-2.37
-3.93
-5.71
-7.37
-8.61
-9.32
-9.61
-9.87
-10.55
-12.00
-14.34
-17.29
-20.19
-22.06
-21.75
-18.26
-11.13
-0.70
11.84
24.75
36.20
44.82
50.03
52.07
51.66
49.65
46.65
43.02
38.88
34.36
29.68
25.11
20.91
17.24
14.16
11.70
9.86
8.73
8.40
8.84
9.87
11.20
12.49
13.47
14.04
14.22
14.03
13.44
12.26
10.25
7.19
3.10
-1.75
-6.86
-11.63
-15.63
-18.70
-21.01
-22.98
-25.00
-27.33
-29.92
-32.45
-34.52
-35.82
-36.32
-36.25
-36.06
-36.26
-37.20
-38.83
-40.71
-41.86
-41.13
-37.39
-30.08
-19.41
-6.36
7.56
20.81
32.23
41.28
47.94
52.49
55.19
56.20
55.61
53.55
50.31
46.26
41.81
37.29
32.90
28.78
25.09
22.07
19.94
18.87
18.84
19.51
20.35
20.72
20.12
18.32
15.43
11.78
7.81
3.91
0.36
-2.70
-5.20
-7.16
-8.72
-10.12
-11.59
-13.29
-15.20
-17.15
-18.93
-20.51
-22.10
-24.02
-26.54
-29.62
-32.97
-36.09
-38.58
-40.24
-41.22
-41.82
-42.43
-43.41
-44.97
-47.19
-49.92
-52.69
-54.69
-54.83
-52.07
-45.67
-35.69
-22.94
-8.97
4.45
15.75
23.99
28.95
30.96
30.67
28.66
25.43
21.35
16.79
12.19
7.96
4.39
1.58
-0.56
-2.19
-3.33
-3.86
-3.51
-2.09
0.32
3.37
6.39
8.75
10.04
10.22
9.62
8.71
7.87
7.22
6.66
5.98
4.98
3.62
2.02
0.30
-1.43
-3.11
-4.71
-6.24
-7.74
-9.28
-11.02
-13.07
-15.45
-18.02
-20.47
-22.44
-23.72
-24.39
-24.81
-25.53
-27.10
-29.81
-33.59
-37.92
-41.90
-44.43
-44.39
-40.96
-33.83
-23.39
-10.68
2.84
15.62
26.39
34.44
39.64
42.35
43.16
42.62
41.17
39.05
36.35
33.19
29.71
26.19
23.01
20.57
19.18
18.96
19.80
21.38
23.32
25.28
27.02
28.43
29.42
29.81
29.31
27.66
24.78
20.94
16.70
12.71
9.44
7.03
5.19
3.47
1.46
-1.05
-4.02
-7.27
-10.54
-13.62
-16.40
-18.80
-20.86
-22.75
-24.78
-27.30
-30.59
-34.72
-39.37
-43.85
-47.07
-47.83
-45.10
-38.42
-28.13
-15.40
-1.98
10.33
20.16
26.84
30.42
31.44
30.57
28.44
25.51
22.12
18.59
15.20
12.23
9.82
8.01
6.74
5.89
5.42
5.37
5.87
7.07
8.98
11.38
13.79
15.58
16.20
15.43
13.43
10.71
7.91
5.50
3.63
2.13
0.64
-1.22
-3.69
-6.78
-10.25
-13.74
-16.89
-19.51
-21.68
-23.76
-26.28
-29.70
-34.20
-39.46
-44.62
-48.52
-49.88
-47.80
-41.97
-32.79
-21.28
-8.80
3.27
13.82
22.11
27.80
30.91
31.68
30.59
28.14
24.89
21.28
17.64
14.17
10.99
8.22
6.00
4.47
3.73
3.75
4.36
5.23
6.03
6.50
6.56
6.29
5.86
5.38
4.86
4.19
3.19
1.77
-0.02
-2.04
-4.13
-6.13
-7.98
-9.67
-11.19
-12.56
-13.88
-15.28
-16.90
-18.84
-20.99
-23.17
-25.14
-26.77
-28.14
-29.50
-31.24
-33.70
-37.06
-41.25
-45.74
-49.61
-51.65
-50.61
-45.65
-36.67
-24.44
-10.42
3.61
16.11
26.02
32.91
36.95
38.61
38.55
37.37
35.56
33.45
31.21
28.93
26.70
24.65
23.01
22.09
22.18
23.52
26.13
29.83
34.16
38.51
42.25
44.85
46.08
45.99
44.85
43.00
40.71
38.18
35.51
32.75
29.99
27.29
24.65
22.01
19.28
16.37
13.20
9.80
6.28
2.77
-0.56
-3.60
-6.36
-8.98
-11.69
-14.82
-18.63
-23.32
-28.89
-35.01
-41.04
-45.94
-48.45
-47.40
-42.14
-32.85
-20.67
-7.34
5.24
15.66
23.26
28.09
30.62
31.43
30.91
29.33
26.88
23.82
20.42
16.98
13.75
11.01
8.98
7.90
7.92
8.97
10.79
12.99
15.18
17.07
18.48
19.30
19.46
18.88
17.58
15.68
13.43
11.14
9.05
7.24
5.66
4.16
2.55
0.72
-1.40
-3.72
-6.12
-8.45
-10.59
-12.51
-14.32
-16.15
-18.14
-20.37
-22.84
-25.48
-28.17
-30.76
-33.11
-35.09
-36.66
-37.96
-39.30
-41.08
-43.66
-47.06
-50.87
-54.12
-55.54
-53.83
-48.18
-38.54
-25.80
-11.57
2.29
14.17
23.09
28.83
31.73
32.41
31.47
29.32
26.20
22.29
17.85
13.26
8.99
5.49
3.09
1.86
1.69
2.36
3.63
5.36
7.46
9.78
12.07
13.95
15.07
15.25
14.56
13.34
11.94
10.68
9.62
8.65
7.56
6.20
4.55
2.67
0.70
-1.29
-3.23
-5.13
-6.99
-8.76
-10.33
-11.61
-12.61
-13.46
-14.38
-15.62
-17.30
-19.33
-21.41
-23.19
-24.48
-25.32
-26.02
-27.05
-28.81
-31.48
-34.86
-38.29
-40.81
-41.26
-38.63
-32.35
-22.55
-10.09
3.61
16.95
28.57
37.58
43.72
47.17
48.37
47.86
46.14
43.66
40.76
37.68
34.63
31.72
29.15
27.11
25.87
25.66
26.66
28.90
32.29
36.48
40.87
44.71
47.18
47.63
45.81
42.01
36.91
31.37
26.08
21.38
17.30
13.70
10.44
7.56
5.16
3.24
1.68
0.13
-1.84
-4.57
-8.20
-12.56
-17.26
-21.79
-25.72
-28.83
-31.19
-33.08
-34.90
-37.06
-39.81
-43.20
-46.91
-50.22
-52.11
-51.45
-47.39
-39.70
-28.95
-16.41
-3.78
7.41
16.10
21.87
24.89
25.65
24.77
22.78
20.10
17.02
13.78
10.63
7.74
5.30
3.42
2.12
1.43
1.38
2.02
3.43
5.55
8.17
10.88
13.21
14.73
15.26
14.89
13.90
12.67
11.45
10.35
9.33
8.21
6.83
5.10
3.02
0.71
-1.68
-3.96
-6.00
-7.73
-9.16
-10.40
-11.57
-12.88
-14.53
-16.69
-19.42
-22.63
-26.05
-29.29
-31.98
-33.87
-34.99
-35.59
-36.15
-37.25
-39.31
-42.47
-46.28
-49.71
-51.34
-49.72
-43.91
-33.91
-20.79
-6.43
7.07
18.02
25.54
29.66
30.95
30.20
28.08
24.97
21.15
16.91
12.55
8.42
4.74
1.53
-1.25
-3.62
-5.42
-6.33
-6.04
-4.48
-1.96
0.83
3.11
4.19
3.76
1.97
-0.72
-3.69
-6.39
-8.49
-9.97
-11.07
-12.15
-13.58
-15.56
-18.06
-20.85
-23.59
-25.93
-27.72
-28.99
-29.91
-30.73
-31.62
-32.62
-33.58
-34.28
-34.52
-34.24
-33.56
-32.79
-32.30
-32.46
-33.42
-35.01
-36.69
-37.56
-36.54
-32.63
-25.25
-14.50
-1.17
13.41
27.65
40.15
49.95
56.68
60.50
61.94
61.72
60.54
59.06
57.77
56.98
56.77
56.92
57.04
56.63
55.29
52.84
49.43
45.56
41.89
39.04
37.32
36.58
36.28
35.65
34.03
31.11
27.02
22.17
17.10
12.21
7.68
3.50
-0.41
-4.15
-7.73
-11.15
-14.39
-17.38
-20.08
-22.48
-24.68
-26.85
-29.29
-32.25
-35.90
-40.20
-44.72
-48.73
-51.22
-51.05
-47.39
-39.97
-29.34
-16.79
-4.02
7.30
16.01
21.64
24.35
24.70
23.33
20.79
17.48
13.67
9.58
5.50
1.67
-1.56
-3.93
-5.28
-5.54
-4.80
-3.27
-1.17
1.27
3.85
6.36
8.57
10.20
10.97
10.70
9.34
7.02
4.02
0.69
-2.63
-5.69
-8.37
-10.70
-12.88
-15.22
-18.06
-21.69
-26.17
-31.19
-35.99
-39.45
-40.31
-37.59
-31.05
-21.25
-9.53
2.44
13.16
21.71
27.78
31.58
33.52
33.99
33.24
31.48
28.94
25.89
22.64
19.42
16.37
13.50
10.83
8.40
6.35
4.88
4.19
4.33
5.19
6.47
7.75
8.65
8.87
8.34
7.13
5.45
3.45
1.26
-1.07
-3.50
-5.92
-8.17
-10.10
-11.72
-13.22
-15.06
-17.78
-21.86
-27.37
-33.80
-40.08
-44.70
-46.17
-43.47
-36.43
-25.86
-13.32
-0.63
10.64
19.53
25.71
29.38
30.94
30.84
29.47
27.23
24.53
21.74
19.17
16.99
15.27
14.01
13.26
13.11
13.69
15.00
16.92
19.16
21.33
22.97
23.71
23.30
21.73
19.17
15.93
12.33
8.63
4.96
1.31
-2.36
-6.11
-9.95
-13.87
-17.79
-21.60
-25.11
-28.05
-30.19
-31.47
-32.10
-32.64
-33.82
-36.21
-39.95
-44.49
-48.75
-51.28
-50.76
-46.36
-38.03
-26.48
-13.09
0.51
12.73
22.38
28.83
32.01
32.28
30.23
26.48
21.59
16.01
10.13
4.35
-0.97
-5.46
-8.83
-10.84
-11.42
-10.55
-8.38
-5.16
-1.23
2.98
7.05
10.58
13.32
15.19
16.26
16.70
16.69
16.34
15.63
14.48
12.75
10.42
7.62
4.59
1.69
-0.84
-2.85
-4.41
-5.75
-7.21
-9.07
-11.47
-14.24
-17.03
-19.40
-21.03
-21.89
-22.26
-22.63
-23.51
-25.25
-27.91
-31.20
-34.46
-36.74
-36.88
-33.82
-26.92
-16.28
-2.82
11.83
25.81
37.51
45.98
51.05
53.15
52.97
51.16
48.17
44.28
39.75
34.90
30.15
25.96
22.66
20.40
19.17
18.83
19.29
20.47
22.27
24.49
26.81
28.77
29.96
30.11
29.18
27.37
24.96
22.27
19.49
16.72
13.98
11.30
8.65
6.02
3.34
0.48
-2.67
-6.21
-10.15
-14.33
-18.47
-22.23
-25.32
-27.58
-29.11
-30.30
-31.73
-34.01
-37.51
-42.15
-47.15
-51.21
-52.78
-50.57
-44.02
-33.52
-20.37
-6.28
7.08
18.51
27.40
33.67
37.45
39.03
38.66
36.69
33.55
29.70
25.61
21.65
18.04
14.90
12.29
10.31
9.04
8.60
9.04
10.32
12.22
14.40
16.39
17.75
18.17
17.55
16.04
13.91
11.50
9.07
6.81
4.81
3.10
1.71
0.60
-0.33
-1.24
-2.33
-3.77
-5.57
-7.66
-9.86
-12.05
-14.23
-16.52
-19.10
-22.03
-25.21
-28.30
-30.90
-32.74
-33.86
-34.65
-35.76
-37.86
-41.35
-46.14
-51.52
-56.32
-59.14
-58.75
-54.50
-46.49
-35.58
-23.15
-10.76
0.22
8.85
14.70
17.82
18.58
17.50
15.12
11.97
8.48
5.06
2.04
-0.32
-1.91
-2.66
-2.64
-1.90
-0.49
1.53
4.06
6.92
9.75
12.14
13.73
14.35
14.04
13.06
11.76
10.47
9.39
8.54
7.78
6.92
5.76
4.21
2.34
0.40
-1.33
-2.58
-3.28
-3.52
-3.55
-3.66
-4.06
-4.77
-5.64
-6.45
-6.92
-6.94
-6.55
-6.07
-6.01
-6.97
-9.37
-13.15
-17.57
-21.27
-22.65
-20.39
-14.01
-4.11
7.75
19.66
29.90
37.50
42.31
44.75
45.43
44.78
42.96
40.01
36.08
31.55
26.91
22.71
19.21
16.51
14.52
13.18
12.52
12.65
13.63
15.35
17.44
19.40
20.68
20.92
19.98
18.02
15.34
12.32
9.28
6.45
3.85
1.43
-0.90
-3.22
-5.60
-8.05
-10.58
-13.17
-15.78
-18.24
-20.40
-22.09
-23.20
-23.75
-24.00
-24.38
-25.44
-27.62
-31.04
-35.24
-39.20
-41.60
-41.25
-37.52
-30.57
-21.29
-11.01
-1.10
7.38
13.76
17.85
19.71
19.65
18.06
15.39
12.06
8.43
4.78
1.34
-1.70
-4.13
-5.78
-6.51
-6.19
-4.76
-2.23
1.26
5.36
9.57
13.30
16.10
17.75
18.37
18.24
17.68
16.88
15.81
14.34
12.36
9.95
7.37
4.97
3.06
1.69
0.74
-0.10
-1.18
-2.71
-4.69
-6.82
-8.68
-9.79
-9.88
-9.02
-7.65
-6.50
-6.40
-8.03
-11.72
-17.29
-23.91
-30.20
-34.48
-35.19
-31.44
-23.35
-12.16
0.16
11.54
20.35
25.86
28.14
27.82
25.66
22.37
18.47
14.35
10.35
6.70
3.53
0.82
-1.50
-3.52
-5.21
-6.40
-6.86
-6.40
-4.94
-2.62
0.21
3.16
5.84
8.00
9.54
10.45
10.81
10.75
10.35
9.71
8.90
8.01
7.10
6.24
5.47
4.77
4.06
3.18
1.99
0.44
-1.40
-3.34
-5.15
-6.70
-8.00
-9.21
-10.61
-12.58
-15.42
-19.27
-23.83
-28.32
-31.53
-32.17
-29.26
-22.64
-13.02
-1.80
9.36
19.09
26.50
31.27
33.54
33.65
32.03
29.15
25.50
21.53
17.63
14.07
10.98
8.40
6.28
4.61
3.40
2.72
2.65
3.29
4.61
6.49
8.66
10.80
12.58
13.78
14.24
13.86
12.65
10.68
8.14
5.33
2.61
0.27
-1.57
-3.09
-4.61
-6.51
-9.04
-12.13
-15.46
-18.53
-20.94
-22.56
-23.55
-24.33
-25.43
-27.32
-30.25
-34.17
-38.59
-42.63
-45.11
-44.84
-40.95
-33.28
-22.54
-10.11
2.29
13.07
21.25
26.47
28.94
29.21
27.88
25.50
22.51
19.26
16.08
13.19
10.76
8.82
7.31
6.11
5.14
4.45
4.24
4.74
6.09
8.20
10.68
12.94
14.41
14.74
13.91
12.20
10.06
7.93
6.09
4.64
3.46
2.29
0.92
-0.79
-2.79
-4.91
-6.90
-8.63
-10.07
-11.42
-12.93
-14.81
-17.11
-19.73
-22.39
-24.78
-26.66
-27.94
-28.76
-29.50
-30.69
-32.87
-36.32
-40.85
-45.65
-49.44
-50.74
-48.34
-41.73
-31.34
-18.47
-4.90
7.59
17.73
24.89
29.10
30.73
30.29
28.28
25.18
21.51
17.74
14.27
11.27
8.66
6.24
3.83
1.49
-0.46
-1.57
-1.43
0.06
2.63
5.70
8.55
10.58
11.44
11.13
9.95
8.33
6.70
5.33
4.29
3.46
2.61
1.49
-0.06
-2.06
-4.36
-6.67
-8.69
-10.27
-11.42
-12.40
-13.51
-14.96
-16.74
-18.63
-20.29
-21.48
-22.15
-22.47
-22.76
-23.36
-24.59
-26.64
-29.51
-32.99
-36.50
-39.11
-39.70
-37.24
-31.16
-21.64
-9.62
3.44
15.99
26.78
35.07
40.62
43.60
44.38
43.44
41.25
38.29
34.96
31.56
28.27
25.20
22.46
20.24
18.79
18.35
19.00
20.64
22.99
25.71
28.44
30.90
32.87
34.20
34.73
34.40
33.26
31.43
29.12
26.51
23.71
20.77
17.71
14.54
11.38
8.33
5.48
2.81
0.22
-2.47
-5.37
-8.48
-11.67
-14.77
-17.57
-19.98
-21.98
-23.73
-25.54
-27.85
-31.03
-35.17
-39.88
-44.19
-46.76
-46.24
-41.79
-33.45
-22.14
-9.43
3.02
13.78
22.02
27.49
30.32
30.90
29.68
27.16
23.86
20.27
16.83
13.82
11.32
9.21
7.36
5.64
4.14
3.10
2.89
3.76
5.70
8.35
11.13
13.37
14.67
14.92
14.37
13.45
12.50
11.67
10.85
9.79
8.19
5.90
3.02
-0.18
-3.29
-6.00
-8.08
-9.60
-10.77
-11.93
-13.35
-15.16
-17.36
-19.80
-22.30
-24.69
-26.86
-28.73
-30.34
-31.82
-33.47
-35.72
-38.80
-42.60
-46.38
-48.88
-48.65
-44.59
-36.47
-25.07
-11.99
0.94
12.22
20.96
26.97
30.41
31.61
30.86
28.48
24.90
20.65
16.31
12.30
8.84
5.87
3.23
0.86
-1.10
-2.35
-2.53
-1.48
0.63
3.33
5.95
7.87
8.72
8.55
7.63
6.40
5.19
4.14
3.16
2.10
0.79
-0.84
-2.74
-4.81
-6.91
-8.88
-10.57
-11.92
-12.96
-13.91
-15.09
-16.76
-19.05
-21.83
-24.77
-27.49
-29.67
-31.17
-32.14
-32.88
-33.86
-35.55
-38.29
-41.96
-45.89
-48.86
-49.37
-46.15
-38.64
-27.25
-13.35
1.17
14.41
24.98
32.17
36.03
37.08
36.11
33.91
31.08
28.00
24.88
21.81
18.81
16.01
13.58
11.75
10.73
10.65
11.54
13.26
15.60
18.24
20.85
23.14
24.92
26.13
26.78
26.94
26.60
25.76
24.40
22.60
20.52
18.39
16.39
14.59
12.94
11.33
9.57
7.56
5.19
2.39
-0.85
-4.37
-7.86
-10.92
-13.24
-14.77
-15.87
-17.24
-19.58
-23.33
-28.36
-33.84
-38.42
-40.57
-39.05
-33.32
-23.73
-11.45
1.85
14.43
24.92
32.56
37.18
39.03
38.64
36.57
33.40
29.66
25.81
22.15
18.88
16.01
13.48
11.25
9.37
8.05
7.52
7.96
9.39
11.56
14.04
16.32
17.95
18.68
18.48
17.55
16.13
14.51
12.90
11.42
10.16
9.11
8.20
7.31
6.25
4.81
2.96
0.76
-1.58
-3.76
-5.62
-7.13
-8.43
-9.78
-11.41
-13.39
-15.67
-18.10
-20.46
-22.67
-24.68
-26.56
-28.42
-30.46
-32.89
-35.93
-39.66
-43.83
-47.78
-50.47
-50.72
-47.57
-40.66
-30.39
-17.86
-4.54
8.08
18.84
27.03
32.43
35.17
35.64
34.31
31.71
28.32
24.56
20.78
17.24
14.17
11.69
9.92
8.90
8.68
9.21
10.40
12.08
14.01
15.91
17.50
18.55
18.90
18.54
17.53
16.07
14.40
12.76
11.29
10.00
8.75
7.36
5.62
3.43
0.81
-2.09
-5.09
-7.98
-10.61
-12.94
-15.04
-17.06
-19.18
-21.51
-24.03
-26.64
-29.13
-31.36
-33.28
-34.99
-36.74
-38.86
-41.64
-45.27
-49.64
-54.24
-58.17
-60.21
-59.18
-54.30
-45.58
-33.88
-20.72
-7.86
3.21
11.57
16.98
19.71
20.23
18.99
16.37
12.70
8.43
4.06
0.08
-3.19
-5.70
-7.67
-9.35
-10.85
-12.03
-12.55
-12.11
-10.59
-8.18
-5.32
-2.54
-0.24
1.38
2.38
2.95
3.38
3.87
4.58
5.52
6.59
7.61
8.44
9.01
9.38
9.72
10.20
10.93
11.82
12.62
12.94
12.45
11.04
8.86
6.38
4.15
2.63
1.96
1.91
1.92
1.38
-0.14
-2.57
-5.30
-7.29
-7.31
-4.35
2.09
11.82
24.00
37.30
50.26
61.55
70.14
75.47
77.42
76.22
72.37
66.53
59.43
51.75
44.15
37.19
31.23
26.39
22.59
19.57
17.04
14.84
12.98
11.58
10.79
10.60
10.80
11.07
11.06
10.55
9.49
7.97
6.16
4.21
2.21
0.16
-1.98
-4.25
-6.63
-9.01
-11.21
-13.06
-14.43
-15.39
-16.09
-16.86
-17.97
-19.57
-21.62
-23.85
-25.91
-27.52
-28.58
-29.31
-30.12
-31.51
-33.86
-37.21
-41.16
-44.86
-47.21
-47.07
-43.67
-36.82
-27.03
-15.40
-3.39
7.64
16.65
23.17
27.21
29.10
29.29
28.18
26.08
23.28
20.06
16.73
13.60
10.90
8.73
7.10
6.05
5.66
6.14
7.60
10.00
13.02
16.11
18.65
20.14
20.41
19.60
18.06
16.20
14.36
12.71
11.27
9.97
8.69
7.30
5.68
3.75
1.47
-1.07
-3.73
-6.23
-8.36
-9.99
-11.19
-12.22
-13.41
-15.01
-17.07
-19.42
-21.71
-23.62
-24.92
-25.66
-26.17
-26.96
-28.56
-31.28
-35.09
-39.44
-43.40
-45.78
-45.48
-41.84
-34.82
-25.09
-13.84
-2.46
7.76
15.93
21.57
24.62
25.32
24.12
21.57
18.24
14.64
11.12
7.86
4.89
2.21
-0.14
-2.00
-3.15
-3.40
-2.71
-1.10
1.23
4.07
7.11
10.02
12.42
13.95
14.40
13.80
12.38
10.54
8.71
7.19
6.05
5.15
4.25
3.17
1.88
0.50
-0.82
-2.03
-3.21
-4.57
-6.30
-8.40
-10.77
-13.19
-15.41
-17.32
-18.89
-20.22
-21.47
-22.90
-24.75
-27.28
-30.53
-34.13
-37.27
-38.73
-37.27
-32.05
-23.07
-11.21
1.95
14.62
25.35
33.34
38.49
41.13
41.80
40.93
38.89
35.99
32.63
29.21
26.09
23.52
21.55
20.11
19.16
18.69
18.77
19.48
20.82
22.68
24.76
26.68
28.05
28.52
27.88
26.13
23.46
20.27
16.99
14.04
11.58
9.57
7.72
5.68
3.10
-0.14
-3.95
-8.04
-11.95
-15.21
-17.52
-18.84
-19.46
-19.95
-21.02
-23.25
-26.85
-31.41
-35.99
-39.26
-39.96
-37.24
-31.01
-21.96
-11.34
-0.58
9.04
16.70
22.05
25.20
26.44
26.18
24.81
22.65
19.99
17.10
14.22
11.58
9.34
7.60
6.37
5.63
5.35
5.57
6.33
7.63
9.35
11.22
12.87
13.92
14.09
13.33
11.78
9.67
7.26
4.69
2.03
-0.67
-3.31
-5.71
-7.66
-9.03
-9.86
-10.40
-10.99
-11.92
-13.38
-15.37
-17.76
-20.35
-22.89
-25.18
-27.00
-28.34
-29.34
-30.44
-32.15
-34.87
-38.59
-42.69
-46.02
-47.17
-44.99
-39.00
-29.65
-18.11
-6.00
5.20
14.40
21.07
25.13
26.80
26.42
24.45
21.38
17.75
14.03
10.54
7.45
4.78
2.52
0.72
-0.52
-1.05
-0.76
0.32
2.01
4.05
6.11
7.88
9.11
9.62
9.32
8.23
6.50
4.38
2.24
0.36
-1.10
-2.23
-3.27
-4.49
-6.04
-7.83
-9.59
-10.98
-11.84
-12.25
-12.52
-13.04
-14.11
-15.81
-18.00
-20.35
-22.53
-24.30
-25.56
-26.42
-27.10
-27.97
-29.39
-31.62
-34.65
-38.05
-40.93
-42.11
-40.46
-35.23
-26.44
-14.87
-1.97
10.61
21.41
29.50
34.61
37.01
37.23
35.87
33.43
30.32
26.91
23.58
20.68
18.43
16.92
16.07
15.76
15.94
16.68
18.09
20.20
22.86
25.67
28.18
30.01
30.91
30.86
29.93
28.21
25.82
22.83
19.37
15.58
11.66
7.82
4.27
1.15
-1.50
-3.76
-5.82
-7.93
-10.30
-12.94
-15.68
-18.19
-20.23
-21.72
-22.88
-24.16
-26.02
-28.76
-32.29
-36.09
-39.24
-40.65
-39.30
-34.58
-26.50
-15.75
-3.51
8.83
19.98
29.01
35.45
39.17
40.33
39.26
36.37
32.21
27.40
22.58
18.27
14.78
12.16
10.29
8.95
8.02
7.44
7.24
7.44
7.96
8.70
9.52
10.31
11.05
11.73
12.34
12.82
13.01
12.72
11.79
10.15
7.83
4.99
1.85
-1.34
-4.35
-7.04
-9.38
-11.41
-13.28
-15.13
-17.09
-19.21
-21.44
-23.64
-25.62
-27.20
-28.37
-29.30
-30.43
-32.25
-35.17
-39.24
-43.94
-48.20
-50.67
-50.09
-45.78
-37.87
-27.33
-15.67
-4.50
4.87
11.70
15.79
17.38
16.89
14.77
11.47
7.43
3.06
-1.27
-5.28
-8.81
-11.82
-14.31
-16.26
-17.54
-17.92
-17.19
-15.24
-12.27
-8.78
-5.45
-2.85
-1.27
-0.54
-0.21
0.20
0.94
1.90
2.73
3.07
2.75
1.89
0.80
-0.19
-0.92
-1.39
-1.70
-2.05
-2.55
-3.30
-4.32
-5.56
-6.92
-8.27
-9.50
-10.53
-11.44
-12.40
-13.67
-15.56
-18.23
-21.56
-25.00
-27.63
-28.30
-26.03
-20.30
-11.29
0.11
12.54
24.50
34.79
42.65
47.88
50.71
51.54
50.80
48.80
45.73
41.81
37.35
32.76
28.50
24.89
22.04
19.90
18.30
17.22
16.72
16.97
18.03
19.68
21.48
22.84
23.31
22.71
21.20
19.16
17.03
15.12
13.56
12.34
11.27
10.12
8.71
6.92
4.83
2.65
0.71
-0.68
-1.42
-1.66
-1.81
-2.45
-4.05
-6.89
-10.90
-15.57
-19.97
-22.88
-23.05
-19.60
-12.40
-2.24
9.34
20.46
29.52
35.59
38.57
38.94
37.40
34.58
30.97
26.90
22.67
18.53
14.71
11.23
8.06
5.11
2.39
0.08
-1.57
-2.30
-1.98
-0.66
1.38
3.74
5.92
7.45
7.97
7.32
5.67
3.41
1.09
-0.85
-2.25
-3.24
-4.16
-5.35
-6.97
-8.96
-11.07
-13.03
-14.63
-15.83
-16.75
-17.62
-18.69
-20.17
-22.08
-24.31
-26.64
-28.79
-30.66
-32.26
-33.78
-35.45
-37.49
-40.03
-43.02
-46.13
-48.71
-49.81
-48.41
-43.80
-35.85
-25.23
-13.28
-1.57
8.51
16.08
20.91
23.25
23.59
22.47
20.32
17.50
14.25
10.84
7.47
4.35
1.73
-0.16
-1.14
-1.10
-0.08
1.75
4.13
6.78
9.42
11.81
13.71
14.94
15.34
14.93
13.88
12.49
11.04
9.78
8.72
7.70
6.47
4.83
2.72
0.31
-2.08
-4.13
-5.66
-6.74
-7.71
-8.91
-10.58
-12.66
-14.85
-16.80
-18.25
-19.21
-19.99
-20.98
-22.51
-24.74
-27.52
-30.53
-33.22
-34.94
-34.95
-32.58
-27.37
-19.29
-8.87
2.81
14.33
24.29
31.66
36.08
37.80
37.51
36.03
34.01
31.78
29.42
26.88
24.20
21.52
19.15
17.44
16.66
16.91
18.12
20.04
22.33
24.61
26.57
28.01
28.86
29.12
28.86
28.08
26.79
24.99
22.76
20.22
17.58
14.99
12.59
10.32
8.06
5.66
2.98
0.01
-3.16
-6.35
-9.38
-12.12
-14.51
-16.62
-18.63
-20.77
-23.34
-26.54
-30.34
-34.40
-37.96
-40.03
-39.62
-36.09
-29.37
-20.12
-9.44
1.31
10.89
18.40
23.41
25.91
26.23
24.87
22.38
19.24
15.82
12.43
9.31
6.68
4.71
3.45
2.90
2.93
3.42
4.31
5.57
7.16
8.96
10.71
12.11
12.88
12.90
12.25
11.13
9.82
8.46
7.11
5.72
4.25
2.68
1.08
-0.42
-1.69
-2.65
-3.32
-3.74
-4.07
-4.47
-5.11
-6.14
-7.64
-9.61
-11.95
-14.49
-17.00
-19.21
-20.92
-22.07
-22.85
-23.68
-25.13
-27.59
-31.14
-35.31
-39.11
-41.27
-40.60
-36.38
-28.66
-18.26
-6.62
4.62
14.04
20.79
24.66
25.96
25.27
23.22
20.30
16.87
13.19
9.47
5.91
2.62
-0.29
-2.74
-4.68
-6.00
-6.59
-6.33
-5.17
