1698235663.00
64.000000
-0.00
-0.00
-0.00
-0.00
-0.00
-0.00
-0.00
-0.00
-0.00
-0.00
0.00
0.01
0.01
-0.00
-0.03
-0.05
-0.05
0.00
0.13
0.36
0.66
1.01
1.37
1.72
2.06
2.40
2.79
3.24
3.80
4.42
5.06
5.66
6.20
6.68
7.15
7.68
8.31
9.14
10.09
11.04
11.88
12.56
13.14
13.76
14.65
15.96
17.91
20.32
22.90
25.38
27.58
29.57
31.68
34.32
37.81
42.54
48.15
54.10
59.83
64.97
69.58
74.14
79.34
85.71
93.76
103.00
112.62
121.73
129.77
136.75
143.30
150.75
157.77
166.64
177.95
191.79
206.97
220.57
228.25
225.36
208.53
176.87
132.76
80.05
23.07
-34.94
-92.44
-149.16
-205.23
-260.37
-313.74
-363.87
-409.84
-450.91
-486.51
-515.73
-537.20
-549.18
-549.92
-538.35
-514.27
-478.85
-434.18
-382.87
-327.52
-270.37
-213.15
-157.16
-103.46
-52.93
-6.57
34.79
70.53
100.40
124.56
143.50
157.85
168.26
175.32
179.42
180.93
180.16
177.48
173.25
167.81
161.40
154.21
146.39
138.10
129.60
121.18
113.10
105.48
98.22
91.07
83.71
75.95
67.86
59.80
52.26
45.67
40.18
35.52
31.13
26.37
20.86
14.70
8.41
2.75
-1.69
-4.73
-6.68
-8.24
-10.09
-12.80
-16.69
-21.82
-27.87
-33.82
-37.90
-37.86
-31.86
-19.45
-2.12
17.00
34.24
46.78
53.60
55.46
54.05
50.99
47.16
42.77
37.87
32.75
28.08
24.59
22.65
22.01
21.93
21.40
19.56
16.10
11.33
6.24
2.17
0.41
1.64
5.57
10.89
15.69
18.22
17.60
14.13
9.04
3.82
-0.43
-3.36
-5.18
-6.22
-6.50
-5.72
-3.54
-0.09
3.93
7.44
9.46
9.50
7.75
4.86
1.62
-1.30
-3.53
-5.00
-5.84
-6.25
-6.39
-6.31
-5.95
-5.16
-3.83
-2.01
0.03
1.94
3.43
4.41
5.04
5.56
6.18
6.92
7.61
8.06
8.16
8.00
7.80
7.78
7.92
7.99
7.56
6.18
3.72
0.26
-3.63
-7.14
-9.44
-9.98
-8.68
-5.94
-2.53
0.66
2.86
3.68
3.13
1.52
-0.69
-3.13
-5.55
-7.86
-9.94
-11.66
-12.78
-13.11
-12.64
-11.60
-10.35
-9.24
-8.46
-7.93
-7.50
-6.97
-6.37
-5.88
-5.76
-6.20
-7.21
-8.56
-9.97
-11.14
-11.87
-12.14
-12.08
-11.89
-11.80
-12.00
-12.63
-13.69
-15.06
-16.31
-16.89
-16.17
-13.68
-9.32
-3.51
2.86
8.64
12.83
14.95
15.05
13.58
11.19
8.44
5.72
3.24
1.23
-0.65
-2.28
-3.51
-4.23
-4.42
-4.14
-3.47
-2.44
-1.08
0.57
2.46
4.41
6.11
7.23
7.53
6.97
5.73
4.08
2.38
0.89
-0.33
-1.41
-2.53
-3.87
-5.44
-7.14
-8.72
-9.94
-10.58
-10.64
-10.31
-10.05
-10.34
-11.57
-13.75
-16.40
-18.66
-19.39
-17.65
-12.99
-5.61
3.66
13.55
22.78
30.39
35.93
39.45
41.35
42.07
41.90
40.92
39.08
36.37
32.94
29.14
25.49
22.45
20.35
19.23
18.95
19.18
19.60
19.91
19.93
19.53
18.62
17.16
15.16
12.74
10.13
7.62
5.39
3.50
1.81
0.14
-1.64
-3.48
-5.26
-6.85
-8.27
-9.68
-11.30
-13.28
-15.58
-18.01
-20.32
-22.36
-24.14
-25.84
-27.71
-30.00
-32.79
-35.92
-38.89
-40.89
-40.95
-38.28
-32.49
-23.89
-13.36
-2.17
8.41
17.40
24.25
28.81
31.16
31.57
30.36
27.92
24.71
21.23
17.95
15.24
13.30
12.12
11.55
11.39
11.44
11.61
11.88
12.29
12.80
13.27
13.44
13.07
12.01
10.29
8.14
5.88
3.77
2.00
0.53
-0.79
-2.18
-3.83
-5.83
-8.13
-10.61
-13.07
-15.33
-17.33
-19.14
-21.06
-23.46
-26.67
-30.75
-35.34
-39.62
-42.49
-42.89
-40.16
-34.28
-25.94
-16.26
-6.48
2.37
9.64
15.10
18.76
20.74
21.18
20.27
18.26
15.58
12.80
10.56
9.43
9.73
11.46
14.22
17.31
19.92
21.42
21.54
20.43
18.57
16.53
14.69
13.13
11.67
10.01
7.97
5.57
2.96
0.37
-2.11
-4.53
-7.03
-9.75
-12.73
-15.91
-19.22
-22.61
-26.08
-29.56
-32.78
-35.18
-36.00
-34.52
-30.34
-23.62
-15.05
-5.70
3.33
11.18
17.41
21.93
24.88
26.47
26.90
26.37
25.18
23.68
22.30
21.43
21.25
21.79
22.87
24.24
25.67
27.05
28.35
29.56
30.64
31.44
31.69
31.12
29.47
26.67
22.82
18.16
12.98
7.48
1.79
-4.04
-9.92
-15.61
-20.72
-24.67
-26.85
-26.70
-23.93
-18.57
-11.16
-2.60
5.98
13.51
19.26
22.92
24.57
24.50
23.00
20.26
16.43
11.74
6.58
1.48
-3.05
-6.61
-9.05
-10.47
-11.08
-11.18
-11.09
-11.07
-11.35
-12.08
-13.29
-14.88
-16.69
-18.54
-20.35
-22.15
-24.07
-26.29
-28.96
-32.20
-35.90
-39.71
-42.94
-44.66
-43.95
-40.24
-33.57
-24.68
-14.76
-5.12
3.20
9.58
13.82
15.97
16.21
14.76
11.95
8.20
3.98
-0.27
-4.19
-7.54
-10.16
-11.96
-12.93
-13.20
-13.03
-12.79
-12.84
-13.39
-14.50
-16.06
-17.87
-19.78
-21.76
-23.92
-26.49
-29.71
-33.64
-38.09
-42.56
-46.30
-48.47
-48.37
-45.64
-40.36
-33.07
-24.65
-16.10
-8.38
-2.18
2.14
4.48
5.05
4.16
2.12
-0.78
-4.37
-8.53
-13.11
-17.87
-22.41
-26.28
-29.04
-30.46
-30.60
-29.81
-28.61
-27.55
-27.00
-27.08
-27.67
-28.42
-28.97
-29.00
-28.37
-27.14
-25.46
-23.49
-21.17
-18.28
-14.39
-9.10
-2.24
6.00
15.07
24.20
32.60
39.65
44.99
48.54
50.33
50.51
49.24
46.74
43.31
39.33
35.23
31.40
28.13
25.54
23.53
21.94
20.54
19.18
17.75
16.21
14.52
12.61
10.40
7.83
4.90
1.63
-2.01
-6.05
-10.58
-15.65
-21.16
-26.85
-32.21
-36.56
-39.16
-39.31
-36.63
-31.10
-23.17
-13.64
-3.46
6.44
15.38
22.97
29.04
33.58
36.62
38.23
38.58
38.00
36.94
35.89
35.27
35.30
35.90
36.78
37.54
37.85
37.60
36.87
35.90
34.87
33.79
32.46
30.65
28.21
25.19
21.88
18.55
15.41
12.45
9.53
6.42
3.02
-0.66
-4.53
-8.43
-12.20
-15.73
-18.90
-21.65
-24.06
-26.32
-28.76
-31.74
-35.47
-39.92
-44.64
-48.79
-51.29
-51.15
-47.69
-40.86
-31.30
-20.15
-8.71
1.86
10.88
18.13
23.73
27.91
30.86
32.62
33.25
32.88
31.81
30.43
29.13
28.19
27.71
27.61
27.72
27.90
28.09
28.30
28.56
28.81
28.90
28.60
27.72
26.17
24.07
21.69
19.35
17.31
15.62
14.13
12.61
10.82
8.69
6.30
3.85
1.55
-0.50
-2.33
-4.07
-5.91
-7.98
-10.33
-12.91
-15.61
-18.32
-20.94
-23.43
-25.77
-27.95
-29.99
-31.93
-33.79
-35.62
-37.27
-38.44
-38.59
-37.08
-33.41
-27.43
-19.54
-10.59
-1.73
5.98
11.79
15.49
17.34
17.84
17.51
16.66
15.36
13.55
11.22
8.54
5.90
3.79
2.55
2.28
2.80
3.75
4.78
5.63
6.19
6.42
6.34
5.95
5.18
3.97
2.27
0.09
-2.50
-5.37
-8.34
-11.26
-14.07
-16.80
-19.56
-22.45
-25.47
-28.57
-31.64
-34.59
-37.27
-39.43
-40.63
-40.27
-37.76
-32.79
-25.57
-16.82
-7.59
1.07
8.45
14.24
18.51
21.44
23.17
23.76
23.24
21.77
19.72
17.61
16.05
15.50
16.21
18.15
21.07
24.56
28.20
31.67
34.81
37.63
40.17
42.47
44.34
45.50
45.60
44.42
42.08
39.01
35.83
33.09
31.03
29.50
28.02
26.04
23.16
19.27
14.61
9.68
5.11
1.62
-0.11
0.43
3.43
8.60
15.17
22.04
28.06
32.36
34.43
34.16
31.64
27.12
20.90
13.36
5.00
-3.64
-12.03
-19.78
-26.70
-32.70
-37.79
-41.97
-45.23
-47.55
-48.93
-49.36
-48.87
-47.49
-45.30
-42.40
-38.96
-35.12
-31.06
-26.99
-23.16
-19.81
-17.16
-15.31
-14.24
-13.87
-14.08
-14.80
-15.95
-17.49
-19.42
-21.74
-24.51
-27.74
-31.25
-34.56
-36.92
-37.39
-35.23
-30.10
-22.32
-12.83
-2.87
6.27
13.65
18.80
21.73
22.78
22.37
20.89
18.63
15.81
12.70
9.66
7.10
5.37
4.65
4.87
5.78
7.01
8.18
9.03
9.38
9.21
8.57
7.54
6.22
4.68
2.94
0.99
-1.20
-3.64
-6.23
-8.85
-11.34
-13.60
-15.63
-17.51
-19.40
-21.54
-24.17
-27.46
-31.40
-35.67
-39.56
-42.11
-42.30
-39.48
-33.59
-25.29
-15.72
-6.15
2.35
9.15
14.06
17.17
18.70
18.92
18.08
16.53
14.64
12.85
11.53
10.92
11.09
11.88
13.04
14.29
15.40
16.28
16.94
17.43
17.86
18.24
18.56
18.72
18.58
18.00
16.82
15.01
12.64
9.90
7.09
4.55
2.51
1.07
0.15
-0.49
-1.17
-2.23
-3.89
-6.15
-8.78
-11.21
-12.72
-12.60
-10.40
-6.19
-0.51
5.74
11.61
16.38
19.67
21.44
21.82
20.95
19.01
16.22
12.95
9.60
6.54
3.95
1.79
-0.16
-2.05
-3.87
-5.46
-6.54
-6.98
-6.85
-6.38
-5.87
-5.54
-5.39
-5.24
-4.81
-3.84
-2.16
0.24
3.23
6.50
9.68
12.39
14.34
15.39
15.61
15.21
14.48
13.67
12.94
12.27
11.48
10.24
8.21
5.12
1.00
-3.77
-8.42
-11.97
-13.51
-12.51
-8.97
-3.44
3.10
9.57
15.03
18.85
20.84
21.14
20.09
18.07
15.37
12.19
8.65
4.83
0.87
-3.06
-6.70
-9.77
-11.98
-13.10
-13.02
-11.83
-9.79
-7.32
-4.92
-3.03
-1.97
-1.86
-2.66
-4.16
-6.12
-8.29
-10.45
-12.45
-14.18
-15.62
-16.83
-17.94
-19.11
-20.46
-22.04
-23.77
-25.46
-26.79
-27.35
-26.64
-24.20
-19.69
-13.05
-4.56
5.21
15.56
25.86
35.59
44.41
52.07
58.29
62.83
65.44
66.02
64.60
61.44
56.89
51.36
45.26
38.90
32.50
26.16
19.88
13.62
7.41
1.35
-4.40
-9.70
-14.46
-18.77
-22.77
-26.62
-30.38
-33.97
-37.25
-39.98
-42.03
-43.36
-44.10
-44.49
-44.90
-45.63
-46.88
-48.56
-50.25
-51.26
-50.81
-48.26
-43.32
-36.13
-27.25
-17.51
-7.82
0.93
8.03
12.98
15.62
16.13
14.94
12.69
10.02
7.38
5.03
3.06
1.47
0.30
-0.38
-0.53
-0.16
0.59
1.48
2.22
2.54
2.28
1.39
-0.04
-1.88
-3.96
-6.14
-8.35
-10.61
-13.04
-15.74
-18.74
-21.95
-25.08
-27.70
-29.26
-29.24
-27.26
-23.21
-17.30
-10.14
-2.60
4.37
9.94
13.64
15.40
15.46
14.20
11.90
8.74
4.86
0.49
-3.91
-7.75
-10.49
-11.88
-12.04
-11.39
-10.45
-9.66
-9.22
-9.15
-9.34
-9.65
-10.03
-10.48
-11.13
-12.18
-13.85
-16.36
-19.76
-23.90
-28.35
-32.42
-35.30
-36.27
-34.88
-31.15
-25.63
-19.18
-12.80
-7.27
-3.09
-0.36
1.09
1.53
1.24
0.51
-0.36
-1.05
-1.19
-0.44
1.41
4.38
8.22
12.47
16.62
20.13
22.68
24.12
24.50
23.97
22.68
20.74
18.17
14.97
11.10
6.53
1.31
-4.43
-10.36
-15.98
-20.57
-23.38
-23.75
-21.29
-15.98
-8.13
1.64
12.52
23.61
34.02
42.91
49.65
53.93
55.77
55.50
53.59
50.50
46.61
42.23
37.68
33.31
29.46
26.41
24.19
22.62
21.38
20.08
18.43
16.27
13.60
10.46
6.93
3.10
-1.02
-5.44
-10.20
-15.32
-20.73
-26.16
-31.10
-34.79
-36.44
-35.39
-31.38
-24.68
-16.04
-6.54
2.73
10.84
17.22
21.63
24.10
24.87
24.29
22.74
20.61
18.24
15.92
13.83
12.09
10.78
9.95
9.58
9.62
9.95
10.41
10.82
11.06
11.07
10.81
10.28
9.44
8.19
6.43
4.08
1.20
-2.03
-5.37
-8.61
-11.67
-14.62
-17.59
-20.72
-24.04
-27.52
-31.05
-34.40
-37.23
-38.93
-38.81
-36.21
-30.82
-22.86
-13.12
-2.70
7.25
15.87
22.75
27.81
31.23
33.21
33.98
33.73
32.69
31.15
29.42
27.80
26.49
25.56
24.99
24.69
24.58
24.60
24.74
24.93
25.02
24.75
23.85
22.13
19.65
16.67
13.59
10.76
8.35
6.25
4.19
1.90
-0.76
-3.68
-6.58
-9.18
-11.28
-12.90
-14.20
-15.37
-16.53
-17.73
-18.91
-20.04
-21.09
-22.08
-23.02
-23.92
-24.83
-25.85
-27.17
-28.93
-31.18
-33.64
-35.77
-36.77
-35.83
-32.40
-26.38
-18.21
-8.77
0.84
9.60
16.77
21.97
25.21
26.73
26.86
25.96
24.36
22.37
20.27
18.34
16.81
15.78
15.22
15.01
14.99
15.06
15.22
15.51
15.96
16.46
16.84
16.83
16.27
15.14
13.60
11.88
10.18
8.64
7.22
5.82
4.29
2.54
0.53
-1.67
-3.95
-6.24
-8.54
-10.92
-13.50
-16.36
-19.50
-22.83
-26.21
-29.44
-32.24
-34.23
-34.88
-33.65
-30.15
-24.41
-16.91
-8.56
-0.41
6.71
12.37
16.57
19.61
21.80
23.34
24.30
24.69
24.62
24.32
24.08
24.10
24.37
24.63
24.51
23.64
21.84
19.22
16.04
12.70
9.48
6.53
3.79
1.08
-1.82
-5.00
-8.44
-11.92
-15.22
-18.13
-20.61
-22.75
-24.76
-26.86
-29.29
-32.20
-35.64
-39.47
-43.27
-46.35
-47.90
-47.21
-43.93
-38.23
-30.76
-22.48
-14.33
-7.02
-0.92
3.85
7.32
9.57
10.69
10.81
10.17
9.07
7.86
6.81
6.10
5.76
5.74
5.98
6.44
7.06
7.77
8.44
8.91
9.02
8.71
7.99
6.92
5.57
3.95
2.04
-0.20
-2.71
-5.38
-8.02
-10.45
-12.59
-14.46
-16.23
-18.18
-20.61
-23.70
-27.41
-31.40
-35.05
-37.60
-38.32
-36.72
-32.72
-26.64
-19.17
-11.18
-3.52
3.16
8.50
12.42
15.00
16.43
16.88
16.53
15.58
14.36
13.26
12.66
12.82
13.74
15.23
16.96
18.63
20.11
21.40
22.61
23.78
24.84
25.61
25.86
25.48
24.47
22.98
21.17
19.19
17.07
14.79
12.34
9.73
7.09
4.55
2.27
0.28
-1.48
-3.15
-4.87
-6.77
-8.83
-10.98
-13.14
-15.23
-17.27
-19.31
-21.46
-23.87
-26.62
-29.64
-32.64
-35.07
-36.18
-35.23
-31.75
-25.77
-17.82
-8.78
0.35
8.79
16.04
21.87
26.16
28.84
29.88
29.33
27.44
24.71
21.76
19.23
17.63
17.20
17.96
19.69
22.06
24.72
27.34
29.68
31.60
33.06
34.08
34.71
34.92
34.57
33.41
31.17
27.64
22.81
16.88
10.24
3.41
-3.11
-8.97
-13.96
-18.07
-21.38
-24.05
-26.17
-27.78
-28.91
-29.68
-30.32
-31.21
-32.71
-34.97
-37.78
-40.55
-42.43
-42.52
-40.17
-35.14
-27.57
-17.94
-6.89
4.90
16.67
27.64
37.00
44.14
48.72
50.77
50.59
48.58
45.09
40.38
34.73
28.60
22.57
17.24
12.99
9.78
7.27
5.06
2.90
0.88
-0.80
-2.01
-2.90
-3.90
-5.44
-7.76
-10.69
-13.81
-16.57
-18.60
-19.82
-20.44
-20.83
-21.41
-22.49
-24.24
-26.70
-29.74
-32.99
-35.83
-37.43
-36.97
-33.91
-28.26
-20.64
-12.11
-3.84
3.35
9.15
13.73
17.46
20.51
22.74
23.70
23.00
20.59
16.91
12.76
9.01
6.25
4.66
4.07
4.06
4.25
4.28
3.94
3.09
1.66
-0.34
-2.82
-5.61
-8.50
-11.25
-13.61
-15.37
-16.39
-16.66
-16.37
-15.94
-15.91
-16.87
-19.14
-22.77
-27.37
-32.25
-36.57
-39.50
-40.44
-39.01
-35.14
-29.05
-21.26
-12.48
-3.54
4.78
11.96
17.82
22.47
26.17
29.12
31.32
32.62
32.79
31.76
29.63
26.69
23.33
19.90
16.68
13.81
11.36
9.29
7.53
5.98
4.54
3.16
1.84
0.63
-0.44
-1.32
-1.99
-2.45
-2.77
-3.08
-3.65
-4.80
-6.84
-9.91
-13.87
-18.36
-22.92
-27.12
-30.72
-33.60
-35.61
-36.44
-35.66
-32.80
-27.64
-20.36
-11.60
-2.30
6.54
14.09
19.83
23.57
25.43
25.69
24.77
23.12
21.19
19.35
17.90
17.10
17.08
17.91
19.49
21.55
23.65
25.24
25.85
25.23
23.49
21.02
18.36
16.02
14.31
13.24
12.59
11.96
10.97
9.29
6.76
3.37
-0.69
-5.02
-9.11
-12.50
-14.90
-16.40
-17.38
-18.49
-20.36
-23.42
-27.71
-32.84
-37.99
-42.12
-44.16
-43.37
-39.52
-33.01
-24.76
-15.95
-7.66
-0.56
5.13
9.56
13.05
15.89
18.24
20.12
21.47
22.30
22.58
22.35
21.66
20.58
19.25
17.93
16.98
16.71
17.34
18.80
20.77
22.68
24.00
24.32
23.52
21.65
18.94
15.57
11.70
7.46
2.99
-1.48
-5.69
-9.46
-12.71
-15.57
-18.30
-21.14
-24.27
-27.69
-31.24
-34.62
-37.44
-39.30
-39.80
-38.66
-35.70
-30.94
-24.60
-17.07
-8.88
-0.58
7.26
14.13
19.62
23.45
25.52
25.91
24.87
22.78
20.07
17.17
14.45
12.19
10.56
9.61
9.27
9.36
9.65
9.93
10.02
9.89
9.55
9.07
8.44
7.57
6.35
4.67
2.61
0.43
-1.54
-3.06
-4.08
-4.90
-5.95
-7.69
-10.35
-13.82
-17.72
-21.47
-24.45
-26.10
-26.05
-24.12
-20.45
-15.41
-9.59
-3.64
1.87
6.58
10.28
12.90
14.36
14.59
13.54
11.37
8.47
5.45
2.98
1.54
1.32
2.15
3.65
5.40
7.13
8.76
10.34
11.90
13.34
14.43
14.82
14.24
12.56
9.84
6.25
1.99
-2.75
-7.85
-13.21
-18.75
-24.35
-29.88
-35.05
-39.43
-42.44
-43.44
-41.92
-37.69
-30.99
-22.41
-12.80
-3.04
6.04
13.75
19.52
22.96
23.90
22.47
19.06
14.37
9.22
4.49
0.99
-0.74
-0.48
1.52
4.62
7.95
10.68
12.30
12.77
12.47
11.95
11.71
11.95
12.54
13.10
13.21
12.54
10.93
8.38
5.04
1.09
-3.25
-7.83
-12.50
-17.14
-21.68
-26.09
-30.32
-34.27
-37.67
-40.06
-40.85
-39.45
-35.57
-29.39
-21.55
-13.01
-4.77
2.40
8.14
12.44
15.50
17.62
19.08
20.10
20.89
21.66
22.56
23.69
25.06
26.51
27.80
28.57
28.57
27.68
26.08
24.08
22.02
20.08
18.22
16.22
13.92
11.28
8.41
5.55
2.85
0.34
-2.06
-4.46
-6.88
-9.25
-11.45
-13.36
-14.97
-16.37
-17.69
-19.10
-20.73
-22.66
-24.91
-27.40
-29.94
-32.17
-33.62
-33.72
-31.93
-27.85
-21.44
-13.08
-3.48
6.50
16.00
24.32
30.91
35.39
37.51
37.13
34.35
29.56
23.38
16.54
9.80
3.79
-0.98
-4.13
-5.42
-4.81
-2.52
0.90
4.72
8.15
10.58
11.65
11.35
9.91
7.72
5.23
2.91
1.18
0.36
0.57
1.63
3.08
4.25
4.46
3.23
0.41
-3.75
-8.76
-14.03
-19.14
-23.89
-28.32
-32.57
-36.65
-40.35
-43.17
-44.48
-43.74
-40.71
-35.58
-28.95
-21.59
-14.24
-7.45
-1.40
3.96
8.93
13.85
19.04
24.63
30.48
36.17
41.07
44.45
45.75
44.70
41.41
36.32
30.11
23.51
17.24
11.88
7.93
5.71
5.31
6.54
8.91
11.65
13.84
14.71
13.76
11.01
6.95
2.47
-1.39
-3.71
-4.02
-2.44
0.29
3.00
4.50
3.85
0.69
-4.75
-11.71
-19.11
-25.75
-30.48
-32.37
-30.92
-26.25
-19.15
-10.91
-2.97
3.46
7.74
9.83
10.10
9.08
7.26
5.04
2.75
0.74
-0.70
-1.37
-1.26
-0.55
0.52
1.78
3.27
5.09
7.41
10.25
13.44
16.62
19.37
21.25
21.96
21.37
19.51
16.61
13.02
9.17
5.40
1.93
-1.26
-4.42
-7.88
-11.87
-16.35
-20.94
-25.00
-27.78
-28.71
-27.48
-24.19
-19.21
-13.16
-6.74
-0.63
4.58
8.52
11.02
12.13
12.11
11.28
9.92
8.26
6.36
4.30
2.17
0.13
-1.65
-3.03
-3.99
-4.62
-5.05
-5.41
-5.77
-6.19
-6.75
-7.58
-8.80
-10.51
-12.67
-15.13
-17.65
-20.02
-22.17
-24.15
-26.20
-28.50
-31.09
-33.72
-35.79
-36.53
-35.22
-31.47
-25.41
-17.63
-9.03
-0.58
6.94
13.00
17.34
19.89
20.74
20.09
18.27
15.65
12.65
9.66
7.03
4.99
3.69
3.15
3.22
3.69
4.29
4.76
4.94
4.72
4.06
2.96
1.46
-0.34
-2.25
-4.12
-5.83
-7.44
-9.19
-11.40
-14.34
-18.06
-22.26
-26.27
-29.21
-30.18
-28.55
-24.18
-17.49
-9.33
-0.81
7.09
13.71
18.79
22.39
24.69
25.89
26.11
25.44
24.03
22.10
19.95
17.84
15.99
14.48
13.37
12.63
12.25
12.16
12.30
12.53
12.75
12.81
12.57
11.85
10.48
8.39
5.65
2.49
-0.75
-3.76
-6.37
-8.66
-10.84
-13.25
-16.12
-19.56
-23.43
-27.39
-30.88
-33.24
-33.83
-32.16
-28.08
-21.81
-13.94
-5.26
3.38
11.24
17.75
22.57
25.60
26.99
27.01
26.06
24.56
22.87
21.27
19.94
18.96
18.32
18.00
17.97
18.23
18.82
19.74
20.91
22.12
23.04
23.37
22.91
21.69
19.91
17.90
15.91
14.02
12.09
9.79
6.80
2.89
-1.92
-7.45
-13.37
-19.39
-25.25
-30.83
-36.03
-40.80
-45.06
-48.73
-51.64
-53.55
-54.07
-52.73
-49.10
-42.95
-34.45
-24.22
-13.28
-2.76
6.39
13.56
18.66
21.98
24.02
25.33
26.34
27.30
28.28
29.24
30.05
30.55
30.58
30.01
28.74
26.81
24.40
21.77
19.23
16.98
15.08
13.46
12.00
10.62
9.37
8.29
7.46
6.84
6.30
5.70
4.94
3.99
2.89
1.70
0.50
-0.62
-1.60
-2.42
-3.20
-4.14
-5.55
-7.71
-10.72
-14.39
-18.27
-21.66
-23.84
-24.16
-22.34
-18.44
-12.84
-6.15
1.02
8.16
14.88
20.83
25.72
29.31
31.47
32.35
32.29
31.74
31.03
30.22
29.07
27.21
24.40
20.74
16.64
12.70
9.46
7.24
6.05
5.69
5.86
6.23
6.52
6.52
6.09
5.21
3.98
2.60
1.34
0.46
0.15
0.43
1.08
1.63
1.41
-0.23
-3.64
-8.64
-14.49
-20.06
-24.17
-26.00
-25.32
-22.55
-18.51
-14.08
-9.96
-6.38
-3.24
-0.24
2.86
6.07
9.10
11.54
12.98
13.20
12.19
10.14
7.35
4.20
1.08
-1.56
-3.32
-3.89
-3.21
-1.53
0.59
2.43
3.29
2.76
0.83
-2.20
-5.81
-9.55
-13.19
-16.71
-20.21
-23.74
-27.17
-30.26
-32.72
-34.31
-34.84
-34.21
-32.33
-29.22
-25.02
-20.06
-14.83
-9.88
-5.71
-2.57
-0.53
0.60
1.13
1.44
1.93
2.90
4.47
6.56
8.83
10.84
12.13
12.39
11.53
9.69
7.15
4.21
1.12
-1.92
-4.82
-7.46
-9.77
-11.74
-13.38
-14.83
-16.23
-17.75
-19.53
-21.64
-24.05
-26.62
-29.00
-30.67
-31.01
-29.51
-25.92
-20.38
-13.44
-5.86
1.56
8.16
13.53
17.43
19.87
20.97
21.00
20.26
19.10
17.78
16.47
15.19
13.88
12.47
10.97
9.49
8.24
7.43
7.18
7.37
7.64
7.54
6.63
4.77
2.10
-0.95
-3.92
-6.52
-8.73
-10.80
-13.12
-16.03
-19.67
-23.95
-28.54
-32.91
-36.42
-38.37
-38.11
-35.26
-29.85
-22.37
-13.69
-4.89
3.10
9.66
14.65
18.24
20.75
22.40
23.25
23.24
22.33
20.64
18.47
16.25
14.37
13.07
12.43
12.44
13.05
14.26
16.04
18.20
20.39
22.13
22.89
22.34
20.51
17.78
14.79
12.18
10.32
9.10
8.01
6.24
3.11
-1.76
-8.27
-15.94
-24.06
-31.86
-38.61
-43.57
-46.05
-45.52
-41.78
-35.11
-26.39
-16.86
-7.88
-0.49
4.83
8.19
10.20
11.58
12.91
14.43
15.97
17.11
17.37
16.47
14.44
11.66
8.77
6.46
5.26
5.36
6.65
8.76
11.23
13.66
15.79
17.49
18.73
19.49
19.77
19.56
18.82
17.45
15.35
12.45
8.78
4.49
-0.15
-4.81
-9.23
-13.24
-16.89
-20.32
-23.75
-27.24
-30.63
-33.41
-34.85
-34.22
-31.05
-25.37
-17.75
-9.13
-0.53
7.23
13.70
18.79
22.66
25.53
27.56
28.74
28.99
28.25
26.57
24.22
21.60
19.11
16.96
15.17
13.58
12.05
10.55
9.21
8.18
7.49
6.98
6.38
5.46
4.16
2.63
1.10
-0.29
-1.55
-2.87
-4.48
-6.48
-8.74
-11.06
-13.21
-15.13
-17.00
-19.11
-21.77
-25.05
-28.70
-32.15
-34.61
-35.33
-33.74
-29.73
-23.60
-16.09
-8.11
-0.60
5.76
10.60
13.91
15.88
16.90
17.36
17.58
17.81
18.12
18.41
18.51
18.22
17.49
16.46
15.39
14.55
14.12
14.09
14.37
14.83
15.37
15.94
16.48
16.88
17.02
16.80
16.16
15.11
13.66
11.78
9.35
6.24
2.37
-2.26
-7.53
-13.20
-18.98
-24.44
-29.08
-32.29
-33.51
-32.31
-28.58
-22.65
-15.19
-7.19
0.35
6.54
10.86
13.12
13.50
12.33
10.05
7.10
3.85
0.64
-2.24
-4.56
-6.21
-7.20
-7.69
-7.87
-7.85
-7.57
-6.81
-5.34
-3.07
-0.22
2.73
5.15
6.52
6.60
5.47
3.46
0.93
-1.82
-4.62
-7.34
-9.89
-12.17
-14.11
-15.65
-16.71
-17.12
-16.56
-14.59
-10.85
-5.26
1.85
9.79
17.68
24.66
30.08
33.57
34.95
34.24
31.59
27.32
21.85
15.71
9.40
3.30
-2.32
-7.32
-11.59
-15.08
-17.74
-19.60
-20.83
-21.63
-22.20
-22.57
-22.60
-22.11
-20.99
-19.35
-17.52
-16.04
-15.39
-15.94
-17.74
-20.51
-23.65
-26.28
-27.48
-26.45
-22.82
-16.73
-8.93
-0.54
7.26
13.55
17.83
20.09
20.63
19.88
18.31
16.29
14.13
12.06
10.24
8.77
7.67
6.99
6.78
7.20
8.37
10.41
13.28
16.76
20.58
24.39
27.89
30.75
32.59
32.94
31.30
27.31
20.94
12.57
3.00
-6.78
-15.71
-22.83
-27.39
-28.85
-27.01
-22.07
-14.70
-5.93
3.03
11.01
17.16
20.96
22.26
21.16
17.95
13.05
6.99
0.36
-6.23
-12.23
-17.19
-20.78
-22.86
-23.53
-23.16
-22.31
-21.56
-21.33
-21.74
-22.66
-23.76
-24.79
-25.68
-26.53
-27.54
-28.86
-30.48
-32.27
-33.98
-35.27
-35.71
-34.81
-32.12
-27.33
-20.41
-11.63
-1.58
8.93
19.01
27.85
34.82
39.53
41.89
42.03
40.25
36.99
32.71
27.92
23.16
18.93
15.59
13.24
11.75
10.73
9.75
8.47
6.72
4.50
1.93
-0.88
-3.88
-6.96
-9.98
-12.75
-15.09
-16.99
-18.62
-20.30
-22.30
-24.68
-27.13
-29.04
-29.69
-28.51
-25.32
-20.31
-14.00
-7.07
-0.18
6.11
11.36
15.29
17.74
18.70
18.28
16.74
14.46
11.90
9.58
7.95
7.33
7.74
8.97
10.63
12.29
13.61
14.40
14.58
14.09
12.84
10.69
7.59
3.60
-0.99
-5.75
-10.18
-13.93
-16.85
-19.08
-21.02
-23.16
-25.91
-29.36
-33.18
-36.60
-38.55
-37.97
-34.15
-26.97
-17.02
-5.49
6.12
16.42
24.41
29.64
32.23
32.64
31.49
29.34
26.59
23.54
20.39
17.36
14.68
12.53
11.07
10.34
10.32
10.99
12.32
14.18
16.27
18.13
19.25
19.23
17.97
15.72
12.98
10.24
7.80
5.73
3.89
2.10
0.19
-1.89
-4.15
-6.49
-8.77
-10.76
-12.23
-13.08
-13.41
-13.51
-13.70
-14.13
-14.65
-14.77
-13.87
-11.42
-7.24
-1.56
5.00
11.64
17.53
22.02
24.71
25.54
24.67
22.49
19.43
15.94
12.36
9.00
6.12
3.95
2.67
2.28
2.61
3.32
4.07
4.63
5.00
5.31
5.73
6.33
6.94
7.28
7.05
6.11
4.55
2.68
0.89
-0.39
-0.87
-0.50
0.48
1.59
2.20
1.76
0.01
-2.95
-6.64
-10.47
-13.95
-16.84
-19.24
-21.45
-23.79
-26.51
-29.66
-33.09
-36.48
-39.36
-41.11
-41.15
-39.03
-34.62
-28.16
-20.24
-11.67
-3.26
4.25
10.37
14.85
17.64
18.90
18.91
18.06
16.77
15.44
14.39
13.83
13.83
14.37
15.28
16.36
17.42
18.38
19.27
20.24
21.40
22.67
23.74
24.10
23.25
20.83
16.83
11.55
5.55
-0.44
-5.74
-9.81
-12.37
-13.47
-13.44
-12.82
-12.17
-11.91
-12.15
-12.76
-13.44
-13.75
-13.21
-11.32
-7.56
-1.56
6.67
16.57
27.06
36.66
43.95
47.97
48.41
45.69
40.62
34.15
27.13
20.16
13.71
8.16
3.81
0.84
-0.75
-1.20
-0.90
-0.28
0.34
0.84
1.27
1.75
2.33
2.90
3.20
2.94
1.83
-0.20
-3.02
-6.33
-9.76
-13.01
-15.93
-18.57
-21.10
-23.75
-26.70
-29.91
-33.16
-35.98
-37.80
-38.09
-36.53
-33.10
-28.12
-22.20
-16.04
-10.34
-5.63
-2.15
0.11
1.44
2.22
2.79
3.37
3.96
4.44
4.61
4.32
3.54
2.38
1.13
0.18
-0.05
0.83
2.97
6.15
9.78
13.04
15.17
15.64
14.29
11.33
7.14
2.21
-3.01
-8.08
-12.56
-16.05
-18.22
-18.88
-18.02
-15.76
-12.38
-8.23
-3.70
0.78
4.87
8.37
11.22
13.52
15.38
16.82
17.76
18.05
17.55
16.21
14.16
11.72
9.31
7.39
6.31
6.26
7.12
8.59
10.14
11.26
11.51
10.67
8.76
5.92
2.46
-1.28
-4.98
-8.42
-11.54
-14.43
-17.34
-20.45
-23.74
-26.93
-29.45
-30.64
-29.97
-27.23
-22.64
-16.72
-10.18
-3.68
2.23
7.17
10.86
13.07
13.66
12.64
10.22
6.86
3.19
-0.19
-2.88
-4.70
-5.76
-6.31
-6.63
-7.00
-7.63
-8.66
-10.13
-11.95
-13.91
-15.77
-17.36
-18.63
-19.75
-20.98
-22.66
-25.00
-28.07
-31.70
-35.45
-38.63
-40.39
-39.91
-36.71
-30.79
-22.72
-13.51
-4.28
3.98
10.70
15.66
18.90
20.62
21.03
20.36
18.87
16.85
14.57
12.25
10.03
8.03
6.34
5.13
4.57
4.76
5.61
6.80
7.85
8.32
7.94
6.75
5.03
3.19
1.57
0.30
-0.82
-2.19
-4.31
-7.57
-12.07
-17.47
-23.03
-27.67
-30.37
-30.38
-27.46
-21.94
-14.52
-6.06
2.64
10.84
17.90
23.15
25.98
26.02
23.30
18.39
12.24
6.01
0.66
-3.12
-5.01
-4.94
-3.08
0.20
4.33
8.58
12.18
14.53
15.39
14.87
13.35
11.33
9.22
7.27
5.52
3.92
2.36
0.73
-1.08
-3.12
-5.38
-7.75
-9.90
-11.36
-11.49
-9.74
-5.84
-0.01
7.07
14.43
21.09
26.36
30.00
32.11
32.95
32.74
31.60
29.58
26.73
23.16
19.08
14.79
10.60
6.82
3.73
1.52
0.24
-0.24
-0.19
0.03
0.07
-0.29
-1.10
-2.26
-3.57
-4.84
-5.91
-6.76
-7.45
-8.12
-8.89
-9.81
-10.79
-11.64
-12.11
-12.07
-11.60
-11.05
-10.97
-11.90
-14.23
-17.91
-22.49
-27.08
-30.66
-32.27
-31.29
-27.55
-21.42
-13.64
-5.15
3.16
10.67
17.05
22.23
26.24
29.05
30.59
30.76
29.61
27.36
24.41
21.26
18.35
16.00
14.36
13.41
13.03
13.03
13.16
13.20
12.90
12.07
10.52
8.17
5.03
1.28
-2.68
-6.37
-9.28
-11.06
-11.61
-11.16
-10.19
-9.30
-9.02
-9.72
-11.47
-14.06
-17.14
-20.31
-23.26
-25.84
-28.07
-30.08
-32.02
-34.00
-36.01
-37.87
-39.16
-39.25
-37.47
-33.35
-26.83
-18.35
-8.82
0.67
9.13
15.90
20.71
23.61
24.85
24.69
23.48
21.54
19.31
17.21
15.59
14.66
14.38
14.56
14.93
15.26
15.40
15.35
15.14
14.80
14.27
13.42
12.11
10.25
7.92
5.30
2.66
0.22
-1.92
-3.82
-5.63
-7.55
-9.69
-12.03
-14.41
-16.57
-18.23
-19.25
-19.67
-19.78
-20.01
-20.76
-22.13
-23.82
-25.11
-25.11
-23.07
-18.67
-12.18
-4.30
4.06
12.06
19.07
24.70
28.71
30.92
31.15
29.33
25.58
20.30
14.13
7.78
1.93
-2.96
-6.72
-9.40
-11.20
-12.39
-13.22
-13.84
-14.29
-14.49
-14.29
-13.52
-12.12
-10.15
-7.85
-5.52
-3.46
-1.84
-0.71
0.01
0.43
0.63
0.60
0.30
-0.32
-1.25
-2.48
-3.95
-5.67
-7.64
-9.77
-11.79
-13.26
-13.59
-12.23
-8.94
-3.87
2.41
9.13
15.48
20.86
24.95
27.66
29.08
29.32
28.53
26.92
24.73
22.29
19.92
17.91
16.45
15.67
15.62
16.27
17.52
19.15
20.93
22.57
23.88
24.76
25.17
25.13
24.63
23.69
22.36
20.79
19.21
17.78
16.57
15.46
14.16
12.37
9.87
6.68
3.00
-0.85
-4.59
-8.04
-11.22
-14.22
-17.13
-19.99
-22.65
-24.77
-25.82
-25.26
-22.65
-17.90
-11.33
-3.63
4.27
11.47
17.32
21.49
24.02
25.18
25.36
24.96
24.26
23.40
22.35
20.95
19.01
16.42
13.23
9.67
6.11
3.00
0.71
-0.50
-0.58
0.30
1.80
3.53
5.17
6.56
7.74
8.86
10.09
11.56
13.27
15.14
17.01
18.68
19.97
20.79
21.17
21.29
21.34
21.38
21.20
20.34
18.25
14.49
9.01
2.17
-5.32
-12.59
-18.78
-23.21
-25.43
-25.24
-22.77
-18.41
-12.79
-6.65
-0.73
4.44
8.53
11.47
13.32
14.19
14.14
13.22
11.44
8.88
5.71
2.22
-1.19
-4.12
-6.25
-7.46
-7.87
-7.79
-7.63
-7.71
-8.17
-8.91
-9.76
-10.58
-11.40
-12.35
-13.57
-15.05
-16.53
-17.69
-18.20
-17.94
-16.96
-15.43
-13.57
-11.62
-9.84
-8.54
-8.00
-8.39
-9.56
-11.06
-12.15
-12.06
-10.20
-6.40
-0.90
5.62
12.25
18.11
22.52
25.16
26.06
25.43
23.64
21.08
18.23
15.62
13.70
12.71
12.50
12.53
12.06
10.46
7.51
3.46
-1.05
-5.25
-8.49
-10.36
-10.77
-9.86
-8.03
-5.82
-3.89
-2.83
-3.07
-4.76
-7.83
-11.96
-16.72
-21.52
-25.71
-28.57
-29.52
-28.29
-25.07
-20.50
-15.45
-10.75
-6.97
-4.32
-2.67
-1.77
-1.36
-1.26
-1.40
-1.79
-2.48
-3.56
-5.10
-7.15
-9.60
-12.22
-14.67
-16.68
-18.10
-18.97
-19.50
-19.89
-20.24
-20.55
-20.66
-20.45
-19.84
-18.89
-17.77
-16.68
-15.90
-15.62
-15.94
-16.78
-17.80
-18.46
-18.18
-16.51
-13.37
-9.12
-4.43
-0.03
3.45
5.69
6.59
6.19
4.57
1.83
-1.75
-5.75
-9.57
-12.59
-14.44
-15.01
-14.59
-13.61
-12.51
-11.56
-10.84
-10.26
-9.72
-9.19
-8.77
-8.67
-9.10
-10.25
-12.15
-14.63
-17.31
-19.60
-20.86
-20.51
-18.29
-14.31
-9.11
-3.52
1.59
5.57
8.07
9.13
9.05
8.22
7.06
5.89
4.91
4.20
3.72
3.33
2.84
2.07
0.96
-0.38
-1.67
-2.49
-2.49
-1.51
0.31
2.50
4.42
5.42
5.05
3.20
0.05
-4.03
-8.64
-13.40
-17.96
-21.86
-24.58
-25.61
-24.63
-21.68
-17.19
-11.83
-6.32
-1.17
3.35
7.15
10.21
12.37
13.36
12.86
10.67
6.87
1.91
-3.51
-8.62
-12.77
-15.64
-17.26
-17.97
-18.15
-18.06
-17.78
-17.19
-16.23
-14.91
-13.48
-12.23
-11.43
-11.27
-11.74
-12.75
-14.09
-15.44
-16.33
-16.22
-14.61
-11.20
-6.08
0.28
7.12
13.66
19.27
23.59
26.48
27.95
28.08
27.05
25.15
22.78
20.40
18.36
16.85
15.81
15.00
14.09
12.87
11.23
9.24
7.01
4.67
2.29
-0.09
-2.46
-4.87
-7.42
-10.25
-13.45
-17.02
-20.75
-24.20
-26.70
-27.53
-26.06
-22.05
-15.65
-7.51
1.44
10.20
17.90
24.04
28.39
31.04
32.15
31.98
30.79
28.86
26.54
24.21
22.14
20.53
19.39
18.60
18.01
17.48
16.95
16.44
15.98
15.53
14.93
13.95
12.37
10.08
7.19
3.96
0.75
-2.18
-4.74
-7.00
-9.11
-11.28
-13.62
-16.22
-19.09
-22.06
-24.78
-26.59
-26.68
-24.33
-19.17
-11.44
-1.93
8.20
17.78
25.92
32.15
36.35
38.71
39.53
39.23
38.32
37.36
36.82
36.93
37.62
38.58
39.32
39.46
38.82
37.41
35.36
32.81
29.83
26.42
22.61
18.47
14.19
9.94
5.90
2.15
-1.29
-4.46
-7.38
-10.10
-12.66
-15.12
-17.53
-19.93
-22.32
-24.72
-27.11
-29.51
-31.92
-34.26
-36.30
-37.62
-37.66
-35.83
-31.70
-25.15
-16.49
-6.45
3.99
13.77
22.01
28.06
31.64
32.79
31.81
29.16
25.38
21.03
16.68
12.86
9.96
8.18
7.50
7.64
8.20
8.79
9.11
9.07
8.69
8.06
7.20
6.11
4.80
3.33
1.78
0.19
-1.51
-3.45
-5.78
-8.52
-11.52
-14.52
-17.28
-19.69
-21.83
-23.88
-26.01
-28.18
-30.18
-31.56
-31.86
-30.66
-27.73
-23.07
-17.02
-10.13
-3.18
3.06
7.93
11.10
12.57
12.64
11.72
10.20
8.35
6.32
4.24
2.31
0.80
-0.06
-0.16
0.43
1.48
2.81
4.33
6.09
8.09
10.18
12.03
13.16
13.27
12.27
10.43
8.19
6.03
4.29
3.21
2.90
3.39
4.58
6.22
7.85
8.91
8.87
7.39
4.36
-0.06
-5.49
-11.37
-16.96
-21.47
-24.10
-24.30
-21.93
-17.26
-11.01
-4.09
2.59
8.32
12.65
15.43
16.71
16.69
15.68
14.04
12.15
10.33
8.78
7.54
6.52
5.59
4.61
3.51
2.25
0.82
-0.79
-2.64
-4.75
-7.10
-9.60
-12.14
-14.60
-16.95
-19.20
-21.41
-23.63
-25.83
-27.92
-29.74
-31.10
-31.85
-31.84
-30.96
-29.19
-26.54
-23.16
-19.31
-15.34
-11.63
-8.43
-5.79
-3.49
-1.02
2.22
6.76
12.79
19.97
27.42
33.97
38.42
40.02
38.60
34.68
29.27
23.52
18.43
14.59
12.09
10.68
9.91
9.41
8.99
8.67
8.65
9.14
10.34
12.37
15.28
18.98
23.21
27.43
30.94
32.99
33.07
31.12
27.56
23.14
18.70
14.89
12.05
10.19
9.07
8.36
7.74
6.98
6.00
4.85
3.70
2.70
1.95
1.52
1.39
1.63
2.31
3.60
5.61
8.42
12.06
16.46
21.46
26.65
31.41
34.94
36.46
35.42
31.72
25.70
18.00
9.40
0.63
-7.54
-14.38
-19.13
-21.27
-20.65
-17.67
-13.22
-8.41
-4.26
-1.36
0.11
0.37
-0.17
-1.13
-2.28
-3.48
-4.73
-6.03
-7.35
-8.62
-9.70
-10.49
-10.98
-11.26
-11.50
-11.89
-12.54
-13.42
-14.37
-15.11
-15.29
-14.62
-12.89
-10.12
-6.50
-2.38
1.84
5.77
9.12
11.67
13.29
13.94
13.68
12.71
11.31
9.85
8.59
7.67
7.04
6.53
5.97
5.27
4.47
3.70
3.08
2.63
2.25
1.77
0.96
-0.30
-2.04
-4.16
-6.54
-9.07
-11.69
-14.38
-17.07
-19.66
-22.00
-23.90
-25.23
-25.91
-25.88
-25.10
-23.49
-21.00
-17.67
-13.65
-9.24
-4.84
-0.84
2.41
4.60
5.46
4.76
2.38
-1.59
-6.76
-12.48
-17.96
-22.52
-25.76
-27.62
-28.27
-27.96
-26.88
-25.14
-22.85
-20.19
-17.40
-14.78
-12.59
-10.98
-9.94
-9.42
-9.33
-9.59
-10.17
-11.07
-12.22
-13.52
-14.71
-15.44
-15.34
-14.07
-11.51
-7.76
-3.14
1.83
6.60
10.62
13.45
14.84
14.71
13.21
10.66
7.54
4.37
1.61
-0.42
-1.69
-2.37
-2.84
-3.53
-4.75
-6.62
-8.99
-11.48
-13.65
-15.12
-15.75
-15.64
-15.11
-14.58
-14.45
-14.96
-16.07
-17.54
-18.85
-19.37
-18.42
-15.48
-10.39
-3.47
4.48
12.35
19.13
24.15
27.21
28.54
28.49
27.37
25.37
22.69
19.67
16.80
14.52
13.01
11.99
10.86
8.97
5.98
1.98
-2.53
-6.88
-10.52
-13.20
-15.04
-16.45
-18.03
-20.34
-23.78
-28.34
-33.55
-38.54
-42.25
-43.78
-42.61
-38.74
-32.62
-25.02
-16.78
-8.72
-1.50
4.38
8.58
10.98
11.61
10.67
8.51
5.57
2.36
-0.63
-3.01
-4.58
-5.36
-5.56
-5.51
-5.49
-5.64
-5.95
-6.36
-6.89
-7.72
-9.12
-11.37
-14.59
-18.64
-23.13
-27.54
-31.26
-33.67
-34.20
-32.49
-28.39
-22.16
-14.42
-6.04
2.04
9.11
14.74
18.82
21.43
22.70
22.76
21.70
19.72
17.17
14.50
12.21
10.68
10.06
10.21
10.84
11.50
11.78
11.39
10.16
8.12
5.35
1.99
-1.85
-6.13
-10.83
-15.91
-21.17
-26.24
-30.53
-33.36
-34.10
-32.35
-28.11
-21.78
-14.07
-5.84
2.17
9.42
15.70
21.00
25.40
28.92
31.55
33.25
34.12
34.38
34.43
34.63
35.26
36.38
37.83
39.34
40.62
41.46
41.85
41.85
41.62
41.25
40.78
40.15
39.26
38.09
36.71
35.34
34.26
33.69
33.65
33.96
34.30
34.35
33.91
32.98
31.79
30.61
29.70
29.11
28.74
28.38
27.76
26.69
25.04
22.74
19.71
15.87
11.22
5.92
0.35
-4.94
-9.45
-12.87
-15.19
-16.60
-17.29
-17.23
-16.25
-14.13
-10.97
-7.31
-4.07
-2.25
-2.47
-4.68
-8.24
-12.11
-15.38
-17.56
-18.70
-19.25
-19.74
-20.46
-21.30
-21.84
-21.54
-20.02
-17.20
-13.29
-8.65
-3.67
1.36
6.20
10.63
14.39
17.21
18.87
19.31
18.67
17.27
15.45
13.51
11.56
9.62
7.57
5.31
2.78
-0.04
-3.09
-6.26
-9.37
-12.23
-14.62
-16.36
-17.40
-17.79
-17.69
-17.23
-16.54
-15.78
-15.18
-15.15
-16.17
-18.68
-22.81
-28.20
-34.00
-39.03
-42.11
-42.35
-39.45
-33.71
-25.99
-17.45
-9.26
-2.35
2.75
6.01
7.77
8.58
9.03
9.58
10.52
11.97
13.90
16.23
18.75
21.21
23.29
24.71
25.25
24.84
23.55
21.53
18.98
16.11
13.08
10.05
7.13
4.35
1.74
-0.76
-3.21
-5.71
-8.34
-11.15
-14.08
-16.97
-19.56
-21.55
-22.74
-23.05
-22.65
-21.81
-20.95
-20.39
-20.36
-20.85
-21.55
-21.94
-21.42
-19.55
-16.25
-11.83
-6.92
-2.18
1.93
5.31
8.16
10.77
13.35
15.85
18.02
19.54
20.18
19.94
19.04
17.83
16.61
15.54
14.58
13.61
12.54
11.43
10.44
9.80
9.60
9.81
10.26
10.74
11.11
11.31
11.28
10.95
10.21
8.93
7.02
4.53
1.50
-1.93
-5.66
-9.60
-13.69
-17.90
-22.19
-26.47
-30.53
-33.96
-36.22
-36.77
-35.25
-31.67
-26.42
-20.14
-13.53
-7.14
-1.37
3.51
7.24
9.53
10.15
9.13
6.79
3.72
0.63
-1.92
-3.59
-4.35
-4.32
-3.65
-2.50
-1.00
0.66
2.19
3.23
3.47
2.75
1.07
-1.39
-4.35
-7.52
-10.66
-13.57
-16.19
-18.56
-20.80
-23.10
-25.57
-28.12
-30.48
-32.19
-32.75
-31.78
-29.13
-24.94
-19.57
-13.49
-7.24
-1.24
4.18
8.82
12.62
15.57
17.67
18.88
19.13
18.37
16.69
14.39
11.92
9.81
8.48
8.08
8.48
9.32
10.11
10.45
10.06
8.79
6.65
3.77
0.36
-3.33
-7.03
-10.59
-13.98
-17.31
-20.70
-24.16
-27.47
-30.15
-31.54
-30.99
-28.03
-22.56
-14.91
-5.77
3.89
13.08
20.97
27.04
31.11
33.22
33.56
32.32
29.70
25.98
21.60
17.20
13.46
10.95
9.86
9.99
10.82
11.74
12.24
12.08
11.27
9.95
8.22
6.10
3.48
0.24
-3.68
-8.26
-13.38
-18.78
-24.15
-29.04
-32.92
-35.23
-35.51
-33.59
-29.62
-24.07
-17.66
-11.16
-5.21
-0.30
3.34
5.64
6.65
6.55
5.56
3.98
2.09
0.18
-1.51
-2.79
-3.56
-3.84
-3.77
-3.58
-3.57
-3.97
-4.98
-6.61
-8.75
-11.24
-13.89
-16.63
-19.50
-22.62
-26.13
-30.03
-34.10
-37.80
-40.34
-40.87
-38.69
-33.55
-25.80
-16.36
-6.51
2.47
9.70
14.85
18.16
20.19
21.55
22.66
23.67
24.52
25.03
24.99
24.27
22.86
20.84
18.44
15.99
13.84
12.24
11.26
10.74
10.38
9.82
8.87
7.49
5.88
4.39
3.33
2.85
2.84
2.92
2.58
1.49
-0.33
-2.34
-3.67
-3.37
-0.82
4.10
10.94
18.88
26.99
34.53
40.96
46.04
49.65
51.73
52.31
51.49
49.53
46.79
43.73
40.79
38.25
36.23
34.68
33.46
32.43
31.49
30.51
29.35
27.85
25.85
23.23
19.98
16.18
11.96
7.52
3.01
-1.35
-5.40
-9.06
-12.30
-15.22
-17.95
-20.63
-23.27
-25.84
-28.26
-30.48
-32.50
-34.40
-36.32
-38.35
-40.56
-42.86
-44.99
-46.50
-46.75
-45.12
-41.18
-34.94
-26.84
-17.69
-8.40
0.27
7.82
14.02
18.76
21.98
23.61
23.69
22.47
20.41
18.13
16.21
15.03
14.72
15.13
16.00
17.05
18.03
18.84
19.42
19.77
19.88
19.73
19.27
18.47
17.31
15.84
14.14
12.31
10.48
8.75
7.14
5.61
4.00
2.22
0.30
-1.56
-3.07
-3.96
-4.21
-4.04
-3.83
-4.00
-4.73
-6.00
-7.62
-9.45
-11.50
-13.88
-16.68
-19.83
-23.10
-26.09
-28.45
-29.94
-30.41
-29.75
-27.84
-24.55
-19.86
-13.99
-7.42
-0.82
5.17
10.07
13.66
15.97
17.15
17.36
16.69
15.26
13.19
10.68
8.00
5.42
3.21
1.54
0.55
0.26
0.63
1.51
2.73
4.10
5.49
6.80
7.93
8.69
8.82
8.08
6.31
3.65
0.42
-2.91
-5.97
-8.62
-10.97
-13.26
-15.68
-18.30
-21.01
-23.64
-26.04
-28.10
-29.73
-30.76
-31.00
-30.28
-28.56
-26.01
-22.94
-19.76
-16.88
-14.63
-13.29
-12.97
-13.59
-14.80
-15.99
-16.42
-15.42
-12.67
-8.27
-2.71
3.37
9.40
15.04
20.20
24.84
28.83
31.83
33.43
33.30
31.42
28.13
24.08
20.04
16.63
14.23
12.98
12.80
13.57
15.12
17.28
19.92
22.96
26.33
30.00
33.88
37.73
41.21
43.92
45.53
45.86
44.92
42.86
39.88
36.13
31.74
26.81
21.45
15.82
10.06
4.30
-1.37
-6.92
-12.29
-17.43
-22.26
-26.79
-31.06
-35.25
-39.51
-43.90
-48.23
-52.03
-54.63
-55.34
-53.66
-49.46
-43.03
-35.03
-26.35
-17.90
-10.43
-4.46
-0.21
2.36
3.45
3.33
2.22
0.34
-2.14
-5.03
-8.06
-10.87
-13.10
-14.42
-14.67
-13.84
-12.08
-9.66
-6.82
-3.71
-0.36
3.32
7.34
11.52
15.41
18.35
19.68
18.97
16.24
12.00
7.02
2.08
-2.34
-6.10
-9.40
-12.51
-15.69
-19.04
-22.50
-25.88
-28.80
-30.79
-31.26
-29.66
-25.71
-19.59
-11.99
-4.00
3.21
8.71
12.01
13.09
12.24
9.87
6.41
2.31
-1.89
-5.58
-8.20
-9.37
-9.10
-7.73
-5.85
-3.98
-2.37
-0.98
0.40
1.99
3.84
5.78
7.49
8.51
8.40
6.83
3.69
-0.82
-6.20
-11.88
-17.30
-22.15
-26.35
-29.91
-32.78
-34.67
-35.12
-33.66
-30.01
-24.24
-16.72
-8.05
1.09
10.03
18.17
25.06
30.37
33.92
35.64
35.50
33.53
29.84
24.67
18.48
11.86
5.50
-0.06
-4.53
-7.91
-10.39
-12.22
-13.54
-14.37
-14.65
-14.43
-13.91
-13.51
-13.71
-14.89
-17.16
-20.30
-23.82
-27.13
-29.73
-31.37
-32.11
-32.26
-32.36
-32.92
-34.35
-36.81
-40.03
-43.35
-45.73
-46.05
-43.33
-37.15
-27.76
-16.10
-3.57
8.36
18.44
25.90
30.49
32.44
32.43
31.49
30.88
31.87
35.37
41.61
49.94
58.99
67.03
72.43
74.14
71.96
66.46
58.78
50.26
42.03
34.78
28.69
23.47
18.62
13.62
8.21
2.36
-3.73
-9.74
-15.41
-20.59
-25.33
-29.80
-34.22
-38.69
-43.08
-46.94
-49.55
-50.14
-48.07
-43.02
-35.07
-24.63
-12.43
0.53
13.09
24.03
32.27
37.04
38.13
35.94
31.35
25.56
19.74
14.87
11.64
10.47
11.51
14.58
19.18
24.37
29.04
32.05
32.64
30.65
26.51
21.04
15.11
9.36
4.12
-0.45
-4.24
-7.04
-8.60
-8.82
-7.90
-6.42
-5.22
-5.22
-7.13
-11.20
-17.07
-23.83
-30.15
-34.75
-36.63
-35.44
-31.41
-25.20
-17.61
-9.35
-0.96
7.03
14.02
19.33
22.30
22.62
20.52
16.78
12.55
9.01
7.02
6.96
8.74
11.85
15.62
19.28
22.14
23.66
23.50
21.63
18.31
14.05
9.46
5.09
1.35
-1.58
-3.77
-5.42
-6.85
-8.47
-10.65
-13.64
-17.48
-21.85
-26.03
-29.03
-29.85
-27.78
-22.67
-15.02
-5.85
3.61
12.24
19.25
24.28
27.30
28.48
28.17
26.77
24.79
22.73
21.03
20.00
19.71
20.02
20.60
21.01
20.85
19.79
17.73
14.77
11.12
7.09
2.90
-1.29
-5.40
-9.38
-13.17
-16.68
-19.89
-22.88
-25.90
-29.24
-33.12
-37.50
-41.95
-45.64
-47.54
-46.71
-42.64
-35.41
-25.72
-14.67
-3.57
6.43
14.45
20.02
23.01
23.63
22.37
19.84
16.74
13.64
10.95
8.87
7.43
6.51
5.98
5.71
5.62
5.65
5.73
5.76
5.61
5.12
4.16
2.64
0.54
-2.10
-5.15
-8.40
-11.60
-14.51
-17.04
-19.26
-21.40
-23.70
-26.22
-28.72
-30.59
-31.12
-29.69
-26.05
-20.38
-13.25
-5.47
2.19
9.05
14.66
18.77
21.34
22.43
22.17
20.78
18.44
15.44
12.04
8.57
5.39
2.85
1.30
1.01
2.12
4.55
7.99
11.90
15.67
18.72
20.65
21.32
20.78
19.25
16.98
14.22
11.20
8.07
4.95
1.95
-0.87
-3.43
-5.74
-7.93
-10.30
-13.30
-17.39
-22.86
-29.61
-37.08
-44.28
-50.06
-53.36
-53.50
-50.32
-44.15
-35.68
-25.78
-15.31
-4.98
4.64
13.07
19.94
25.01
28.14
29.39
29.00
27.36
24.93
22.16
19.44
17.04
15.16
13.87
13.17
13.05
13.42
14.17
15.13
16.09
16.80
17.03
16.60
15.46
13.72
11.61
9.43
7.43
5.75
4.31
2.91
1.25
-0.93
-3.71
-7.00
-10.54
-14.04
-17.29
-20.18
-22.81
-25.36
-28.08
-31.22
-34.93
-39.08
-43.26
-46.72
-48.55
-47.90
-44.24
-37.55
-28.34
-17.51
-6.15
4.73
14.35
22.21
28.14
32.17
34.51
35.42
35.20
34.18
32.70
31.14
29.85
29.10
29.02
29.54
30.49
31.65
32.86
34.07
35.26
36.35
37.17
37.45
36.94
35.55
33.46
31.03
28.66
26.59
24.76
22.92
20.77
18.22
15.46
12.95
11.12
10.20
9.98
9.90
9.29
7.65
4.86
1.25
-2.55
-5.86
-8.21
-9.56
-10.26
-11.03
-12.72
-16.05
-21.31
-28.17
-35.60
-42.11
-46.18
-46.68
-43.26
-36.42
-27.23
-16.95
-6.69
2.81
11.18
18.25
23.89
27.97
30.38
31.17
30.60
29.18
27.48
25.99
24.92
24.08
23.07
21.51
19.26
16.59
14.04
12.14
11.19
11.10
11.50
11.96
12.23
12.28
12.18
11.97
11.55
10.66
9.09
6.82
4.14
1.45
-0.87
-2.68
-4.15
-5.58
-7.23
-9.12
-11.05
-12.77
-14.20
-15.44
-16.74
-18.30
-20.04
-21.64
-22.72
-23.09
-22.95
-22.75
-23.01
-23.85
-24.86
-25.10
-23.49
-19.30
-12.47
-3.83
5.22
13.13
18.73
21.54
21.82
20.33
17.89
15.04
11.86
8.16
3.69
-1.43
-6.63
-11.07
-13.97
-14.95
-14.22
-12.37
-10.08
-7.76
-5.49
-3.11
-0.58
1.85
3.56
3.85
2.26
-1.10
-5.57
-10.08
-13.61
-15.61
-16.12
-15.80
-15.51
-15.98
-17.45
-19.54
-21.43
-22.07
-20.50
-16.13
-8.82
0.97
12.25
23.64
33.64
40.98
44.85
45.07
42.02
36.47
29.34
21.53
13.86
7.02
1.45
-2.65
-5.40
-7.20
-8.56
-9.88
-11.34
-12.88
-14.32
-15.55
-16.67
-17.96
-19.78
-22.40
-25.82
-29.82
-33.97
-37.82
-41.05
-43.58
-45.57
-47.43
-49.60
-52.42
-55.89
-59.53
-62.42
-63.43
-61.56
-56.30
-47.83
-36.99
-25.07
-13.39
-3.06
5.32
11.57
15.83
18.31
19.19
18.60
16.68
13.70
10.19
6.96
4.99
5.20
8.17
13.89
21.70
30.35
38.37
44.47
47.77
48.00
45.39
40.46
33.86
26.22
18.11
10.05
2.46
-4.42
-10.56
-16.14
-21.35
-26.32
-30.84
-34.32
-35.86
-34.53
-29.70
-21.38
-10.35
1.99
14.02
24.33
32.05
37.00
39.42
39.86
38.82
36.70
33.74
30.05
25.71
20.79
15.46
10.05
5.01
0.85
-2.02
-3.48
-3.74
-3.22
-2.42
-1.76
-1.45
-1.46
-1.55
-1.38
-0.66
0.69
2.39
3.80
4.12
2.66
-0.94
-6.56
-13.65
-21.33
-28.56
-34.21
-37.18
-36.62
-32.16
-24.13
-13.56
-1.95
9.16
18.57
25.68
30.36
32.74
33.06
31.49
28.22
23.58
18.08
12.31
6.86
2.11
-1.74
-4.59
-6.41
-7.17
-6.91
-5.85
-4.39
-3.08
-2.40
-2.62
-3.74
-5.52
-7.67
-10.05
-12.68
-15.71
-19.27
-23.41
-27.97
-32.57
-36.63
-39.25
-39.37
-36.04
-28.71
-17.68
-4.15
10.00
22.80
32.73
39.13
42.15
42.44
40.71
37.49
33.04
27.56
21.34
14.75
8.23
2.19
-3.06
-7.28
-10.32
-12.12
-12.79
-12.62
-12.04
-11.55
-11.58
-12.39
-14.07
-16.56
-19.67
-23.20
-26.94
-30.76
-34.68
-38.82
-43.33
-48.20
-53.12
-57.32
-59.75
-59.31
-55.17
-47.11
-35.63
-21.87
-7.28
6.69
18.96
28.95
36.56
42.01
45.58
47.48
47.79
46.55
43.91
40.17
35.83
31.40
27.31
23.79
20.87
18.46
16.44
14.71
13.23
11.96
10.81
9.65
8.32
6.72
4.74
2.34
-0.54
-3.96
-7.94
-12.38
-16.94
-20.99
-23.71
-24.26
-22.05
-16.96
-9.42
-0.31
9.28
18.29
25.90
31.56
35.01
36.24
35.37
32.67
28.53
23.47
18.04
12.80
8.25
4.73
2.38
1.13
0.73
0.84
1.11
1.25
1.07
0.50
-0.47
-1.80
-3.44
-5.39
-7.65
-10.26
-13.32
-16.89
-20.94
-25.26
-29.38
-32.61
-34.10
-33.14
-29.31
-22.73
-13.97
-4.03
6.00
15.13
22.65
28.19
31.62
33.00
32.52
30.46
27.21
23.26
19.12
15.28
12.12
9.90
8.69
8.46
9.03
10.09
11.25
12.15
12.50
12.13
11.08
9.48
7.48
5.20
2.72
0.08
-2.71
-5.62
-8.68
-11.91
-15.29
-18.61
-21.41
-22.91
-22.29
-18.92
-12.66
-3.96
6.20
16.64
26.23
34.15
39.94
43.43
44.66
43.82
41.22
37.24
32.35
26.96
21.45
16.05
10.98
6.41
2.52
-0.55
-2.72
-4.06
-4.79
-5.23
-5.75
-6.65
-8.13
-10.23
-12.83
-15.78
-18.86
-21.97
-25.11
-28.39
-32.07
-36.39
-41.47
-47.17
-52.96
-57.96
-61.10
-61.45
-58.44
-52.09
-42.98
-32.09
-20.57
-9.48
0.32
8.24
13.90
17.13
17.91
16.37
12.89
8.06
2.67
-2.45
-6.61
-9.43
-10.92
-11.37
-11.23
-10.90
-10.64
-10.56
-10.71
-11.19
-12.12
-13.62
-15.73
-18.44
-21.67
-25.31
-29.18
-32.90
-35.83
-37.07
-35.71
-31.15
-23.38
-13.10
-1.53
9.94
20.20
28.61
35.00
39.47
42.13
43.05
42.29
40.05
36.77
33.05
29.48
26.46
24.10
22.24
20.62
19.00
17.31
15.61
14.00
12.53
11.14
9.71
8.03
5.92
3.28
0.08
-3.62
-7.73
-12.19
-16.87
-21.54
-25.73
-28.70
-29.58
-27.64
-22.55
-14.61
-4.71
5.87
15.84
24.21
30.42
34.33
36.09
35.95
34.24
31.34
27.76
24.05
20.79
18.40
17.06
16.62
16.73
17.00
17.09
16.84
16.31
15.64
15.00
14.48
14.10
13.76
13.37
12.81
12.00
10.79
8.97
6.29
2.59
-2.03
-7.02
-11.42
-14.03
-13.80
-10.20
-3.47
5.46
15.24
24.54
32.39
38.23
41.87
43.31
42.59
39.81
35.15
28.92
21.58
13.69
5.80
-1.52
-7.74
-12.36
-15.00
-15.49
-13.97
-10.94
-7.17
-3.60
-1.06
-0.10
-0.88
-3.17
-6.46
-10.12
-13.63
-16.70
-19.34
-21.82
-24.62
-28.14
-32.51
-37.41
-41.95
-44.86
-44.86
-41.12
-33.57
-23.00
-10.83
1.28
11.98
20.46
26.57
30.57
32.86
33.74
33.32
31.54
28.40
24.09
18.97
13.53
8.25
3.49
-0.55
-3.72
-5.93
-7.15
-7.48
-7.24
-6.94
-7.16
-8.37
-10.80
-14.35
-18.62
-23.10
-27.28
-30.83
-33.63
-35.88
-37.97
-40.37
-43.41
-47.04
-50.74
-53.60
-54.52
-52.59
-47.35
-39.03
-28.51
-17.06
-6.05
3.40
10.62
15.31
17.52
17.46
15.48
12.08
7.91
3.73
0.26
-2.02
-3.00
-2.90
-2.17
-1.23
-0.32
0.56
1.55
2.74
4.10
5.38
6.22
6.24
5.21
3.17
0.38
-2.67
-5.40
-7.30
-8.03
-7.59
-6.36
-5.02
-4.46
-5.47
-8.42
-13.02
-18.28
-22.73
-24.81
-23.37
-18.05
-9.29
1.81
13.88
25.68
36.33
45.28
52.26
57.09
59.67
60.03
58.40
55.29
51.46
47.74
44.73
42.66
41.28
40.03
38.30
35.73
32.33
28.45
24.62
21.26
18.61
16.66
15.24
14.14
13.06
11.59
9.20
5.33
-0.43
-8.14
-17.49
-27.90
-38.70
-49.22
-58.89
-67.12
-73.24
-76.55
-76.47
-72.81
-65.91
-56.70
-46.41
-36.33
-27.39
-20.08
-14.38
-10.00
-6.62
-4.03
-2.20
-1.14
-0.75
-0.74
-0.69
-0.20
0.96
2.81
5.18
7.91
10.82
13.80
16.70
19.28
21.29
22.46
22.65
21.88
20.31
18.18
15.74
13.14
10.41
7.50
4.25
0.53
-3.74
-8.46
-13.35
-17.94
-21.63
-23.77
-23.85
-21.64
-17.32
-11.48
-5.06
0.94
5.73
8.91
10.50
10.79
10.09
8.61
6.37
3.37
-0.33
-4.48
-8.62
-12.23
-14.89
-16.36
-16.64
-15.94
-14.57
-12.88
-11.17
-9.67
-8.47
-7.60
-7.01
-6.68
-6.59
-6.79
-7.38
-8.45
-10.05
-12.21
-14.88
-17.89
-20.94
-23.50
-24.86
-24.27
-21.19
-15.51
-7.67
1.39
10.51
18.67
25.17
29.73
32.30
33.00
31.95
29.31
25.43
20.79
15.97
11.52
7.86
5.22
3.65
3.06
3.25
3.89
4.61
4.99
4.73
3.73
2.07
-0.05
-2.38
-4.71
-7.01
-9.36
-11.94
-14.97
-18.53
-22.44
-26.19
-28.99
-29.96
-28.44
-24.17
-17.42
-8.81
0.80
10.49
19.40
26.76
31.97
34.61
34.56
31.96
27.26
21.05
13.97
6.61
-0.52
-6.98
-12.46
-16.71
-19.69
-21.50
-22.41
-22.72
-22.72
-22.59
-22.37
-22.03
-21.55
-20.99
-20.54
-20.48
-21.10
-22.57
-24.89
-27.89
-31.22
-34.34
-36.59
-37.25
-35.65
-31.36
-24.34
-15.02
-4.21
7.11
17.93
27.49
35.32
41.26
45.34
47.75
48.72
48.47
47.16
44.92
41.90
38.33
34.51
30.84
27.65
25.16
23.38
22.14
21.15
20.10
18.72
16.84
14.42
11.51
8.26
4.79
1.22
-2.46
-6.30
-10.44
-15.00
-20.11
-25.76
-31.78
-37.73
-42.89
-46.37
-47.30
-45.08
-39.67
-31.62
-22.03
-12.16
-3.14
4.32
9.99
14.00
16.64
18.16
18.71
18.33
17.11
15.26
13.19
11.36
10.21
9.95
10.59
11.95
13.85
16.18
18.91
21.97
25.06
27.60
28.89
28.37
25.87
21.75
16.76
11.74
7.31
3.74
0.93
-1.38
-3.48
-5.53
-7.55
-9.50
-11.39
-13.32
-15.52
-18.30
-21.84
-26.07
-30.56
-34.49
-36.82
-36.58
-33.18
-26.53
-17.19
-6.15
5.36
16.17
25.40
32.57
37.53
40.40
41.42
40.87
39.09
36.48
33.55
30.81
28.69
27.38
26.81
26.76
26.94
27.14
27.26
27.24
27.02
26.40
25.15
23.06
20.04
16.15
11.59
6.60
1.36
-4.00
-9.43
-14.86
-20.16
-25.09
-29.35
-32.67
-34.89
-36.09
-36.49
-36.46
-36.41
-36.72
-37.64
-39.33
-41.67
-44.19
-46.09
-46.28
-43.74
-37.90
-28.94
-17.81
-5.95
5.15
14.38
21.24
25.77
28.33
29.30
28.98
27.55
25.26
22.44
19.57
17.09
15.28
14.17
13.55
13.15
12.74
12.31
12.06
12.33
13.42
15.49
18.39
21.69
24.78
26.94
27.65
26.66
24.10
20.38
16.08
11.76
7.83
4.52
1.85
-0.30
-2.17
-4.07
-6.27
-8.99
-12.28
-16.01
-19.93
-23.77
-27.32
-30.56
-33.58
-36.48
-39.26
-41.65
-43.09
-42.92
-40.52
-35.60
-28.36
-19.44
-9.80
-0.41
7.93
14.73
19.78
23.11
24.84
25.18
24.39
22.77
20.68
18.48
16.48
14.92
13.87
13.28
13.00
12.86
12.74
12.63
12.62
12.81
13.24
13.83
14.38
14.66
14.51
13.99
13.29
12.70
12.39
12.35
12.34
12.06
11.24
9.82
7.96
5.88
3.75
1.54
-0.97
-4.12
-8.22
-13.41
-19.58
-26.39
-33.25
-39.42
-44.06
-46.42
-45.96
-42.60
-36.73
-29.17
-20.94
-13.01
-6.14
-0.77
2.88
4.76
4.95
3.70
1.37
-1.51
-4.36
-6.68
-8.16
-8.75
-8.58
-7.90
-6.91
-5.74
-4.42
-2.91
-1.12
0.99
3.46
6.17
8.89
11.27
12.89
13.36
12.42
10.07
6.56
2.39
-1.82
-5.50
-8.22
-9.81
-10.39
-10.25
-9.87
-9.80
-10.56
-12.55
-15.85
-20.10
-24.50
-27.91
-29.18
-27.55
-22.91
-15.87
-7.50
0.99
8.59
14.75
19.31
22.47
24.53
25.83
26.59
26.85
26.44
25.07
22.47
18.60
13.71
8.34
3.15
-1.31
-4.71
-7.00
-8.26
-8.64
-8.29
-7.35
-5.99
-4.44
-2.91
-1.56
-0.47
0.34
0.89
1.11
0.87
-0.07
-1.98
-5.13
-9.64
-15.27
-21.44
-27.17
-31.34
-32.96
-31.47
-26.87
-19.72
-10.94
-1.55
7.54
15.64
22.29
27.23
30.35
31.70
31.50
30.13
28.06
25.73
23.47
21.46
19.72
18.25
17.03
16.11
15.52
15.24
15.16
15.07
14.75
14.00
12.69
10.78
8.27
5.23
1.83
-1.74
-5.24
-8.51
-11.57
-14.64
-18.04
-22.01
-26.54
-31.11
-34.88
-36.79
-35.99
-32.08
-25.30
-16.44
-6.65
2.92
11.30
17.86
22.33
24.68
25.10
23.87
21.38
18.07
14.43
10.92
7.88
5.52
3.92
3.08
2.94
3.42
4.36
5.51
6.52
7.05
6.88
5.94
4.32
2.19
-0.31
-3.09
-6.10
-9.29
-12.66
-16.23
-20.13
-24.46
-29.20
-33.97
-37.96
-40.05
-39.18
-34.73
-26.78
-16.15
-4.19
7.75
18.61
27.83
35.32
41.21
45.66
48.69
50.26
50.31
48.84
46.00
42.08
37.40
32.33
27.19
22.23
17.61
13.39
9.54
6.02
2.72
-0.47
-3.75
-7.39
-11.61
-16.56
-22.16
-28.19
-34.35
-40.37
-46.13
-51.60
-56.78
-61.63
-66.08
-70.03
-73.40
-76.01
-77.55
-77.53
-75.39
-70.79
-63.76
-54.82
-44.86
-34.87
-25.61
-17.54
-10.79
-5.35
-1.15
1.88
3.84
4.92
5.39
5.55
5.61
5.68
5.80
5.95
6.12
6.30
6.46
6.58
6.64
6.69
6.82
7.10
7.50
7.86
7.85
7.14
5.54
3.15
0.36
-2.15
-3.63
-3.47
-1.29
2.87
8.61
15.22
21.88
27.84
32.61
36.10
38.50
40.11
41.12
41.46
40.82
38.92
35.70
31.48
26.93
22.81
19.72
17.82
16.86
16.35
15.81
14.94
13.72
12.33
10.90
9.45
7.85
5.87
3.35
0.22
-3.54
-7.89
-12.74
-17.83
-22.61
-26.19
-27.52
-25.76
-20.60
-12.53
-2.71
7.35
16.32
23.33
28.16
31.04
32.33
32.36
31.23
28.96
25.64
21.51
17.02
12.69
8.93
5.99
3.85
2.35
1.23
0.25
-0.76
-1.89
-3.21
-4.80
-6.76
-9.21
-12.22
-15.73
-19.62
-23.70
-27.78
-31.74
-35.47
-38.77
-41.26
-42.32
-41.28
-37.65
-31.38
-22.96
-13.31
-3.46
5.72
13.75
20.47
25.90
30.03
32.74
33.84
33.25
31.18
28.10
24.67
21.46
18.80
16.79
15.33
14.32
13.71
13.54
13.77
14.19
14.42
13.99
12.55
10.03
6.70
3.05
-0.43
-3.47
-6.14
-8.81
-11.98
-16.00
-20.91
-26.26
-31.24
-34.80
-35.96
-34.01
-28.72
-20.38
-9.81
1.89
13.47
23.90
32.44
38.81
43.04
45.34
45.95
45.10
43.02
40.04
36.64
33.38
30.87
29.57
29.70
31.24
33.88
37.10
40.31
42.92
44.57
45.11
44.58
43.08
40.55
36.84
31.75
25.25
17.68
9.69
2.07
-4.55
-9.90
-14.17
-17.77
-21.19
-24.71
-28.35
-31.86
-34.75
-36.44
-36.34
-34.02
-29.31
-22.47
-14.13
-5.19
3.37
10.73
16.38
20.13
22.07
22.45
21.55
19.64
16.93
13.61
9.79
5.61
1.20
-3.30
-7.76
-12.05
-16.00
-19.46
-22.26
-24.31
-25.63
-26.42
-27.00
-27.71
-28.81
-30.38
-32.33
-34.49
-36.69
-38.85
-41.00
-43.21
-45.59
-48.16
-50.85
-53.45
-55.54
-56.54
-55.79
-52.68
-46.87
-38.43
-27.89
-16.17
-4.30
6.70
16.11
23.52
28.80
32.11
33.69
33.85
32.90
31.12
28.78
26.12
23.37
20.76
18.46
16.57
15.09
13.92
12.92
11.99
11.06
10.06
8.88
7.37
5.30
2.51
-0.98
-4.97
-9.07
-12.92
-16.29
-19.22
-21.98
-24.94
-28.42
-32.42
-36.57
-40.10
-42.01
-41.36
-37.62
-30.89
-21.88
-11.72
-1.63
7.44
14.93
20.71
24.85
27.49
28.74
28.66
27.40
25.24
22.60
19.97
17.74
16.12
15.14
14.69
14.63
14.87
15.35
15.91
16.34
16.28
15.44
13.66
11.02
7.80
4.35
0.97
-2.20
-5.18
-8.11
-11.24
-14.77
-18.83
-23.33
-27.85
-31.66
-33.84
-33.57
-30.44
-24.64
-16.90
-8.27
0.20
7.69
13.75
18.21
21.05
22.35
22.21
20.83
18.51
15.62
12.54
9.64
7.15
5.26
4.06
3.53
3.59
4.02
4.55
4.84
4.69
3.96
2.70
1.03
-0.88
-2.90
-5.01
-7.31
-10.01
-13.32
-17.31
-21.87
-26.58
-30.77
-33.70
-34.67
-33.27
-29.50
-23.72
-16.62
-8.96
-1.51
5.07
10.25
13.69
15.22
14.89
12.96
9.83
5.96
1.84
-2.15
-5.70
-8.59
-10.69
-11.98
-12.52
-12.45
-11.97
-11.27
-10.53
-9.93
-9.64
-9.80
-10.44
-11.46
-12.64
-13.72
-14.58
-15.28
-16.06
-17.14
-18.59
-20.15
-21.24
-21.11
-19.05
-14.59
-7.66
1.41
11.90
22.89
33.38
42.51
49.66
54.58
57.33
58.17
57.49
55.67
53.01
49.80
46.32
42.81
39.54
36.75
34.58
33.06
32.10
31.45
30.78
29.74
28.06
25.66
22.64
19.18
15.43
11.42
6.97
1.81
-4.35
-11.68
-20.14
-29.42
-38.92
-47.82
-55.11
-59.82
-61.21
-59.03
-53.62
-45.87
-37.00
-28.26
-20.65
-14.70
-10.51
-7.89
-6.51
-6.11
-6.49
-7.57
-9.29
-11.46
-13.86
-16.13
-17.91
-18.94
-19.05
-18.29
-16.83
-14.97
-13.04
-11.39
-10.32
-9.99
-10.40
-11.39
-12.62
-13.70
-14.40
-14.69
-14.83
-15.28
-16.49
-18.81
-22.21
-26.27
-30.10
-32.50
-32.10
-27.80
-19.12
-6.45
8.95
25.32
40.82
54.01
64.06
70.72
74.13
74.60
72.53
68.36
62.67
56.12
49.36
42.95
37.20
32.19
27.82
23.95
20.47
17.36
14.72
12.62
11.06
9.87
8.79
7.45
5.57
3.01
-0.18
-3.80
-7.59
-11.32
-14.94
-18.53
-22.31
-26.54
-31.37
-36.76
-42.36
-47.51
-51.29
-52.70
-50.88
-45.45
-36.58
-25.08
-12.15
0.83
12.67
22.54
30.00
34.98
37.59
38.02
36.55
33.51
29.35
24.62
19.87
15.60
12.10
9.45
7.56
6.25
5.36
4.75
4.32
3.94
3.38
2.35
0.53
-2.25
-5.93
-10.22
-14.69
-18.90
-22.58
-25.70
-28.44
-31.13
-34.09
-37.51
-41.37
-45.37
-48.84
-50.91
-50.60
-47.15
-40.29
-30.40
-18.47
-5.82
6.23
16.72
25.10
31.25
35.25
37.28
37.51
36.17
33.56
30.09
26.19
22.31
18.72
15.57
12.90
10.69
8.97
7.76
7.12
7.00
7.22
7.45
7.28
6.40
4.68
2.23
-0.62
-3.55
-6.30
-8.83
-11.30
-13.96
-17.10
-20.87
-25.12
-29.43
-33.01
-34.88
-34.13
-30.17
-23.02
-13.35
-2.29
8.82
18.76
26.67
32.12
35.01
35.54
34.00
30.79
26.38
21.31
16.09
11.21
7.05
3.77
1.41
-0.12
-0.96
-1.28
-1.23
-0.96
-0.67
-0.54
-0.80
-1.55
-2.83
-4.53
-6.48
-8.50
-10.58
-12.86
-15.66
-19.21
-23.55
-28.25
-32.42
-34.89
-34.63
-31.05
-24.25
-15.01
-4.50
6.03
15.51
23.22
28.75
31.96
32.88
31.73
28.83
24.62
19.62
14.34
9.26
4.80
1.25
-1.19
-2.50
-2.82
-2.47
-1.88
-1.44
-1.45
-2.01
-3.07
-4.50
-6.16
-7.98
-9.98
-12.21
-14.75
-17.70
-21.12
-24.91
-28.74
-31.94
-33.61
-32.86
-29.09
-22.27
-13.04
-2.56
7.87
17.12
24.42
29.50
32.36
33.19
32.20
29.57
25.54
20.46
14.84
9.28
4.37
0.54
-2.05
-3.54
-4.23
-4.50
-4.65
-4.89
-5.28
-5.89
-6.76
-8.00
-9.71
-11.95
-14.77
-18.16
-22.08
-26.46
-31.13
-35.66
-39.34
-41.27
-40.56
-36.65
-29.58
-19.99
-9.02
2.04
12.04
20.16
25.98
29.39
30.47
29.40
26.43
21.89
16.23
9.99
3.73
-2.06
-7.07
-11.19
-14.51
-17.17
-19.33
-20.98
-22.03
-22.33
-21.83
-20.57
-18.77
-16.71
-14.66
-12.93
-11.72
-11.20
-11.38
-12.10
-12.96
-13.32
-12.43
-9.61
-4.48
2.90
11.93
21.63
30.87
38.64
44.28
47.53
48.53
47.63
45.26
41.80
37.58
32.90
28.09
23.49
19.45
16.17
13.66
11.78
10.32
9.16
8.33
7.96
8.19
8.99
10.10
11.02
11.18
10.08
7.43
3.23
-2.31
-8.71
-15.28
-21.15
-25.35
-26.95
-25.34
-20.42
-12.67
-3.12
6.91
16.16
23.64
28.83
31.66
32.34
31.21
28.59
24.78
19.99
14.46
8.49
2.51
-3.01
-7.55
-10.76
-12.51
-12.97
-12.56
-11.84
-11.29
-11.19
-11.58
-12.34
-13.30
-14.36
-15.55
-17.06
-19.14
-22.02
-25.76
-30.22
-34.91
-39.01
-41.47
-41.31
-37.84
-30.93
-21.11
-9.37
3.02
14.87
25.28
33.67
39.74
43.39
44.65
43.70
40.88
36.72
31.88
27.06
22.80
19.45
17.04
15.39
14.13
12.84
11.19
9.00
6.31
3.27
0.15
-2.86
-5.69
-8.46
-11.39
-14.73
-18.71
-23.36
-28.43
-33.36
-37.30
-39.24
-38.35
-34.22
-27.08
-17.79
-7.61
2.17
10.53
16.91
21.16
23.39
23.77
22.45
19.56
15.40
10.43
5.32
0.74
-2.80
-5.13
-6.45
-7.18
-7.83
-8.71
-9.94
-11.42
-12.99
-14.57
-16.25
-18.22
-20.74
-23.96
-27.92
-32.47
-37.33
-42.05
-46.04
-48.57
-48.90
-46.40
-40.77
-32.20
-21.40
-9.49
2.28
12.78
21.20
27.10
30.34
30.96
29.13
25.19
19.68
13.36
7.13
1.84
-1.92
-3.91
-4.24
-3.28
-1.42
0.93
3.51
6.17
8.80
11.34
13.78
16.05
18.02
19.47
20.01
19.25
16.97
13.33
9.04
5.24
3.31
4.42
9.14
17.21
27.61
38.92
49.64
58.63
65.29
69.49
71.46
71.57
70.16
67.56
64.02
59.81
55.32
50.97
47.13
43.99
41.44
39.12
36.53
33.28
29.15
24.12
18.32
11.89
5.00
-2.12
-9.14
-15.66
-21.42
-26.46
-31.15
-36.07
-41.71
-48.04
-54.44
-59.68
-62.33
-61.24
-55.89
-46.58
-34.34
-20.56
-6.70
6.05
16.85
25.20
30.85
33.71
33.85
31.44
26.79
20.30
12.41
3.68
-5.23
-13.49
-20.24
-24.77
-26.69
-26.11
-23.62
-20.09
-16.47
-13.65
-12.33
-13.02
-16.03
-21.35
-28.59
-36.97
-45.50
-53.20
-59.40
-64.00
-67.45
-70.56
-74.15
-78.63
-83.69
-88.26
-90.77
-89.62
-83.80
-73.24
-58.91
-42.54
-26.06
-11.16
1.14
10.44
16.83
20.65
22.33
22.26
20.91
18.74
16.31
14.05
12.30
11.11
10.40
9.98
9.70
9.54
9.58
9.93
10.62
11.53
12.43
12.99
12.90
11.95
10.15
7.66
4.79
1.93
-0.60
-2.66
-4.35
-5.94
-7.78
-10.07
-12.67
-15.06
-16.43
-15.91
-12.84
-6.97
1.43
11.58
22.38
32.59
41.13
47.26
50.67
51.52
50.17
47.12
42.83
37.73
32.25
26.83
21.86
17.57
14.03
11.14
8.78
6.84
5.35
4.32
3.70
3.39
3.20
2.90
2.31
1.23
-0.49
-2.93
-6.02
-9.51
-13.02
-16.18
-18.81
-21.02
-23.16
-25.70
-28.99
-33.05
-37.53
-41.69
-44.58
-45.23
-42.90
-37.28
-28.55
-17.42
-4.96
7.63
19.25
29.00
36.38
41.15
43.34
43.19
41.04
37.42
32.94
28.30
24.22
21.30
19.90
20.05
21.40
23.28
24.98
25.90
25.78
24.73
23.06
21.10
18.98
16.57
13.63
9.98
5.68
1.03
-3.57
-7.76
-11.45
-14.74
-17.93
-21.32
-25.16
-29.54
-34.39
-39.38
-43.93
-47.24
-48.37
-46.54
-41.37
-33.09
-22.48
-10.72
0.93
11.47
20.31
27.28
32.49
36.13
38.32
39.05
38.25
35.94
32.37
28.02
23.52
19.50
16.44
14.53
13.73
13.82
14.50
15.49
16.53
17.33
17.59
17.04
15.46
12.86
9.41
5.49
1.56
-2.02
-5.04
-7.59
-9.97
-12.58
-15.75
-19.65
-24.21
-29.13
-33.86
-37.67
-39.76
-39.37
-36.04
-29.79
-21.22
-11.35
-1.34
7.76
15.31
21.06
25.03
27.32
28.01
27.13
24.79
21.24
16.94
12.52
8.56
5.53
3.60
2.74
2.71
3.21
3.97
4.75
5.35
5.60
5.32
4.39
2.74
0.48
-2.18
-4.94
-7.55
-9.84
-11.86
-13.78
-15.88
-18.42
-21.56
-25.28
-29.28
-33.03
-35.76
-36.66
-35.04
-30.54
-23.33
-14.06
-3.76
6.46
15.56
22.82
27.84
30.50
31.00
29.67
27.01
23.52
19.69
15.92
12.47
9.54
7.23
5.62
4.71
4.42
4.53
4.78
4.85
4.56
3.80
2.59
0.99
-0.89
-3.01
-5.31
-7.77
-10.37
-13.13
-16.13
-19.52
-23.35
-27.45
-31.30
-34.08
-34.85
-32.88
-27.94
-20.37
-11.00
-0.88
8.95
17.67
24.75
29.80
32.64
33.25
31.84
28.82
24.78
20.36
16.11
12.45
9.59
7.56
6.26
5.53
5.18
5.13
5.28
5.54
5.68
5.41
4.38
2.41
-0.46
-3.91
-7.52
-10.92
-13.96
-16.75
-19.54
-22.64
-26.25
-30.46
-35.10
-39.73
-43.59
-45.66
-44.92
-40.72
-33.07
-22.73
-11.03
0.56
10.82
19.06
25.10
29.09
31.29
31.90
31.08
29.03
26.10
22.74
19.44
16.58
14.27
12.43
10.84
9.35
7.94
6.77
6.03
5.81
5.95
6.08
5.71
4.47
2.25
-0.68
-3.85
-6.71
-8.91
-10.39
-11.37
-12.24
-13.45
-15.37
-18.21
-22.02
-26.51
-31.05
-34.63
-36.05
-34.29
-28.87
-20.12
-9.10
2.72
13.92
23.55
31.25
37.18
41.66
44.89
46.82
47.21
45.85
42.75
38.25
32.94
27.49
22.42
18.00
14.30
11.22
8.65
6.55
4.93
3.81
3.14
2.79
2.63
2.56
2.53
2.52
2.49
2.33
1.85
0.89
-0.64
-2.75
-5.30
-8.12
-10.96
-13.58
-15.79
-17.57
-19.09
-20.78
-23.09
-26.27
-30.15
-33.99
-36.71
-37.29
-35.11
-30.23
-23.28
-15.25
-7.10
0.40
6.78
11.85
15.49
17.71
18.54
18.12
16.71
14.67
12.41
10.29
8.54
7.28
6.54
6.32
6.65
7.58
9.17
11.31
13.72
15.93
17.44
17.95
17.46
16.26
14.78
13.33
11.97
10.49
8.57
6.00
2.82
-0.70
-4.21
-7.46
-10.36
-12.99
-15.50
-18.00
-20.59
-23.36
-26.38
-29.67
-32.96
-35.71
-37.10
-36.28
-32.72
-26.41
-18.01
-8.58
0.70
8.90
15.56
20.64
24.40
27.18
29.27
30.79
31.74
32.01
31.52
30.25
28.34
26.06
23.72
21.56
19.69
18.07
16.59
15.17
13.79
12.47
11.16
9.74
8.04
5.98
3.62
1.11
-1.36
-3.70
-5.98
-8.39
-11.05
-14.01
-17.17
-20.33
-23.36
-26.21
-28.99
-31.88
-35.02
-38.40
-41.67
-44.24
-45.30
-44.12
-40.26
-33.78
-25.25
-15.56
-5.72
3.38
11.15
17.22
21.42
23.73
24.22
23.11
20.77
17.70
14.48
11.63
9.52
8.31
7.96
8.24
8.91
9.73
10.48
11.00
11.12
10.66
9.52
7.66
5.16
2.21
-0.99
-4.26
-7.46
-10.53
-13.42
-16.10
-18.53
-20.72
-22.76
-24.77
-26.91
-29.29
-31.92
-34.69
-37.34
-39.44
-40.40
-39.50
-36.02
-29.49
-19.87
-7.68
6.11
20.24
33.54
45.12
54.39
61.00
64.76
65.61
63.77
59.76
54.42
48.71
43.43
39.02
35.54
32.76
30.41
28.29
26.27
24.32
22.33
20.12
17.45
14.12
9.97
5.05
-0.46
-6.23
-11.87
-17.04
-21.59
-25.60
-29.32
-33.04
-36.91
-40.90
-44.80
-48.32
-51.27
-53.55
-55.16
-56.16
-56.67
-56.84
-56.87
-56.97
-57.15
-57.12
-56.19
-53.44
-48.00
-39.48
-28.17
-15.08
-1.58
11.01
21.75
30.27
36.59
40.97
43.64
44.79
44.62
43.38
41.39
39.01
36.54
34.16
32.00
30.16
28.77
27.90
27.48
27.27
26.87
25.95
24.37
22.28
20.04
17.97
16.20
14.57
12.71
10.28
7.14
3.40
-0.66
-4.79
-8.83
-12.81
-16.86
-21.09
-25.60
-30.40
-35.45
-40.58
-45.42
-49.41
-51.81
-51.96
-49.45
-44.29
-36.95
-28.15
-18.73
-9.39
-0.62
7.25
14.01
19.40
23.18
25.10
25.12
23.40
20.38
16.73
13.13
10.17
8.18
7.22
7.12
7.68
8.69
9.99
11.49
13.02
14.39
15.31
15.52
14.77
13.01
10.31
6.91
3.09
-0.89
-4.87
-8.84
-12.87
-17.09
-21.61
-26.37
-31.15
-35.55
-39.00
-40.88
-40.69
-38.16
-33.31
-26.47
-18.22
-9.22
-0.11
8.57
16.40
23.03
28.14
31.41
32.61
31.66
28.73
24.27
18.97
13.59
8.82
5.15
2.86
2.04
2.66
4.49
7.10
9.86
12.02
12.93
12.30
10.30
7.45
4.44
1.81
-0.25
-1.92
-3.61
-5.80
-8.77
-12.53
-16.70
-20.60
-23.38
-24.21
-22.49
-18.02
-11.14
-2.59
6.53
15.04
21.92
26.44
28.30
27.57
24.62
19.98
14.23
7.92
1.51
-4.61
-10.09
-14.65
-18.06
-20.18
-20.99
-20.62
-19.37
-17.65
-15.88
-14.38
-13.35
-12.83
-12.79
-13.15
-13.85
-14.91
-16.35
-18.20
-20.53
-23.34
-26.64
-30.28
-33.94
-37.02
-38.74
-38.26
-34.94
-28.58
-19.47
-8.36
3.72
15.67
26.48
35.31
41.57
44.96
45.48
43.50
39.67
34.79
29.67
24.96
21.01
17.95
15.69
14.02
12.75
11.73
10.91
10.28
9.83
9.51
9.17
8.61
7.64
6.15
4.11
1.60
-1.23
-4.29
-7.49
-10.86
-14.38
-18.02
-21.58
-24.69
-26.72
-26.96
-24.72
-19.67
-11.96
-2.32
8.05
17.84
25.92
31.67
34.98
36.20
35.88
34.52
32.51
30.09
27.49
24.92
22.56
20.52
18.83
17.48
16.42
15.66
15.21
15.04
15.05
15.09
15.02
14.73
14.17
13.37
12.34
11.07
9.53
7.67
5.44
2.79
-0.34
-4.02
-8.25
-12.90
-17.59
-21.69
-24.42
-24.99
-22.92
-18.18
-11.31
-3.31
4.68
11.67
17.07
20.78
23.00
23.99
23.96
22.94
20.90
17.94
14.33
10.51
6.97
4.08
2.04
0.81
0.23
0.07
0.15
0.35
0.54
0.65
0.55
0.15
-0.64
-1.87
-3.51
-5.49
-7.72
-10.08
-12.41
-14.63
-16.68
-18.66
-20.75
-23.25
-26.34
-30.01
-33.87
-37.14
-38.85
-38.11
-34.40
-27.85
-19.17
-9.49
-0.02
8.31
14.99
19.87
23.05
24.66
24.79
23.54
21.12
17.91
14.40
11.09
8.31
6.21
4.73
3.72
3.04
2.59
2.34
2.24
2.27
2.32
2.26
1.91
1.06
-0.46
-2.70
-5.55
-8.80
-12.17
-15.44
-18.49
-21.35
-24.14
-27.03
-30.17
-33.68
-37.62
-41.82
-45.87
-49.01
-50.32
-48.94
-44.42
-36.94
-27.27
-16.62
-6.24
2.83
10.00
15.05
18.09
19.39
19.28
18.14
16.32
14.21
12.12
10.29
8.84
7.78
7.09
6.71
6.62
6.84
7.43
8.38
9.62
10.97
12.17
12.90
12.92
12.12
10.59
8.56
6.38
4.31
2.48
0.79
-1.00
-3.18
-5.92
-9.20
-12.78
-16.18
-18.75
-19.80
-18.72
-15.21
-9.36
-1.72
6.82
15.21
22.55
28.21
31.93
33.72
33.78
32.36
29.75
26.29
22.32
18.20
14.28
10.80
7.94
5.77
4.25
3.31
2.83
2.66
2.64
2.54
2.14
1.24
-0.30
-2.44
-5.05
-7.88
-10.71
-13.40
-15.91
-18.37
-20.91
-23.68
-26.68
-29.74
-32.44
-34.13
-34.05
-31.52
-26.20
-18.28
-8.54
1.78
11.38
19.20
24.74
28.04
29.56
29.89
29.57
28.99
28.38
27.88
27.50
27.11
26.41
25.10
22.95
20.08
16.91
14.03
11.95
10.83
10.40
10.13
9.45
8.05
5.98
3.55
1.13
-1.12
-3.32
-5.88
-9.19
-13.39
-18.16
-22.74
-26.12
-27.36
-25.94
-21.95
-16.04
-9.24
-2.59
3.16
7.60
10.72
12.65
13.52
13.35
12.15
9.91
6.76
2.96
-1.17
-5.26
-9.04
-12.23
-14.59
-15.95
-16.21
-15.48
-14.04
-12.38
-10.98
-10.21
-10.22
-10.94
-12.13
-13.50
-14.86
-16.20
-17.68
-19.57
-22.16
-25.63
-29.85
-34.34
-38.23
-40.49
-40.19
-36.76
-30.30
-21.50
-11.47
-1.43
7.62
15.11
20.93
25.33
28.74
31.56
33.93
35.66
36.26
35.11
31.78
26.29
19.17
11.40
4.04
-2.07
-6.50
-9.28
-10.75
-11.27
-11.10
-10.34
-8.96
-6.97
-4.47
-1.73
0.92
3.12
4.56
5.08
4.68
3.53
1.97
0.50
-0.25
0.40
3.10
8.25
15.92
25.71
36.82
48.21
58.78
67.67
74.31
78.48
80.18
79.50
76.52
71.42
64.50
56.28
47.48
38.81
30.81
23.72
17.41
11.61
6.00
0.44
-5.01
-10.15
-14.79
-18.82
-22.30
-25.34
-28.04
-30.36
-32.19
-33.50
-34.54
-35.89
-38.25
-42.11
-47.32
-52.96
-57.53
-59.46
-57.63
-51.79
-42.61
-31.41
-19.68
-8.78
0.40
7.40
12.13
14.65
15.11
13.64
10.49
6.09
1.05
-3.86
-7.99
-10.94
-12.70
-13.57
-14.00
-14.38
-14.87
-15.48
-16.09
-16.60
-17.01
-17.46
-18.16
-19.33
-21.13
-23.60
-26.66
-30.09
-33.51
-36.43
-38.24
-38.36
-36.28
-31.76
-24.88
-16.11
-6.22
3.84
13.12
20.84
26.48
29.88
31.14
30.57
28.57
25.56
21.91
17.99
14.17
10.86
8.37
6.86
6.21
6.11
6.09
5.79
4.97
3.65
1.97
0.15
-1.69
-3.55
-5.54
-7.87
-10.77
-14.33
-18.54
-23.16
-27.72
-31.52
-33.76
-33.66
-30.71
-24.89
-16.71
-7.16
2.62
11.59
19.12
24.93
29.01
31.39
32.03
30.89
28.06
23.90
19.05
14.28
10.22
7.26
5.48
4.66
4.44
4.48
4.47
4.21
3.59
2.59
1.23
-0.46
-2.47
-4.87
-7.76
-11.26
-15.38
-20.04
-24.85
-29.22
-32.32
-33.31
-31.55
-26.86
-19.61
-10.69
-1.22
7.69
15.24
21.00
24.83
26.81
27.04
25.65
22.88
19.09
14.80
10.59
7.00
4.33
2.66
1.83
1.54
1.46
1.35
1.09
0.68
0.19
-0.38
-1.11
-2.16
-3.73
-5.95
-8.89
-12.56
-16.83
-21.42
-25.81
-29.21
-30.68
-29.37
-24.85
-17.28
-7.46
3.41
14.06
23.45
30.93
36.22
39.28
40.19
39.07
36.14
31.74
26.37
20.69
15.35
10.87
7.52
5.29
3.92
3.08
2.47
1.90
1.31
0.67
-0.08
-1.07
-2.42
-4.20
-6.40
-8.96
-11.86
-15.13
-18.80
-22.75
-26.59
-29.57
-30.77
-29.37
-24.89
-17.45
-7.74
3.13
13.93
23.56
31.24
36.54
39.33
39.72
37.94
34.34
29.39
23.61
17.57
11.75
6.54
2.20
-1.12
-3.28
-4.18
-3.84
-2.41
-0.20
2.37
4.87
6.96
8.33
8.74
7.97
5.84
2.31
-2.48
-8.28
-14.77
-21.72
-28.88
-35.90
-42.15
-46.72
-48.67
-47.41
-43.01
-36.20
-28.13
-19.96
-12.49
-6.14
-1.09
2.56
4.63
4.99
3.72
1.24
-1.78
-4.64
-6.84
-8.24
-8.98
-9.30
-9.37
-9.20
-8.66
-7.69
-6.40
-5.11
-4.21
-3.98
-4.45
-5.31
-6.16
-6.68
-6.84
-6.98
-7.57
-8.98
-11.17
-13.57
-15.21
-14.97
-11.95
-5.87
2.89
13.28
24.01
33.84
41.94
47.92
51.79
53.69
53.78
52.11
48.73
43.78
37.60
30.79
24.10
18.28
13.87
11.01
9.45
8.60
7.77
6.41
4.35
1.68
-1.31
-4.34
-7.28
-10.18
-13.16
-16.35
-19.85
-23.69
-27.82
-32.05
-35.99
-38.98
-40.20
-38.89
-34.62
-27.54
-18.40
-8.36
1.35
9.73
16.17
20.50
22.80
23.27
22.19
19.87
16.71
13.15
9.69
6.79
4.77
3.78
3.75
4.45
5.52
6.53
7.12
7.07
6.30
4.88
2.96
0.71
-1.79
-4.49
-7.50
-10.98
-15.12
-20.03
-25.53
-31.04
-35.62
-38.10
-37.51
-33.36
-25.87
-15.95
-4.95
5.72
14.83
21.61
25.70
27.17
26.38
23.94
20.54
16.91
13.65
11.13
9.48
8.65
8.48
8.71
9.08
9.29
9.04
8.05
6.14
3.32
-0.26
-4.30
-8.51
-12.62
-16.54
-20.30
-24.07
-28.05
-32.39
-37.12
-42.02
-46.54
-49.91
-51.22
-49.75
-45.28
-38.17
-29.36
-19.97
-11.01
-3.14
3.36
8.46
12.12
14.29
14.88
13.93
11.75
8.84
5.78
3.07
0.98
-0.38
-1.07
-1.16
-0.76
0.01
0.95
1.80
2.27
2.09
1.08
-0.85
-3.74
-7.55
-12.20
-17.54
-23.26
-28.89
-33.75
-37.08
-38.15
-36.39
-31.64
-24.19
-14.79
-4.47
5.63
14.58
21.72
26.79
29.80
30.94
30.46
28.65
25.86
22.59
19.46
17.14
16.14
16.62
18.36
20.79
23.20
25.02
25.96
25.99
25.22
23.76
21.64
18.81
15.27
11.06
6.22
0.79
-5.19
-11.59
-17.95
-23.48
-27.12
-27.92
-25.32
-19.45
-11.09
-1.37
8.47
17.43
24.83
30.33
33.80
35.30
35.04
33.32
30.56
27.17
23.51
19.88
16.55
13.78
11.81
10.82
10.81
11.62
12.95
14.54
16.23
18.00
19.85
21.64
23.10
23.77
23.31
21.64
19.03
15.94
12.86
10.01
7.32
4.49
1.21
-2.65
-6.96
-11.48
-15.95
-20.31
-24.68
-29.31
-34.43
-40.12
-46.30
-52.75
-59.16
-65.11
-70.06
-73.27
-73.93
-71.31
-65.08
-55.51
-43.50
-30.40
-17.67
-6.49
2.48
9.11
13.65
16.48
17.89
18.06
17.18
15.58
13.78
12.41
12.00
12.77
14.56
16.88
19.16
21.01
22.31
23.20
23.90
24.54
25.03
25.13
24.55
23.16
21.07
18.62
16.20
14.16
12.65
11.58
10.79
10.09
9.39
8.71
8.17
7.89
7.93
8.22
8.56
8.64
8.12
6.73
4.43
1.45
-1.61
-3.91
-4.50
-2.61
2.09
9.34
18.30
27.74
36.36
43.08
47.34
49.05
48.56
46.39
43.02
38.83
34.12
29.15
24.29
19.97
16.61
14.50
13.62
13.72
14.30
14.86
15.03
14.69
13.87
12.75
11.49
10.21
8.98
7.79
6.59
5.32
3.93
2.40
0.77
-0.94
-2.71
-4.63
-6.82
-9.45
-12.57
-16.08
-19.75
-23.23
-26.22
-28.50
-30.02
-30.91
-31.41
-31.91
-32.80
-34.38
-36.68
-39.31
-41.47
-42.17
-40.49
-35.96
-28.72
-19.52
-9.44
0.47
9.46
17.25
23.89
29.58
34.37
38.04
40.17
40.41
38.66
35.29
30.99
26.54
22.54
19.27
16.71
14.72
13.25
12.36
12.16
12.62
13.49
14.34
14.70
14.24
12.85
10.70
8.10
5.38
2.83
0.52
-1.64
-3.92
-6.58
-9.77
-13.41
-17.26
-21.01
-24.55
-27.98
-31.52
-35.28
-39.02
-42.11
-43.69
-43.01
-39.80
-34.37
-27.49
-20.15
-13.23
-7.35
-2.87
-0.02
1.10
0.49
-1.69
-5.03
-8.91
-12.63
-15.55
-17.25
-17.60
-16.74
-15.01
-12.81
-10.45
-8.13
-5.93
-3.91
-2.19
-0.99
-0.55
-0.96
-2.16
-3.82
-5.59
-7.16
-8.51
-9.82
-11.47
-13.76
-16.78
-20.32
-23.84
-26.64
-27.99
-27.35
-24.48
-19.55
-13.02
-5.56
2.09
9.20
15.12
19.37
21.60
21.72
19.89
16.53
12.23
7.61
3.22
-0.61
-3.71
-6.06
-7.67
-8.55
-8.71
-8.20
-7.21
-5.99
-4.85
-4.11
-3.98
-4.55
-5.80
-7.62
-9.80
-12.15
-14.49
-16.78
-19.09
-21.60
-24.53
-27.94
-31.65
-35.14
-37.68
-38.43
-36.72
-32.24
-25.18
-16.19
-6.22
3.67
12.53
19.69
24.78
27.70
28.60
27.76
25.60
22.60
19.27
16.04
13.25
11.09
9.55
8.53
7.84
7.31
6.83
6.35
5.86
5.33
4.66
3.70
2.30
0.40
-1.92
-4.50
-7.13
-9.68
-12.18
-14.79
-17.77
-21.26
-25.24
-29.35
-32.92
-35.09
-34.99
-31.98
-25.94
-17.33
-7.12
3.41
13.06
20.94
26.67
30.30
32.11
32.43
31.51
29.57
26.81
23.54
20.16
17.05
14.47
12.52
11.10
10.09
9.41
9.04
8.97
9.14
9.33
9.21
8.44
6.79
4.25
1.04
-2.47
-5.97
-9.24
-12.26
-15.15
-18.14
-21.46
-25.23
-29.36
-33.45
-36.79
-38.44
-37.51
-33.47
-26.38
-16.93
-6.25
4.40
13.91
21.56
27.04
30.36
31.69
31.29
29.47
26.59
23.13
19.58
16.42
13.95
12.27
11.30
10.85
10.74
10.86
11.11
11.37
11.44
11.04
9.95
8.09
5.57
2.63
-0.43
-3.41
-6.24
-8.98
-11.80
-14.94
-18.53
-22.53
-26.63
-30.15
-32.28
-32.19
-29.37
-23.77
-15.87
-6.54
3.13
12.14
19.68
25.22
28.57
29.78
29.10
26.93
23.72
19.95
16.06
12.49
9.62
7.72
6.89
7.01
7.76
8.71
9.44
9.68
9.27
8.22
6.64
4.67
2.44
0.08
-2.33
-4.77
-7.30
-10.06
-13.25
-16.98
-21.22
-25.60
-29.50
-32.10
-32.57
-30.30
-25.12
-17.37
-7.86
2.32
12.02
20.25
26.37
30.10
31.54
31.02
29.01
25.99
22.41
18.67
15.14
12.13
9.84
8.36
7.63
7.47
7.62
7.84
7.91
7.67
7.00
5.81
4.07
1.84
-0.74
-3.46
-6.16
-8.79
-11.48
-14.48
-18.05
-22.30
-26.95
-31.38
-34.61
-35.64
-33.71
-28.62
-20.74
-11.03
-0.68
9.14
17.59
24.23
29.00
32.02
33.47
33.53
32.31
30.04
27.05
23.80
20.79
18.43
16.90
16.19
16.09
16.37
16.80
17.24
17.62
17.82
17.69
17.02
15.67
13.65
11.10
8.34
5.64
3.19
0.97
-1.19
-3.53
-6.21
-9.26
-12.56
-15.86
-18.96
-21.74
-24.24
-26.66
-29.30
-32.41
-36.11
-40.22
-44.23
-47.33
-48.56
-47.06
-42.35
-34.55
-24.42
-13.10
-1.88
8.15
16.38
22.65
27.12
30.04
31.65
32.09
31.46
29.95
27.88
25.63
23.60
22.06
21.17
20.90
21.19
21.87
22.75
23.64
24.35
24.73
24.66
24.10
23.05
21.57
19.72
17.62
15.42
13.31
11.41
9.76
8.24
6.62
4.64
2.18
-0.71
-3.75
-6.55
-8.80
-10.39
-11.40
-12.15
-12.98
-14.17
-15.83
-17.90
-20.17
-22.44
-24.55
-26.46
-28.29
-30.23
-32.53
-35.43
-39.04
-43.23
-47.48
-50.93
-52.48
-51.14
-46.37
-38.36
-28.04
-16.74
-5.84
3.68
11.41
17.35
21.72
24.69
26.28
26.46
25.29
23.06
20.31
17.58
15.37
13.89
13.17
13.03
13.28
13.81
14.53
15.38
16.22
16.88
17.14
16.86
16.00
14.67
13.06
11.36
9.70
8.11
6.61
5.22
3.97
2.93
2.08
1.34
0.55
-0.39
-1.48
-2.60
-3.57
-4.29
-4.83
-5.41
-6.33
-7.89
-10.25
-13.48
-17.56
-22.34
-27.55
-32.67
-36.96
-39.55
-39.63
-36.69
-30.73
-22.29
-12.36
-2.13
7.29
15.10
20.90
24.64
26.51
26.76
25.67
23.49
20.55
17.24
14.03
11.35
9.53
8.72
8.79
9.47
10.45
11.45
12.35
13.06
13.54
13.69
13.36
12.41
10.81
8.69
6.28
3.88
1.65
-0.38
-2.38
-4.54
-7.05
-9.88
-12.88
-15.79
-18.39
-20.56
-22.42
-24.17
-26.15
-28.64
-31.74
-35.33
-38.94
-41.82
-43.07
-41.85
-37.72
-30.79
-21.76
-11.72
-1.89
6.76
13.68
18.68
21.89
23.50
23.72
22.74
20.76
18.07
15.05
12.12
9.64
7.91
7.04
7.00
7.60
8.64
9.83
10.96
11.82
12.21
12.02
11.17
9.70
7.71
5.33
2.65
-0.30
-3.51
-6.92
-10.40
-13.73
-16.74
-19.41
-21.96
-24.71
-28.01
-31.93
-36.26
-40.42
-43.60
-44.96
-43.83
-39.88
-33.27
-24.63
-14.94
-5.28
3.43
10.60
16.06
19.86
22.17
23.15
22.90
21.54
19.30
16.53
13.67
11.06
8.97
7.53
6.78
6.71
7.26
8.33
9.72
11.18
12.47
13.39
13.79
13.61
12.84
11.52
9.77
7.66
5.21
2.33
-1.16
-5.38
-10.25
-15.37
-20.15
-23.96
-26.44
-27.64
-27.98
-28.05
-28.38
-29.20
-30.38
-31.52
-31.93
-30.87
-27.67
-21.85
-13.34
-2.59
9.50
21.70
32.71
41.50
47.49
50.59
51.10
49.48
46.24
41.84
36.79
31.61
26.86
22.99
20.23
18.50
17.46
16.77
16.19
15.70
15.39
15.31
15.31
15.10
14.42
13.15
11.40
9.44
7.45
5.45
3.26
0.62
-2.63
-6.43
-10.53
-14.64
-18.53
-22.07
-25.27
-28.27
-31.25
-34.41
-37.84
-41.40
-44.57
-46.54
-46.36
-43.32
-37.20
-28.45
-18.03
-7.15
3.09
11.96
19.13
24.57
28.44
30.92
32.19
32.39
31.71
30.42
28.88
27.49
26.60
26.36
26.70
27.40
28.11
28.55
28.58
28.21
27.52
26.60
25.46
24.02
22.15
19.74
16.76
13.34
9.70
6.09
2.66
-0.57
-3.74
-7.04
-10.54
-14.21
-17.89
-21.44
-24.76
-27.73
-30.05
-31.19
-30.45
-27.23
-21.32
-13.11
-3.52
6.27
15.13
22.24
27.17
29.79
30.21
28.65
25.46
21.12
16.21
11.34
7.04
3.66
1.31
-0.13
-0.93
-1.35
-1.54
-1.53
-1.28
-0.78
-0.18
0.25
0.19
-0.62
-2.22
-4.45
-7.02
-9.59
-11.95
-14.10
-16.25
-18.75
-21.93
-25.88
-30.27
-34.35
-37.12
-37.62
-35.22
-29.86
-22.07
-12.78
-3.13
5.83
13.29
18.79
22.18
23.58
23.28
21.64
19.00
15.69
11.99
8.12
4.32
0.83
-2.12
-4.27
-5.48
-5.69
-5.05
-3.87
-2.60
-1.68
-1.41
-1.90
-3.05
-4.71
-6.71
-9.05
-11.76
-14.96
-18.65
-22.75
-27.06
-31.24
-34.81
-37.14
-37.56
-35.46
-30.51
-22.89
-13.32
-2.95
6.97
15.37
21.65
25.67
27.67
27.98
26.96
24.86
21.90
18.37
14.69
11.30
8.56
6.65
5.51
4.90
4.56
4.25
3.87
3.35
2.63
1.59
0.12
-1.89
-4.41
-7.33
-10.55
-14.01
-17.78
-21.96
-26.57
-31.36
-35.79
-38.99
-40.01
-38.10
-32.97
-24.96
-14.95
-4.17
6.12
14.96
21.77
26.42
29.06
29.97
29.44
27.73
25.02
21.56
17.67
13.73
10.15
7.26
5.20
3.94
3.27
2.90
2.59
2.14
1.47
0.50
-0.80
-2.48
-4.54
-6.94
-9.61
-12.53
-15.74
-19.34
-23.44
-28.00
-32.72
-36.91
-39.67
-40.02
-37.28
-31.27
-22.46
-11.83
-0.60
10.04
19.23
26.46
31.53
34.49
35.51
34.86
32.91
30.11
26.90
23.65
20.59
17.78
15.22
12.91
10.91
9.38
8.52
8.39
8.89
9.64
10.11
9.75
8.17
5.35
1.59
-2.57
-6.62
-10.22
-13.30
-16.04
-18.79
-21.90
-25.67
-30.14
-35.04
-39.69
-43.08
-44.07
-41.76
-35.81
-26.60
-15.21
-3.02
8.61
18.71
26.82
32.83
36.85
38.99
39.35
38.04
35.32
31.62
27.53
23.68
20.50
18.18
16.64
15.61
14.80
14.01
13.23
12.55
12.07
11.80
11.56
10.99
9.69
7.38
4.01
-0.16
-4.66
-8.97
-12.75
-15.95
-18.76
-21.58
-24.81
-28.77
-33.51
-38.77
-43.90
-47.95
-49.81
-48.50
-43.46
-34.79
-23.33
-10.37
2.62
14.41
24.19
31.62
36.65
39.42
40.11
38.98
36.35
32.70
28.60
24.60
21.14
18.46
16.58
15.40
14.75
14.47
14.41
14.44
14.41
14.17
13.59
12.56
10.99
8.83
6.03
2.63
-1.26
-5.36
-9.37
-12.94
-15.92
-18.38
-20.63
-23.12
-26.25
-30.21
-34.86
-39.72
-43.98
-46.66
-46.78
-43.62
-36.96
-27.21
-15.34
-2.68
9.43
19.95
28.22
34.02
37.37
38.43
37.40
34.63
30.57
25.84
21.06
16.79
13.39
10.99
9.56
8.95
8.98
9.48
10.26
11.13
11.86
12.18
11.82
10.59
8.40
5.32
1.61
-2.36
-6.23
-9.74
-12.83
-15.67
-18.59
-21.94
-25.91
-30.51
-35.43
-40.12
-43.83
-45.69
-44.96
-41.15
-34.25
-24.78
-13.76
-2.45
7.95
16.55
22.86
26.72
28.19
27.39
24.59
20.20
14.88
9.52
4.98
1.90
0.52
0.60
1.63
3.05
4.45
5.72
6.90
8.09
9.27
10.23
10.64
10.13
8.52
5.92
2.66
-0.74
-3.88
-6.58
-8.94
-11.33
-14.20
-17.90
-22.49
-27.74
-33.04
-37.55
-40.27
-40.27
-36.88
-29.96
-19.96
-7.91
4.81
16.83
27.08
34.94
40.23
43.07
43.68
42.31
39.27
34.96
29.93
24.82
20.21
16.51
13.87
12.24
11.47
11.37
11.73
12.36
13.00
13.41
13.33
12.59
11.08
8.73
5.55
1.68
-2.63
-6.98
-10.96
-14.31
-17.04
-19.41
-21.90
-25.00
-29.06
-34.08
-39.63
-44.83
-48.52
-49.49
-46.85
-40.36
-30.51
-18.41
-5.46
6.96
17.79
26.39
32.51
36.19
37.60
37.04
34.82
31.29
26.87
22.04
17.33
13.25
10.17
8.23
7.33
7.17
7.42
7.80
8.12
8.26
8.11
7.54
6.41
4.60
2.03
-1.33
-5.41
-10.03
-14.93
-19.79
-24.37
-28.53
-32.35
-36.02
-39.81
-43.96
-48.56
-53.59
-58.78
-63.59
-67.18
-68.55
-66.77
-61.32
-52.36
-40.76
-27.89
-15.20
-3.88
5.42
12.51
17.53
20.75
22.48
23.10
23.16
23.31
24.20
26.29
29.66
33.97
38.57
42.75
46.00
48.19
49.56
50.55
51.57
52.77
54.08
55.27
56.20
56.89
57.48
58.03
58.43
58.27
57.07
54.32
49.77
43.36
35.20
25.47
14.32
1.94
-11.31
-24.77
-37.43
-48.02
-55.24
-58.12
-56.26
-50.06
-40.57
-29.20
-17.38
-6.15
3.93
12.67
19.98
25.68
29.38
30.62
29.12
25.04
19.02
12.05
5.17
-0.82
-5.51
-8.87
-11.01
-12.02
-11.89
-10.60
-8.29
-5.41
-2.64
-0.70
-0.11
-1.06
-3.31
-6.35
-9.60
-12.63
-15.31
-17.82
-20.56
-23.99
-28.42
-33.86
-39.92
-45.82
-50.56
-53.10
-52.57
-48.53
-41.05
-30.76
-18.73
-6.25
5.46
15.44
23.10
28.12
30.48
30.34
28.05
24.13
19.26
14.12
9.33
5.29
2.20
0.09
-1.08
-1.43
-1.10
-0.32
0.63
1.46
1.88
1.68
0.69
-1.15
-3.78
-7.04
-10.66
-14.37
-17.99
-21.51
-25.16
-29.26
-34.10
-39.68
-45.61
-51.04
-54.84
-55.83
-53.18
-46.64
-36.72
-24.53
-11.56
0.73
11.24
19.43
25.27
29.14
31.50
32.77
33.19
32.89
32.03
30.83
29.64
28.81
28.57
28.92
29.68
30.58
31.40
32.01
32.34
32.25
31.53
29.85
26.97
22.81
17.60
11.74
5.73
-0.07
-5.59
-11.00
-16.68
-22.96
-29.87
-36.97
-43.27
-47.42
-48.14
-44.61
-36.85
-25.77
-12.92
-0.03
11.43
20.58
27.07
30.99
32.62
32.25
30.25
27.00
22.99
18.71
14.60
10.93
7.80
5.23
3.23
1.86
1.24
1.41
2.27
3.50
4.59
4.98
4.26
2.30
-0.71
-4.36
-8.16
-11.71
-14.88
-17.79
-20.72
-24.02
-27.91
-32.35
-36.96
-40.99
-43.49
-43.43
-40.08
-33.20
-23.25
-11.27
1.34
13.17
23.14
30.62
35.47
37.86
38.14
36.66
33.86
30.20
26.22
22.41
19.17
16.68
14.93
13.77
13.02
12.54
12.23
12.05
11.93
11.71
11.21
10.17
8.39
5.79
2.47
-1.28
-5.06
-8.51
-11.43
-13.93
-16.31
-19.02
-22.44
-26.73
-31.68
-36.73
-41.01
-43.45
-43.11
-39.37
-32.23
-22.30
-10.68
1.31
12.46
21.89
29.10
33.88
36.27
36.43
34.63
31.28
26.93
22.23
17.83
14.22
11.64
10.09
9.34
9.10
9.15
9.41
9.85
10.37
10.76
10.64
9.66
7.60
4.54
0.84
-3.02
-6.64
-9.83
-12.65
-15.37
-18.32
-21.75
-25.73
-30.04
-34.11
-37.08
-37.96
-35.90
-30.51
-22.05
-11.43
0.01
10.87
20.02
26.87
31.25
33.32
33.37
31.71
28.70
24.75
20.38
16.12
12.40
9.46
7.32
5.91
5.12
4.84
4.99
5.41
5.82
5.85
5.11
3.40
0.73
-2.60
-6.19
-9.64
-12.75
-15.54
-18.23
-21.14
-24.50
-28.43
-32.78
-37.12
-40.69
-42.53
-41.73
-37.70
-30.52
-20.94
-10.26
0.09
8.95
15.65
20.05
22.30
22.68
21.43
18.75
14.93
10.36
5.54
0.96
-3.00
-6.14
-8.46
-10.09
-11.16
-11.76
-11.91
-11.54
-10.63
-9.22
-7.48
-5.63
-3.93
-2.56
-1.58
-0.94
-0.49
-0.08
0.38
0.85
1.12
0.95
0.19
-1.03
-2.14
-2.22
-0.24
4.58
12.46
22.85
34.61
46.31
56.57
64.34
68.98
70.26
68.37
63.79
57.39
50.19
43.23
37.28
32.68
29.31
26.77
24.62
22.71
21.17
20.39
20.90
23.10
27.15
32.68
38.78
44.00
46.62
45.09
38.57
27.24
12.36
-4.04
-19.85
-33.50
-44.35
-52.68
-59.27
-64.73
-69.07
-71.56
-71.09
-66.77
-58.46
-46.97
-33.68
-20.03
-6.89
5.46
17.12
28.11
37.98
45.93
51.09
53.01
51.94
48.74
44.59
40.59
37.45
35.43
34.39
34.01
33.90
33.73
33.23
32.20
30.44
27.75
24.02
19.24
13.65
7.64
1.70
-3.81
-8.71
-13.13
-17.41
-22.01
-27.40
-33.89
-41.45
-49.64
-57.57
-64.06
-67.92
-68.31
-65.01
-58.57
-50.17
-41.26
-33.21
-26.89
-22.62
-20.18
-19.07
-18.82
-19.10
-19.79
-20.86
-22.21
-23.61
-24.75
-25.36
-25.28
-24.58
-23.43
-22.01
-20.47
-18.88
-17.26
-15.68
-14.30
-13.39
-13.25
-14.13
-16.08
-18.87
-22.04
-25.03
-27.46
-29.26
-30.71
-32.31
-34.55
-37.65
-41.43
-45.33
-48.54
-50.23
-49.71
-46.57
-40.81
-32.78
-23.19
-12.95
-3.03
5.68
12.52
17.13
19.45
19.64
18.06
15.16
11.46
7.52
3.87
0.95
-0.93
-1.66
-1.35
-0.25
1.33
3.03
4.51
5.49
5.75
5.19
3.80
1.73
-0.80
-3.54
-6.28
-8.89
-11.32
-13.62
-15.95
-18.55
-21.67
-25.38
-29.45
-33.20
-35.63
-35.68
-32.58
-26.16
-16.94
-5.99
5.43
16.12
25.24
32.31
37.13
39.67
40.03
38.38
35.12
30.80
26.12
21.75
18.19
15.65
14.10
13.31
13.00
12.95
12.98
12.96
12.74
12.14
10.96
9.05
6.38
3.03
-0.76
-4.70
-8.50
-12.06
-15.42
-18.83
-22.62
-27.03
-32.06
-37.33
-42.09
-45.27
-45.82
-42.91
-36.32
-26.48
-14.43
-1.55
10.82
21.60
30.16
36.22
39.75
40.91
39.98
37.39
33.70
29.56
25.54
22.00
19.08
16.75
14.91
13.54
12.70
12.41
12.60
13.00
13.21
12.83
11.60
9.48
6.60
3.22
-0.41
-4.09
-7.74
-11.41
-15.26
-19.54
-24.45
-29.98
-35.75
-40.93
-44.42
-45.05
-42.04
-35.19
-25.03
-12.65
0.55
13.21
24.27
33.06
39.31
42.98
44.24
43.39
40.85
37.15
32.89
28.59
24.64
21.24
18.45
16.24
14.63
13.62
13.21
13.26
13.47
13.43
12.78
11.26
8.83
5.65
2.00
-1.85
-5.62
-9.17
-12.48
-15.67
-19.01
-22.76
-27.09
-31.88
-36.62
-40.43
-42.22
-41.04
-36.33
-28.26
-17.57
-5.52
6.55
17.50
26.58
33.40
37.86
40.01
39.93
37.87
34.25
29.66
24.82
20.39
16.83
14.33
12.84
12.16
12.03
12.22
12.50
12.67
12.50
11.81
10.42
8.31
5.57
2.43
-0.81
-3.92
-6.84
-9.70
-12.77
-16.35
-20.61
-25.42
-30.31
-34.50
-36.99
-36.81
-33.32
-26.41
-16.65
-5.17
6.62
17.39
26.17
32.48
36.30
37.85
37.46
35.48
32.26
28.23
23.85
19.59
15.85
12.91
10.92
9.88
9.64
9.96
10.47
10.78
10.55
9.55
7.73
5.21
2.20
-1.03
-4.30
-7.50
-10.64
-13.89
-17.45
-21.51
-26.12
-31.02
-35.61
-39.03
-40.32
-38.70
-33.84
-25.98
-15.90
-4.79
6.11
15.70
23.29
28.55
31.51
32.38
31.50
29.23
25.94
22.03
17.95
14.06
10.72
8.16
6.47
5.66
5.62
6.21
7.21
8.36
9.36
9.96
9.96
9.22
7.76
5.65
3.06
0.20
-2.80
-5.84
-9.00
-12.43
-16.33
-20.79
-25.63
-30.31
-33.93
-35.47
-34.04
-29.24
-21.36
-11.34
-0.54
9.65
18.18
24.49
28.54
30.62
31.14
30.45
28.83
26.49
23.65
20.60
17.66
15.09
13.07
11.61
10.62
9.98
9.56
9.27
9.05
8.80
8.37
7.55
6.13
3.99
1.16
-2.13
-5.58
-8.89
-11.91
-14.72
-17.58
-20.83
-24.63
-28.80
-32.70
-35.34
-35.62
-32.75
-26.55
-17.61
-7.06
3.73
13.60
21.82
28.09
32.40
34.82
35.42
34.34
31.82
28.30
24.33
20.44
16.95
13.98
11.50
9.43
7.72
6.43
5.60
5.19
5.10
5.07
4.78
3.91
2.23
-0.28
-3.44
-6.88
-10.21
-13.16
-15.71
-18.09
-20.61
-23.59
-27.11
-31.02
-34.84
-37.97
-39.69
-39.36
-36.54
-31.11
-23.39
-14.08
-4.16
5.33
13.54
19.91
24.22
26.52
26.98
25.86
23.44
20.03
16.01
11.80
7.79
4.34
1.69
-0.03
-0.81
-0.77
-0.10
0.91
1.89
2.49
2.42
1.51
-0.21
-2.57
-5.35
-8.31
-11.23
-13.99
-16.53
-18.90
-21.25
-23.82
-26.78
-30.06
-33.22
-35.41
-35.61
-32.99
-27.24
-18.76
-8.57
2.00
11.69
19.62
25.38
28.93
30.49
30.32
28.75
26.10
22.74
19.08
15.54
12.47
10.05
8.35
7.30
6.82
6.82
7.20
7.82
8.41
8.59
7.97
6.32
3.64
0.23
-3.47
-7.02
-10.17
-12.92
-15.46
-18.06
-21.00
-24.41
-28.24
-32.16
-35.61
-37.77
-37.79
-35.00
-29.22
-20.86
-10.85
-0.37
9.43
17.72
24.05
28.30
30.55
30.98
29.83
27.46
24.29
20.76
17.28
14.13
11.45
9.33
7.83
6.97
6.73
7.02
7.62
8.27
8.71
8.70
8.06
6.61
4.27
1.06
-2.81
-6.95
-10.92
-14.35
-17.11
-19.36
-21.48
-23.92
-27.03
-30.87
-35.21
-39.49
-42.90
-44.50
-43.44
-39.18
-31.73
-21.72
-10.28
1.23
11.59
20.02
26.24
30.40
32.78
33.59
32.96
30.99
27.93
24.27
20.60
17.51
15.35
14.17
13.75
13.76
13.86
13.87
13.74
13.47
13.07
12.51
11.68
10.43
8.63
6.18
3.13
-0.39
-4.11
-7.76
-11.10
-14.04
-16.62
-19.02
-21.48
-24.25
-27.48
-31.22
-35.33
-39.40
-42.78
-44.56
-43.85
-40.03
-32.98
-23.29
-12.01
-0.45
10.24
19.29
26.30
31.15
33.86
34.51
33.28
30.49
26.65
22.38
18.26
14.74
12.04
10.16
8.99
8.35
8.05
8.00
8.14
8.44
8.84
9.16
9.11
8.38
6.73
4.12
0.79
-2.86
-6.36
-9.41
-11.96
-14.19
-16.47
-19.15
-22.45
-26.30
-30.42
-34.23
-37.05
-38.14
-36.89
-32.96
-26.40
-17.66
-7.58
2.81
12.47
20.57
26.59
30.31
31.82
31.37
29.29
25.98
21.88
17.47
13.24
9.65
6.97
5.34
4.68
4.80
5.44
6.35
7.32
8.13
8.52
8.21
7.00
4.85
1.91
-1.47
-4.86
-7.92
-10.56
-12.85
-15.09
-17.58
-20.56
-24.09
-27.90
-31.45
-33.94
-34.44
-32.20
-26.87
-18.75
-8.67
2.10
12.29
20.87
27.26
31.29
33.09
32.97
31.30
28.47
24.86
20.84
16.76
12.92
9.57
6.89
4.97
3.82
3.38
3.51
4.02
4.67
5.14
5.12
4.34
2.68
0.27
-2.54
-5.37
-7.94
-10.26
-12.60
-15.33
-18.77
-22.93
-27.51
-31.90
-35.28
-36.82
-35.83
-31.93
-25.16
-16.03
-5.48
5.36
15.33
23.57
29.56
33.17
34.54
34.01
31.96
28.78
24.83
20.49
16.10
12.00
8.48
5.76
3.97
3.11
3.06
3.56
4.26
4.79
4.81
4.12
2.68
0.64
-1.80
-4.41
-7.01
-9.57
-12.12
-14.82
-17.84
-21.31
-25.22
-29.27
-32.91
-35.34
-35.71
-33.37
-28.10
-20.22
-10.58
-0.28
9.55
18.04
24.67
29.22
31.70
32.24
31.05
28.44
24.80
20.62
16.37
12.45
9.17
6.71
5.16
4.50
4.62
5.23
5.96
6.38
6.19
5.24
3.65
1.63
-0.54
-2.71
-4.82
-6.94
-9.19
-11.69
-14.58
-17.93
-21.81
-26.09
-30.35
-33.86
-35.63
-34.71
-30.55
-23.25
-13.58
-2.83
7.63
16.67
23.64
28.33
30.88
31.55
30.61
28.32
24.97
20.90
16.54
12.35
8.77
6.09
4.47
3.89
4.12
4.81
5.50
5.77
5.34
4.13
2.30
0.09
-2.24
-4.51
-6.66
-8.75
-10.90
-13.29
-16.12
-19.58
-23.67
-28.08
-32.15
-34.90
-35.32
-32.66
-26.74
-18.04
-7.61
3.17
12.98
20.86
26.31
29.34
30.27
29.60
27.76
25.08
21.81
18.19
14.49
11.06
8.24
6.25
5.17
4.86
5.07
5.44
5.63
5.38
4.57
3.20
1.37
-0.79
-3.14
-5.58
-8.04
-10.50
-13.01
-15.66
-18.59
-21.90
-25.48
-28.93
-31.51
-32.31
-30.55
-25.91
-18.64
-9.61
0.02
9.14
16.86
22.71
26.52
28.33
28.38
26.99
24.60
21.71
18.72
15.91
13.38
11.14
9.17
7.52
6.31
5.63
5.46
5.66
5.95
6.04
5.64
4.54
2.69
0.16
-2.87
-6.13
-9.34
-12.31
-15.03
-17.69
-20.61
-24.04
-27.99
-32.04
-35.41
-37.12
-36.29
-32.45
-25.72
-16.74
-6.57
3.60
12.74
20.13
25.42
28.61
29.93
29.66
28.16
25.75
22.77
19.58
16.52
13.83
11.69
10.10
9.01
8.31
7.90
7.70
7.62
7.53
7.23
6.49
5.11
2.97
0.17
-3.06
-6.43
-9.62
-12.51
-15.12
-17.64
-20.35
-23.45
-27.03
-30.90
-34.61
-37.41
-38.41
-36.83
-32.23
-24.80
-15.30
-4.93
5.03
13.57
20.14
24.61
27.13
27.90
27.15
25.07
21.97
18.25
14.41
10.90
8.02
5.88
4.48
3.73
3.55
3.89
4.64
5.55
6.27
6.42
5.72
4.09
1.72
-1.11
-4.07
-6.94
-9.62
-12.17
-14.72
-17.46
-20.54
-23.99
-27.67
-31.13
-33.69
-34.52
-32.90
-28.50
-21.55
-12.77
-3.26
5.88
13.75
19.81
23.84
25.85
26.03
24.63
22.00
18.55
14.73
10.95
7.58
4.86
2.90
1.73
1.27
1.33
1.68
2.09
2.33
2.25
1.75
0.80
-0.57
-2.32
-4.35
-6.60
-9.06
-11.78
-14.89
-18.48
-22.52
-26.75
-30.63
-33.38
-34.17
-32.33
-27.60
-20.25
-11.10
-1.28
8.01
15.80
21.55
25.14
26.75
26.73
25.45
23.18
20.19
16.74
13.15
9.76
6.88
4.73
3.35
2.64
2.44
2.51
2.63
2.61
2.25
1.41
0.01
-1.94
-4.33
-6.98
-9.74
-12.58
-15.60
-18.98
-22.86
-27.17
-31.52
-35.19
-37.23
-36.75
-33.18
-26.53
-17.40
-6.93
3.57
12.97
20.53
26.01
29.51
31.29
31.54
30.40
27.99
24.57
20.54
16.46
12.84
10.02
8.12
7.06
6.66
6.74
7.12
7.55
7.72
7.31
6.04
3.87
1.02
-2.12
-5.18
-7.93
-10.40
-12.87
-15.69
-19.13
-23.24
-27.71
-31.88
-34.83
-35.67
-33.69
-28.69
-20.97
-11.35
-0.89
9.34
18.45
25.85
31.28
34.66
36.09
35.74
33.86
30.79
26.94
22.80
18.86
15.56
13.15
11.71
11.12
11.15
11.54
12.03
12.39
12.37
11.76
10.42
8.32
5.63
2.59
-0.48
-3.41
-6.11
-8.69
-11.34
-14.27
-17.67
-21.59
-25.88
-30.14
-33.67
-35.57
-35.00
-31.43
-24.89
-16.01
-5.87
4.35
13.66
21.43
27.42
31.63
34.16
35.13
34.74
33.24
30.99
28.40
25.87
23.70
22.07
21.09
20.80
21.19
22.16
23.51
24.98
26.26
27.12
27.37
26.94
25.81
24.04
21.69
18.82
15.46
11.61
7.25
2.30
-3.28
-9.46
-16.07
-22.67
-28.57
-32.88
-34.71
-33.46
-29.03
-21.92
-13.18
-4.05
4.36
11.32
16.53
20.00
21.86
22.22
21.18
18.96
15.98
12.89
10.34
8.83
8.46
9.02
10.08
11.23
12.20
12.91
13.37
13.53
13.26
12.38
10.72
8.25
5.07
1.38
-2.59
-6.69
-10.88
-15.27
-20.01
-25.18
-30.60
-35.74
-39.72
-41.58
-40.55
-36.32
-29.22
-20.12
-10.15
-0.44
8.11
14.97
19.85
22.69
23.55
22.62
20.22
16.73
12.62
8.32
4.20
0.55
-2.41
-4.55
-5.83
-6.38
-6.45
-6.37
-6.48
-7.01
-8.02
-9.49
-11.31
-13.41
-15.75
-18.33
-21.14
-24.16
-27.39
-30.86
-34.54
-38.32
-41.82
-44.35
-45.06
-43.14
-38.16
-30.27
-20.20
-9.15
1.63
11.12
18.69
24.12
27.47
28.88
28.56
26.77
23.84
20.21
16.34
12.69
9.60
7.26
5.75
5.02
4.89
5.09
5.28
5.11
4.32
2.81
0.68
-1.89
-4.65
-7.45
-10.24
-13.06
-16.05
-19.37
-23.14
-27.42
-32.12
-36.92
-41.21
-44.11
-44.67
-42.10
-36.10
-27.04
-15.92
-4.16
6.85
16.05
22.94
27.46
29.82
30.30
29.12
26.52
22.85
18.62
14.40
10.73
7.93
6.07
5.02
4.60
4.65
5.06
5.73
6.44
6.88
6.64
5.42
3.20
0.20
-3.14
-6.42
-9.39
-12.12
-14.90
-18.05
-21.84
-26.29
-31.13
-35.78
-39.40
-41.01
-39.72
-35.05
-27.14
-16.81
-5.41
5.61
15.06
22.25
26.99
29.49
30.10
29.17
26.99
23.86
20.13
16.19
12.44
9.25
6.87
5.39
4.74
4.72
5.08
5.57
6.00
6.26
6.27
5.94
5.12
3.69
1.57
-1.19
-4.41
-7.84
-11.26
-14.56
-17.72
-20.70
-23.26
-24.81
-24.44
-21.25
-14.71
-4.92
7.30
20.62
33.63
45.14
54.34
60.71
63.92
63.81
60.48
54.45
46.60
37.93
29.29
21.15
13.51
6.20
-0.91
-7.56
-13.08
-16.54
-17.15
-14.55
-9.12
-1.91
5.68
12.30
17.07
19.66
20.20
18.83
15.41
9.38
0.03
-13.02
-29.30
-47.23
-64.26
-77.55
-84.74
-84.83
-78.42
-67.48
-54.64
-42.26
-31.87
-23.95
-18.30
-14.51
-12.35
-11.88
-13.31
-16.72
-21.84
-27.98
-34.13
-39.22
-42.37
-43.14
-41.70
-38.73
-35.20
-32.06
-29.86
-28.73
-28.37
-28.31
-28.17
-27.74
-27.06
-26.27
-25.54
-25.04
-24.81
-24.81
-24.78
-24.12
-21.90
-17.01
-8.60
3.42
18.04
33.22
46.47
55.67
59.77
59.02
54.66
48.33
41.47
35.05
29.62
25.45
22.61
20.92
19.88
18.73
16.74
13.54
9.30
4.58
-0.05
-4.30
-8.29
-12.38
-16.85
-21.64
-26.40
-30.71
-34.39
-37.63
-40.86
-44.49
-48.66
-53.06
-57.03
-59.73
-60.31
-58.17
-53.01
-44.92
-34.40
-22.24
-9.40
3.22
14.91
25.21
33.81
40.53
45.21
47.78
48.37
47.25
44.91
41.84
38.51
35.29
32.45
30.14
28.35
26.89
25.34
23.20
20.14
16.15
11.67
7.39
4.08
2.27
2.19
3.63
6.06
8.59
10.16
9.76
6.82
1.60
-4.75
-10.42
-13.57
-13.00
-8.56
-1.09
7.95
17.15
25.46
32.35
37.67
41.31
43.18
43.18
41.34
37.95
33.54
28.80
24.42
20.89
18.42
16.85
15.79
14.77
13.45
11.72
9.72
7.64
5.62
3.63
1.48
-1.10
-4.28
-8.12
-12.58
-17.52
-22.76
-27.95
-32.52
-35.65
-36.43
-34.09
-28.31
-19.41
-8.34
3.51
14.68
23.99
30.78
34.96
36.81
36.75
35.15
32.27
28.35
23.74
18.99
14.71
11.46
9.47
8.58
8.35
8.21
7.75
6.84
5.59
4.20
2.81
1.38
-0.25
-2.23
-4.62
-7.41
-10.57
-14.12
-18.08
-22.36
-26.60
-30.14
-32.07
-31.50
-27.89
-21.29
-12.35
-2.16
7.99
16.98
24.05
28.90
31.56
32.31
31.41
29.11
25.60
21.14
16.16
11.27
7.16
4.33
2.97
2.82
3.37
3.98
4.18
3.77
2.82
1.51
0.03
-1.56
-3.31
-5.30
-7.69
-10.60
-14.15
-18.38
-23.14
-27.94
-31.99
-34.24
-33.74
-29.92
-22.87
-13.35
-2.62
7.93
17.14
24.34
29.28
32.06
32.87
31.94
29.49
25.80
21.33
16.64
12.32
8.86
6.48
5.18
4.70
4.64
4.61
4.32
3.65
2.62
1.37
-0.02
-1.57
-3.45
-5.93
-9.25
-13.49
-18.50
-23.94
-29.23
-33.63
-36.33
-36.53
-33.66
-27.65
-18.97
-8.65
2.07
12.01
20.33
26.63
30.82
32.96
33.20
31.68
28.70
24.66
20.14
15.70
11.83
8.83
6.78
5.60
5.08
4.91
4.77
4.35
3.48
2.10
0.31
-1.73
-3.88
-6.12
-8.54
-11.37
-14.83
-19.10
-24.11
-29.46
-34.37
-37.81
-38.72
-36.34
-30.51
-21.77
-11.22
-0.27
9.81
18.11
24.17
27.90
29.43
28.98
26.84
23.38
19.08
14.48
10.08
6.24
3.14
0.82
-0.74
-1.58
-1.67
-0.98
0.56
2.99
6.26
10.24
14.57
18.71
21.96
23.56
22.92
19.76
14.20
6.65
-2.23
-11.66
-20.77
-28.55
-33.87
-35.69
-33.36
-26.85
-16.93
-5.01
7.28
18.49
27.61
34.18
38.08
39.42
38.40
35.30
30.62
24.96
19.00
13.34
8.37
4.32
1.24
-0.86
-2.01
-2.34
-2.07
-1.56
-1.26
-1.60
-2.88
-5.24
-8.58
-12.67
-17.12
-21.52
-25.50
-28.81
-31.39
-33.34
-34.87
-36.18
-37.30
-37.95
-37.59
-35.52
-31.15
-24.21
-14.98
-4.26
6.88
17.33
26.31
33.43
38.65
42.08
43.78
43.74
41.98
38.67
34.25
29.37
24.65
20.56
17.27
14.68
12.61
10.85
9.25
7.70
6.05
4.15
1.83
-0.98
-4.18
-7.63
-11.13
-14.60
-18.08
-21.71
-25.67
-30.07
-34.85
-39.75
-44.26
-47.66
-49.13
-47.91
-43.61
-36.31
-26.69
-15.91
-5.31
3.92
10.98
15.63
18.03
18.58
17.70
15.81
13.28
10.56
8.14
6.55
6.09
6.85
8.55
10.68
12.73
14.28
15.12
15.17
14.48
13.08
11.09
8.67
6.08
3.58
1.34
-0.71
-2.89
-5.65
-9.33
-13.88
-18.77
-22.98
-25.30
-24.73
-20.83
-13.90
-4.93
4.73
13.72
21.03
26.13
28.94
29.69
28.70
26.30
22.79
18.50
13.83
9.20
5.07
1.76
-0.54
-1.90
-2.50
-2.65
-2.60
-2.58
-2.73
-3.16
-3.98
-5.25
-6.99
-9.14
-11.58
-14.27
-17.23
-20.58
-24.47
-28.95
-33.79
-38.41
-41.96
-43.43
-41.97
-37.14
-29.07
-18.55
-6.85
4.60
14.56
22.23
27.36
30.09
30.77
29.74
27.33
23.80
19.54
15.00
10.67
7.00
4.25
2.53
1.75
1.68
2.04
2.54
2.90
2.91
2.37
1.17
-0.76
-3.40
-6.60
-10.10
-13.60
-16.92
-20.13
-23.54
-27.53
-32.22
-37.26
-41.73
-44.39
-44.10
-40.22
-32.85
-22.78
-11.25
0.44
11.12
19.97
26.44
30.33
31.65
30.68
27.90
23.93
19.46
15.07
11.24
8.25
6.24
5.24
5.22
6.13
7.91
10.43
13.53
16.87
20.00
22.40
23.57
23.16
21.07
17.49
12.77
7.36
1.67
-4.04
-9.65
-15.08
-20.20
-24.69
-28.02
-29.49
-28.47
-24.60
-18.00
-9.30
0.45
10.06
18.50
25.03
29.32
31.37
31.43
29.82
26.90
23.01
18.48
13.66
8.95
4.77
1.46
-0.74
-1.84
-2.02
-1.60
-0.96
-0.42
-0.24
-0.59
-1.52
-3.04
-5.04
-7.40
-9.94
-12.56
-15.17
-17.78
-20.45
-23.35
-26.64
-30.42
-34.57
-38.60
-41.66
-42.66
-40.69
-35.29
-26.73
-15.99
-4.48
6.43
15.67
22.68
27.35
29.81
30.29
29.01
26.25
22.38
17.89
13.38
9.37
6.29
4.34
3.50
3.59
4.26
5.08
5.63
5.62
4.89
3.49
1.57
-0.73
-3.27
-6.01
-8.92
-11.99
-15.24
-18.73
-22.60
-26.87
-31.33
-35.39
-38.09
-38.34
-35.34
-28.86
-19.46
-8.31
3.13
13.53
21.98
28.06
31.78
33.38
33.13
31.33
28.24
24.24
19.72
15.13
10.89
7.32
4.63
2.93
2.19
2.27
2.87
3.60
3.99
3.70
2.56
0.65
-1.80
-4.51
-7.28
-10.07
-12.97
-16.20
-19.98
-24.40
-29.31
-34.19
-38.14
-40.10
-39.07
-34.49
-26.46
-15.83
-3.97
7.59
17.58
25.18
30.17
32.71
33.21
32.10
29.76
26.55
22.78
18.77
14.83
11.27
8.32
6.13
4.76
4.11
4.00
4.10
4.11
3.74
2.84
1.40
-0.51
-2.73
-5.17
-7.79
-10.61
-13.72
-17.22
-21.21
-25.69
-30.50
-35.27
-39.30
-41.66
-41.39
-37.75
-30.60
-20.51
-8.67
3.45
14.47
23.46
30.01
34.13
36.05
36.03
34.32
31.26
27.31
23.02
18.95
15.52
12.92
11.12
9.99
9.35
9.09
9.12
9.28
9.35
8.98
7.85
5.80
2.91
-0.51
-4.06
-7.41
-10.43
-13.22
-16.08
-19.33
-23.21
-27.76
-32.63
-37.08
-40.05
-40.43
-37.34
-30.54
-20.56
-8.60
3.80
15.17
24.44
31.11
35.11
36.67
36.12
33.82
30.18
25.67
20.85
16.26
12.39
9.50
7.68
6.82
6.69
7.01
7.51
7.93
8.09
7.79
6.93
5.46
3.43
0.95
-1.82
-4.75
-7.78
-10.98
-14.53
-18.66
-23.47
-28.75
-33.89
-37.87
-39.51
-37.87
-32.56
-23.98
-13.19
-1.61
9.38
18.69
25.73
30.30
32.48
32.52
30.74
27.56
23.46
18.92
14.44
10.38
7.04
4.55
2.97
2.21
2.13
2.53
3.13
3.63
3.73
3.17
1.84
-0.20
-2.73
-5.50
-8.35
-11.28
-14.43
-18.03
-22.16
-26.66
-31.06
-34.62
-36.48
-35.89
-32.37
-25.93
-17.09
-6.80
3.79
13.57
21.69
27.70
31.46
33.07
32.75
30.74
27.36
23.00
18.13
13.36
9.26
6.31
4.74
4.44
4.99
5.81
6.32
6.16
5.22
3.62
1.60
-0.70
-3.21
-5.96
-8.98
-12.24
-15.72
-19.44
-23.44
-27.75
-32.17
-36.17
-38.92
-39.43
-36.92
-31.08
-22.22
-11.27
0.49
11.70
21.24
28.42
32.93
34.86
34.52
32.31
28.71
24.23
19.45
14.97
11.29
8.71
7.26
6.71
6.71
6.89
6.98
6.83
6.33
5.40
3.95
1.97
-0.48
-3.24
-6.11
-8.96
-11.75
-14.60
-17.70
-21.30
-25.50
-30.19
-34.92
-38.85
-40.97
-40.26
-36.12
-28.53
-18.24
-6.52
5.16
15.49
23.57
29.05
31.99
32.71
31.67
29.39
26.38
23.09
19.88
16.97
14.45
12.35
10.69
9.52
8.87
8.73
8.92
9.15
9.13
8.59
7.44
5.64
3.24
0.30
-3.10
-6.82
-10.60
-14.23
-17.61
-20.86
-24.31
-28.26
-32.67
-37.02
-40.26
-41.14
-38.69
-32.59
-23.36
-12.19
-0.55
10.24
19.27
26.12
30.69
33.05
33.34
31.77
28.64
24.45
19.79
15.26
11.33
8.29
6.18
4.95
4.46
4.55
5.02
5.61
6.01
5.90
5.05
3.42
1.16
-1.48
-4.25
-7.02
-9.81
-12.76
-16.08
-19.92
-24.33
-29.15
-33.94
-37.91
-40.08
-39.50
-35.61
-28.47
-18.83
-7.94
2.79
12.22
19.62
24.74
27.67
28.66
28.07
26.29
23.70
20.70
17.59
14.60
11.89
9.60
7.85
6.75
6.30
6.38
6.69
6.85
6.48
5.35
3.44
0.93
-1.91
-4.84
-7.69
-10.46
-13.26
-16.29
-19.77
-23.88
-28.54
-33.35
-37.50
-39.92
-39.53
-35.62
-28.14
-17.82
-6.01
5.71
15.94
23.77
28.88
31.44
31.89
30.66
28.12
24.53
20.17
15.45
10.89
7.01
4.19
2.56
1.96
2.02
2.32
2.46
2.17
1.32
-0.15
-2.19
-4.72
-7.67
-10.94
-14.45
-18.14
-21.92
-25.64
-29.17
-32.23
-34.48
-35.35
-34.15
-30.19
-23.08
-12.99
-0.80
12.03
23.87
33.36
39.83
43.33
44.49
44.16
43.07
41.67
40.05
38.14
35.83
33.06
29.91
26.51
23.05
19.65
16.41
13.43
10.77
8.47
6.48
4.62
2.60
0.10
-3.05
-6.80
-10.81
-14.65
-17.99
-20.75
-23.23
-25.92
-29.31
-33.58
-38.50
-43.36
-47.14
-48.74
-47.25
-42.27
-33.99
-23.18
-11.05
1.12
12.21
21.47
28.55
33.40
36.14
36.97
36.17
34.07
31.10
27.68
24.19
20.89
17.96
15.51
13.63
12.38
11.75
11.57
11.56
11.36
10.69
9.39
7.45
4.98
2.10
-1.06
-4.42
-7.89
-11.42
-15.06
-18.95
-23.27
-28.06
-33.03
-37.46
-40.31
-40.54
-37.49
-31.15
-22.20
-11.79
-1.21
8.46
16.46
22.44
26.29
28.10
28.04
26.42
23.64
20.14
16.44
12.95
10.04
7.93
6.70
6.35
6.73
7.56
8.49
9.13
9.13
8.24
6.42
3.78
0.53
-3.05
-6.75
-10.45
-14.14
-17.95
-22.04
-26.55
-31.43
-36.39
-40.74
-43.53
-43.76
-40.66
-34.06
-24.47
-13.03
-1.20
9.66
18.59
25.11
29.21
31.11
31.12
29.54
26.64
22.73
18.22
13.59
9.34
5.91
3.53
2.18
1.62
1.47
1.35
0.95
0.11
-1.23
-3.05
-5.27
-7.76
-10.36
-12.92
-15.40
-17.88
-20.57
-23.74
-27.46
-31.52
-35.28
-37.82
-38.14
-35.47
-29.56
-20.78
-10.03
1.45
12.39
21.74
28.85
33.46
35.66
35.78
34.24
31.48
27.87
23.74
19.39
15.15
11.37
8.41
6.49
5.66
5.73
6.33
6.99
7.29
6.97
5.93
4.23
2.01
-0.56
-3.39
-6.42
-9.69
-13.33
-17.45
-22.06
-26.93
-31.52
-35.02
-36.47
-35.02
-30.26
-22.33
-11.97
-0.35
11.16
21.31
29.18
34.28
36.59
36.44
34.42
31.15
27.18
22.94
18.71
14.71
11.15
8.26
6.21
5.04
4.62
4.68
4.86
4.80
4.24
3.04
1.19
-1.23
-4.12
-7.35
-10.78
-14.30
-17.79
-21.24
-24.75
-28.51
-32.70
-37.23
-41.65
-45.09
-46.49
-44.88
-39.80
-31.42
-20.59
-8.58
3.29
13.88
22.42
28.55
32.22
33.64
33.16
31.23
28.34
24.97
21.57
18.48
15.92
13.93
12.49
11.55
11.14
11.28
12.00
13.12
14.28
14.97
14.71
13.26
10.72
7.47
4.06
0.97
-1.52
-3.41
-4.91
-6.40
-8.21
-10.55
-13.27
-15.81
-17.27
-16.62
-13.04
-6.26
3.25
14.38
25.63
35.57
43.13
47.82
49.70
49.23
47.02
43.69
39.75
35.60
31.58
27.97
25.01
22.82
21.33
20.30
19.31
17.99
16.04
13.42
10.24
6.79
3.41
0.43
-1.85
-3.25
-3.77
-3.62
-3.29
-3.44
-4.78
-7.91
-13.16
-20.47
-29.25
-38.46
-46.69
-52.47
-54.64
-52.75
-47.13
-38.89
-29.47
-20.29
-12.36
-6.27
-2.14
0.10
0.63
-0.34
-2.58
-5.78
-9.54
-13.38
-16.76
-19.23
-20.52
-20.58
-19.66
-18.14
-16.44
-14.88
-13.63
-12.77
-12.33
-12.39
-13.04
-14.32
-16.27
-18.84
-22.00
-25.69
-29.78
-33.99
-37.76
-40.34
-40.87
-38.68
-33.51
-25.66
-15.97
-5.62
4.22
12.58
18.86
22.79
24.36
23.72
21.17
17.16
12.31
7.34
2.87
-0.65
-3.03
-4.29
-4.60
-4.19
-3.31
-2.20
-1.10
-0.14
0.59
1.06
1.27
1.09
0.33
-1.27
-3.92
-7.70
-12.44
-17.74
-22.93
-27.08
-29.21
-28.43
-24.28
-16.86
-6.95
4.19
15.13
24.58
31.65
35.88
37.29
36.15
32.87
27.96
21.96
15.46
9.10
3.51
-0.80
-3.53
-4.69
-4.56
-3.61
-2.35
-1.19
-0.36
0.07
0.09
-0.33
-1.30
-2.91
-5.29
-8.51
-12.59
-17.51
-23.08
-28.88
-34.15
-37.85
-38.85
-36.29
-29.90
-20.20
-8.38
4.00
15.48
24.96
31.91
36.28
38.29
38.25
36.47
33.26
28.98
24.11
19.23
14.95
11.70
9.62
8.54
8.07
7.68
6.98
5.78
4.13
2.21
0.19
-1.84
-3.90
-6.10
-8.53
-11.18
-14.02
-17.00
-20.05
-23.01
-25.49
-26.80
-26.07
-22.56
-15.98
-6.74
4.13
15.23
25.19
33.07
38.37
41.06
41.35
39.64
36.42
32.30
27.96
24.02
20.98
19.08
18.28
18.39
19.09
20.10
21.19
22.20
22.97
23.37
23.33
22.83
21.98
20.96
19.98
19.10
18.19
16.97
15.02
12.01
7.75
2.39
-3.65
-9.55
-14.26
-16.71
-16.06
-12.09
-5.35
2.81
10.63
16.46
19.25
18.84
15.93
11.60
6.84
2.15
-2.50
-7.43
-12.81
-18.40
-23.54
-27.36
-29.16
-28.52
-25.39
-19.89
-12.20
-2.69
7.94
18.50
27.27
32.29
31.80
24.83
11.75
-5.62
-24.42
-41.70
-55.38
-64.96
-71.25
-75.59
-78.76
-80.30
-78.80
-72.80
-61.95
-47.47
-31.86
-17.88
-7.48
-1.28
1.33
1.61
0.87
0.14
-0.01
0.57
1.59
2.40
2.20
0.28
-3.58
-8.96
-14.89
-20.30
-24.44
-27.13
-28.63
-29.34
-29.41
-28.75
-27.17
-24.68
-21.60
-18.44
-15.50
-12.67
-9.45
-5.21
0.49
7.79
16.68
27.29
39.97
55.19
73.20
93.71
115.80
137.96
158.37
175.22
187.04
192.99
193.13
188.29
179.82
169.11
157.00
143.66
128.61
111.19
91.00
68.35
44.35
20.61
-1.23
-20.27
-36.73
-51.86
-67.42
-84.69
-103.92
-124.34
-144.69
-163.95
-181.73
-198.15
-213.24
-226.51
-236.77
-242.54
-242.58
-236.36
-224.23
-207.23
-186.76
-164.25
-140.98
-117.98
-96.03
-75.58
-56.60
-38.62
-20.87
-2.68
16.07
34.67
51.65
65.28
74.25
78.14
77.44
73.17
66.34
57.68
47.78
37.30
27.21
18.66
12.60
9.47
9.10
10.88
14.13
18.40
23.53
29.50
36.10
42.75
48.68
53.40
57.12
60.91
66.30
74.58
86.07
99.90
114.27
127.12
136.70
141.82
141.69
135.73
123.66
105.86
83.86
60.32
38.54
21.38
10.27
4.74
2.86
2.08
0.37
-3.22
-8.49
-14.65
-20.82
-26.38
-31.07
-34.84
-37.76
-39.91
-41.57
-43.18
-45.34
-48.48
-52.56
-57.01
-60.86
-63.10
-62.94
-60.23
-55.40
-49.49
-43.69
-38.93
-35.69
-33.86
-32.87
-31.65
-29.14
-24.38
-17.16
-8.12
1.57
10.90
19.69
27.86
35.86
44.30
53.33
61.31
65.35
62.90
53.43
38.80
22.44
8.53
-1.55
-7.17
-8.39
-5.47
1.26
11.26
23.53
36.49
48.58
57.51
62.25
63.10
61.63
59.96
59.83
61.97
65.93
70.60
74.50
76.54
75.65
70.67
60.47
44.31
22.43
-3.57
-30.70
-55.39
-74.28
-85.48
-88.99
-86.53
-80.68
-74.04
-68.58
-65.48
-65.27
-67.99
-73.38
-81.00
-90.14
-99.87
-109.18
-117.16
-123.06
-126.34
-126.57
-123.44
-116.95
-107.41
-95.39
-81.55
-66.38
-50.16
-33.03
-15.33
2.14
18.10
31.09
40.11
45.07
47.07
48.14
50.50
55.82
64.64
76.29
89.22
101.75
112.51
120.73
125.98
127.81
125.46
118.08
105.12
86.83
64.44
39.89
15.30
-7.63
-27.78
-44.51
-57.31
-65.79
-69.80
-69.72
-66.66
-62.13
-57.57
-53.80
-50.76
-47.74
-43.89
-38.75
-32.59
-26.24
-20.76
-16.94
-15.07
-14.85
-15.56
-16.41
-16.74
-16.26
-15.00
-13.19
-11.14
-9.12
-7.34
-6.00
-5.36
-5.77
-7.54
-10.82
-15.41
-20.69
-25.64
-29.05
-29.80
-27.19
-21.08
-11.93
-0.60
11.86
24.43
36.22
46.51
54.70
60.33
63.17
63.38
61.52
58.47
55.18
52.39
50.43
49.22
48.48
47.97
47.61
47.47
47.53
47.56
47.11
45.61
42.64
38.06
31.96
24.61
16.39
7.83
-0.36
-7.38
-12.53
-15.59
-16.92
-17.44
-18.06
-19.19
-20.37
-20.57
-18.82
-14.99
-10.10
-5.98
-4.37
-5.98
-10.16
-15.16
-19.07
-20.77
-20.26
-18.39
-16.07
-13.70
-10.94
-7.27
-2.47
2.87
7.42
9.76
9.12
5.88
1.38
-2.66
-4.91
-4.88
-3.05
-0.61
1.05
0.81
-1.86
-6.99
-14.15
-22.66
-31.51
-39.53
-45.72
-49.42
-50.42
-48.87
-45.26
-40.13
-34.01
-27.11
-19.37
-10.66
-0.93
9.77
21.31
33.34
45.28
54.98
60.28
60.69
57.61
53.00
48.16
43.94
39.75
35.10
29.88
24.49
19.40
14.64
10.03
4.93
-1.38
-9.40
-18.85
-28.67
-36.99
-41.73
-41.42
-35.73
-25.53
-12.46
1.56
14.93
26.45
35.32
41.03
43.18
41.66
36.80
29.49
21.00
12.79
6.01
1.22
-1.71
-3.50
-5.17
-7.67
-11.64
-17.30
-24.32
-31.98
-39.60
-46.88
-53.92
-61.19
-69.28
-78.57
-88.95
-99.38
-108.07
-113.09
-112.93
-106.89
-95.20
-79.14
-60.73
-42.39
-25.98
-12.27
-1.03
8.80
18.71
30.00
43.09
57.62
70.55
78.06
78.47
73.39
66.56
61.63
61.01
65.40
74.14
85.58
97.84
110.02
120.55
127.81
130.84
129.76
125.81
120.87
116.94
115.91
119.32
127.83
141.38
158.71
177.64
195.73
211.43
223.52
231.40
235.41
236.01
233.40
227.24
216.65
201.05
181.14
157.82
131.94
104.55
76.78
49.99
25.84
5.22
-11.11
-21.34
-25.75
-26.82
-27.51
-30.47
-37.15
-47.62
-63.13
-82.94
-100.02
-109.09
-108.58
-98.63
-82.11
-64.59
-52.88
-57.71
-83.79
-119.12
-151.68
-174.93
-185.35
-184.71
-179.49
-177.85
-194.66
-237.55
-291.81
-346.53
-400.25
-452.25
-502.74
-552.04
-599.73
-655.69
-725.83
-793.33
-850.64
-902.91
-953.23
-1001.17
-1042.23
-999.09
-832.67
-653.76
-504.24
-364.03
-234.97
-120.60
-22.94
58.68
126.94
173.92
195.13
209.07
226.17
245.14
266.21
290.41
319.00
352.78
383.09
403.17
423.36
447.01
467.98
481.77
486.14
481.34
469.49
447.98
415.71
382.20
352.56
326.15
303.18
284.41
270.28
260.23
249.99
235.78
219.97
204.30
188.90
174.70
162.54
152.45
143.69
134.11
122.08
108.61
94.70
80.83
67.82
56.54
47.83
42.40
40.74
42.98
48.78
57.24
67.10
76.87
85.22
91.17
94.32
94.80
93.12
89.93
85.72
80.63
74.44
66.82
57.55
46.81
35.19
23.54
12.69
3.14
-4.90
-11.59
-17.24
-22.34
-27.65
-34.16
-42.91
-54.48
-68.52
-83.55
-97.38
-108.02
-114.62
-117.93
-119.82
-122.20
-125.96
-130.28
-133.21
-132.67
-127.45
-117.54
-104.01
-88.45
-72.37
-56.85
-42.37
-29.28
-17.96
-8.81
-1.94
3.07
7.21
11.78
18.10
27.44
40.14
55.38
71.49
86.58
99.10
108.13
113.45
115.49
116.01
116.10
115.26
111.52
102.57
86.87
64.37
36.79
7.14
-18.90
-37.16
-46.38
-47.69
-42.58
-31.88
-15.89
4.87
29.27
58.93
93.60
130.25
164.48
193.04
214.84
230.06
239.35
243.35
247.23
254.12
263.25
271.12
274.75
273.32
267.64
259.20
220.96
144.06
41.46
-61.94
-148.28
-212.78
-258.04
-288.40
-307.53
-318.38
-319.11
-309.72
-293.81
-276.91
-263.19
-253.14
-245.24
-237.62
-229.02
-215.74
-196.24
-172.60
-149.03
-128.93
-113.48
-102.12
-93.36
-85.34
-76.49
-65.44
-52.87
-40.81
-31.01
-23.86
-18.61
-13.95
-8.56
-0.59
10.95
25.38
41.08
56.66
71.62
86.07
100.37
114.78
129.71
145.49
161.92
178.49
194.63
210.00
224.54
238.44
251.95
265.14
277.62
288.12
294.67
295.18
288.15
273.26
251.50
224.87
195.60
165.55
135.56
105.38
74.03
40.57
4.72
-32.69
-69.85
-104.53
-134.86
-159.94
-180.07
-196.43
-210.60
-224.23
-238.99
-256.68
-279.13
-307.34
-340.25
-373.86
-401.58
-416.15
-412.58
-390.51
-354.87
-314.02
-276.24
-246.56
-225.42
-209.70
-195.24
-179.25
-161.27
-142.48
-123.99
-105.37
-84.70
-60.01
-30.82
1.10
32.44
59.89
81.49
97.35
109.34
119.69
129.58
138.54
144.98
147.34
145.11
138.70
129.13
117.66
105.25
92.28
78.70
64.48
49.86
37.38
29.31
25.78
24.75
23.93
22.23
19.63
16.31
12.14
6.71
-0.42
-9.32
-19.03
-27.73
-33.59
-35.52
-33.54
-28.53
-22.29
-15.67
-9.50
-4.20
0.38
4.59
8.59
12.23
15.14
16.85
17.35
16.78
15.89
15.82
17.71
22.26
29.63
39.67
50.25
60.08
68.34
74.90
80.28
85.33
90.93
97.65
105.69
114.83
124.74
134.43
142.45
147.01
146.45
139.70
126.61
107.97
85.21
60.31
35.35
12.43
-6.38
-19.25
-25.17
-24.51
-19.15
-12.10
-6.33
-3.93
-5.62
-10.97
-18.72
-27.49
-36.26
-44.50
-52.02
-58.45
-63.36
-66.53
-68.34
-69.28
-69.88
-70.61
-71.75
-73.48
-75.49
-77.26
-78.53
-79.74
-81.22
-83.18
-85.75
-89.24
-94.16
-100.45
-107.29
-113.33
-117.36
-117.64
-112.57
-101.32
-84.22
-62.60
-37.38
-9.07
24.32
59.61
90.16
109.68
115.64
111.44
99.89
83.59
65.21
47.33
31.64
20.95
17.83
23.37
36.27
52.80
68.64
80.34
86.25
86.64
83.97
81.45
81.42
84.22
87.95
89.95
87.63
79.27
64.10
42.81
17.14
-10.60
-37.95
-62.49
-81.69
-93.35
-96.33
-91.24
-80.27
-66.76
-54.24
-45.44
-41.61
-42.36
-46.35
-52.26
-59.52
-68.32
-79.14
-92.09
-106.37
-120.20
-131.17
-136.97
-136.11
-128.46
-115.25
-98.77
-81.72
-66.49
-54.64
-46.64
-42.00
-39.51
-37.66
-34.88
-29.77
-21.28
-8.90
7.17
25.90
45.66
64.61
81.29
95.01
106.02
115.11
123.17
130.67
137.55
143.42
147.94
151.17
153.62
156.01
158.96
162.70
167.06
171.56
175.56
178.38
179.30
177.68
173.03
165.18
154.28
140.60
124.29
105.18
82.91
57.28
28.56
-2.17
-33.14
-62.36
-88.08
-109.19
-125.20
-136.07
-141.97
-143.38
-141.04
-135.96
-129.18
-121.57
-113.68
-105.48
-96.48
-85.97
-73.52
-59.21
-43.64
-27.91
-13.38
-1.70
5.93
9.14
8.62
5.32
0.35
-5.33
-11.02
-16.53
-22.72
-30.64
-40.92
-53.07
-66.30
-79.05
-89.12
-94.16
-92.71
-85.74
-75.50
-64.56
-54.39
-46.76
-42.82
-42.87
-46.18
-51.39
-58.12
-65.59
-72.50
-76.55
-77.37
-75.69
-72.84
-69.77
-59.96
-41.30
-16.79
2.26
14.97
22.78
28.72
33.73
38.33
42.87
46.56
49.25
51.88
57.15
66.32
79.15
93.26
105.43
113.27
115.22
111.53
103.70
94.61
85.79
77.84
70.59
63.88
57.72
51.82
46.59
42.11
39.29
38.24
38.50
39.22
39.77
40.07
40.24
40.74
42.08
44.81
48.69
53.09
58.29
65.00
74.55
88.24
106.56
128.50
151.70
172.70
188.12
195.75
194.99
186.68
172.34
153.38
130.85
105.78
79.45
53.47
29.58
9.11
-7.22
-19.23
-27.04
-30.72
-30.17
-25.47
-17.26
-6.81
4.27
14.64
23.82
32.18
40.55
49.48
58.80
67.54
74.47
78.70
80.12
79.35
77.35
74.74
71.49
66.75
59.22
47.63
31.25
10.24
-14.25
-40.31
-65.81
-88.97
-108.80
-125.40
-139.88
-153.85
-169.09
-187.17
-208.96
-234.06
-260.26
-283.49
-298.67
-301.40
-289.79
-265.61
-233.83
-200.80
-171.82
-149.29
-132.45
-118.53
-104.70
-89.46
-73.09
-56.75
-41.84
-29.01
-17.96
-9.10
-4.17
-5.31
-13.64
-27.73
-42.84
-52.37
-50.12
-32.43
-0.80
38.84
79.01
113.52
139.26
156.27
165.63
169.01
169.02
166.81
162.16
154.74
143.83
128.08
105.51
72.11
25.79
-28.85
-86.27
-141.11
-186.98
-218.29
-231.57
-226.20
-208.39
-184.78
-153.98
-118.65
-85.08
-57.08
-35.67
-19.78
-7.67
-4.97
-16.33
-33.18
-53.73
-81.59
-116.33
-154.10
-190.23
-221.72
-256.96
-303.17
-349.43
-393.38
-439.69
-488.54
-536.61
-579.88
-560.17
-450.48
-340.64
-266.51
-214.72
-184.22
-171.38
-170.22
-175.09
-182.42
-198.55
-225.52
-215.31
-142.16
-14.17
138.32
280.48
388.98
456.45
481.48
471.84
449.88
424.72
394.48
358.63
321.39
291.10
276.46
277.81
289.97
309.74
324.33
319.56
290.79
244.25
192.17
146.48
112.31
90.27
80.33
78.42
79.84
82.75
86.91
91.19
92.47
86.05
69.35
44.53
15.49
-12.97
-35.99
-50.42
-56.00
-54.99
-51.03
-47.05
-44.74
-44.41
-45.01
-44.65
-41.37
-33.77
-21.02
-5.50
10.89
26.49
40.37
52.19
61.82
68.97
73.05
73.76
71.26
66.90
62.62
60.48
61.76
66.35
72.68
78.28
81.21
80.03
74.30
64.31
51.07
36.12
21.20
8.00
-2.26
-8.21
-10.18
-10.25
-11.44
-15.89
-23.86
-33.84
-43.64
-51.50
-55.24
-54.41
-49.96
-42.99
-33.33
-19.66
-0.91
22.55
48.60
76.17
103.33
127.49
146.42
159.54
167.84
172.86
175.74
163.79
132.63
88.50
43.40
5.80
-22.28
-42.69
-58.16
-70.66
-80.90
-86.55
-86.08
-80.36
-72.19
-64.49
-59.06
-56.47
-56.50
-58.62
-60.72
-61.64
-61.65
-61.74
-62.64
-64.21
-65.83
-66.86
-66.83
-64.46
-59.21
-51.68
-43.14
-34.92
-27.72
-21.57
-16.14
-11.20
-6.37
-1.84
1.57
3.28
3.12
1.71
0.09
-0.76
-0.24
1.91
5.58
10.39
16.14
22.48
29.10
35.60
41.58
46.69
50.64
53.10
52.01
47.48
39.84
29.68
17.57
4.23
-9.31
-21.79
-31.95
-38.83
-41.81
-41.05
-37.02
-30.77
-23.48
-16.01
-8.84
-2.11
4.30
10.79
17.37
23.92
29.42
32.60
32.62
29.50
24.08
17.74
12.02
6.51
1.25
-4.68
-12.54
-23.10
-35.92
-49.22
-60.04
-64.97
-61.58
-47.05
-22.84
4.68
27.20
39.67
42.22
38.72
35.29
33.47
32.85
31.80
29.27
25.39
21.74
19.45
19.86
23.16
27.86
31.99
33.33
30.60
23.18
11.54
-3.28
-20.02
-37.83
-56.69
-76.60
-97.44
-115.47
-126.50
-128.14
-121.38
-109.21
-94.77
-80.39
-66.89
-55.00
-42.83
-29.69
-16.11
-3.48
6.74
13.54
16.99
17.00
15.07
13.49
13.61
15.72
19.24
23.50
28.32
34.32
42.83
55.43
73.13
95.25
119.93
144.75
167.32
185.52
197.43
201.32
196.16
181.90
159.59
131.58
101.17
71.83
46.39
26.54
12.66
4.16
-0.29
-2.46
-4.02
-6.24
-9.68
-14.22
-19.32
-24.36
-29.25
-34.54
-41.39
-51.15
-64.94
-83.09
-104.72
-127.50
-148.11
-163.36
-170.93
-169.78
-160.32
-144.26
-124.09
-102.23
-80.34
-59.16
-39.39
-21.57
-6.02
7.21
18.03
26.23
31.68
34.61
35.48
33.82
28.70
19.23
5.21
-12.86
-33.82
-55.96
-77.23
-90.53
-90.56
-77.33
-56.63
-35.61
-18.76
-7.31
-0.62
2.53
3.08
0.79
-4.64
-12.55
-21.01
-27.53
-30.19
-28.21
-22.02
-13.01
-3.87
3.47
7.80
8.86
7.23
3.85
-0.17
-3.76
-6.12
-7.07
-7.00
-6.49
-5.95
-5.29
-4.00
-1.44
2.87
8.95
17.05
25.63
33.37
39.12
42.22
42.53
40.38
36.36
31.15
26.52
23.97
24.11
26.27
29.15
31.72
33.63
35.59
39.00
46.88
61.43
82.67
108.14
134.39
158.50
178.95
195.68
200.55
188.85
161.20
123.14
81.56
41.88
7.62
-19.14
-37.67
-47.80
-51.15
-49.63
-45.76
-41.88
-39.15
-37.60
-37.13
-38.18
-42.87
-51.14
-61.06
-70.53
-78.88
-86.25
-92.22
-96.93
-100.85
-104.14
-105.40
-100.59
-87.86
-68.90
-48.20
-30.32
-17.64
-9.54
-3.69
2.53
10.54
18.77
24.40
25.35
21.43
14.17
6.06
-0.61
-4.28
-4.88
-3.26
-0.59
2.38
5.47
8.63
11.45
12.96
11.90
7.32
-1.03
-12.22
-24.26
-34.82
-42.15
-45.56
-45.47
-42.90
-38.87
-34.22
-29.41
-24.64
-19.92
-15.30
-10.68
-5.89
-0.55
5.77
13.33
22.11
31.73
41.35
49.84
55.83
58.03
55.71
49.04
39.26
28.35
18.41
11.04
6.86
5.65
6.83
9.87
14.54
20.65
27.62
34.17
38.52
38.91
34.43
25.56
14.15
3.09
-4.55
-6.30
-1.00
10.86
27.07
44.25
58.72
67.60
69.56
65.10
56.00
44.47
32.30
20.53
9.62
-0.23
-8.82
-15.94
-21.61
-26.13
-30.01
-33.66
-37.17
-40.23
-42.55
-44.17
-45.54
-47.26
-49.51
-51.69
-52.53
-50.62
-45.01
-36.02
-25.22
-14.84
-6.85
-2.15
-0.38
-0.32
-0.66
-0.37
0.79
2.35
3.66
3.98
3.01
1.08
-0.75
-1.24
0.59
4.79
10.59
16.92
22.78
27.36
30.05
30.39
26.64
19.18
10.18
2.38
-2.40
-3.84
-2.77
-0.29
2.71
5.90
9.55
13.70
17.92
21.64
24.29
25.59
25.58
24.41
22.44
20.35
18.67
17.68
17.30
17.20
17.04
17.55
19.26
22.53
27.30
32.75
37.59
40.81
42.21
42.54
42.88
43.74
44.68
44.60
42.29
37.20
29.84
21.38
13.14
6.05
0.41
-3.78
-6.54
-7.97
-8.42
-8.61
-9.51
-12.03
-16.67
-23.35
-31.38
-39.73
-47.37
-53.44
-57.40
-58.99
-58.21
-55.26
-50.62
-44.90
-38.78
-32.79
-27.15
-21.76
-16.31
-10.55
-4.70
0.60
4.45
6.08
5.15
1.91
-2.75
-7.64
-11.60
-14.00
-14.74
-14.15
-12.80
-11.21
-9.72
-8.39
-7.04
-5.53
-4.17
-3.44
-3.75
-5.12
-7.03
-8.84
-9.78
-9.33
-7.52
-5.51
-4.46
-4.79
-6.10
-7.43
-8.55
-9.60
-10.92
-12.80
-16.52
-22.59
-30.43
-38.86
-46.52
-53.78
-61.01
-67.81
-73.15
-77.62
-81.39
-83.75
-83.57
-79.51
-73.01
-65.92
-59.69
-55.56
-56.86
-65.53
-80.69
-99.24
-116.59
-131.47
-143.51
-152.55
-142.43
-106.26
-50.83
8.29
50.60
78.51
95.86
105.24
110.30
112.63
111.27
106.29
99.80
95.00
95.29
99.79
106.33
112.85
117.55
117.52
111.17
99.11
83.58
68.00
53.56
40.99
30.97
23.49
16.77
8.94
-0.89
-12.39
-23.98
-34.96
-44.51
-51.55
-55.14
-55.10
-51.49
-44.45
-34.38
-21.93
-8.66
3.89
14.62
22.76
27.71
29.09
26.98
22.03
15.44
8.55
2.70
-1.10
-2.45
-1.50
1.16
4.82
8.84
12.82
16.59
20.22
23.99
28.29
33.46
39.39
45.34
49.83
51.02
47.30
38.08
24.22
7.94
-7.83
-20.47
-28.38
-31.31
-30.02
-25.59
-18.94
-10.60
-1.00
9.26
19.18
27.76
34.33
38.93
42.11
44.45
45.98
45.86
42.74
35.50
24.01
9.40
-6.19
-20.46
-31.75
-39.41
-43.81
-45.76
-46.04
-45.19
-43.49
-41.18
-38.54
-35.81
-32.88
-29.27
-24.23
-17.24
-8.51
0.82
8.93
13.97
14.79
11.38
4.78
-3.39
-11.67
-19.23
-26.07
-32.80
-40.09
-48.24
-56.84
-64.92
-71.18
-74.46
-74.05
-69.82
-62.17
-51.83
-39.67
-26.58
-13.34
-0.59
11.13
21.39
29.75
35.88
39.62
41.26
41.54
41.44
41.67
42.30
42.63
41.65
38.82
34.55
30.19
27.38
27.14
29.34
32.71
35.60
36.69
35.54
32.55
28.54
24.30
20.30
16.66
13.13
9.14
3.81
-3.83
-14.49
-28.00
-42.98
-56.96
-67.07
-71.03
-68.01
-59.10
-46.93
-34.89
-25.94
-21.74
-22.04
-24.92
-27.39
-26.51
-20.40
-8.82
6.88
24.42
41.51
56.51
68.73
78.04
84.45
87.86
88.14
85.41
80.30
73.87
67.30
61.54
56.92
53.12
49.37
44.82
38.84
31.33
22.76
13.96
5.81
-1.02
-6.12
-9.19
-9.96
-8.32
-4.52
0.51
5.25
8.03
7.75
4.45
-0.62
-5.51
-8.30
-7.80
-3.80
2.96
11.14
19.06
24.96
27.28
24.92
17.49
5.56
-9.29
-24.64
-37.53
-45.12
-45.36
-37.67
-23.38
-5.42
12.33
26.27
34.09
35.40
31.59
25.25
19.16
15.56
15.63
19.32
25.61
32.75
38.76
41.85
40.84
35.41
26.17
14.37
1.46
-11.38
-23.50
-34.72
-45.09
-54.59
-62.89
-69.34
-73.16
-73.73
-70.78
-64.48
-55.42
-44.42
-32.36
-19.99
-7.78
3.98
15.20
25.71
35.16
43.04
48.87
52.36
53.63
53.07
51.15
48.10
43.71
37.36
28.35
16.31
1.52
-15.15
-32.70
-50.39
-67.91
-84.99
-100.74
-113.12
-119.23
-116.27
-102.76
-79.42
-48.93
-14.89
19.43
51.79
80.71
104.81
122.46
132.16
133.37
127.06
115.41
100.76
84.47
66.50
45.99
22.46
-3.39
-29.64
-53.86
-73.90
-88.24
-95.79
-95.54
-86.74
-69.35
-44.86
-16.30
12.21
36.62
53.96
63.02
64.43
60.07
52.41
43.44
34.31
25.08
14.81
2.08
-14.20
-34.05
-56.22
-78.40
-98.05
-112.56
-119.52
-117.20
-104.91
-83.48
-55.27
-23.87
6.80
32.98
52.31
64.25
69.45
68.98
63.99
55.55
44.53
31.20
13.85
-9.22
-38.44
-72.62
-109.45
-145.93
-178.82
-205.34
-223.56
-234.67
-239.11
-235.54
-222.44
-200.45
-172.59
-142.53
-112.90
-84.71
-61.84
-46.56
-38.71
-37.08
-41.14
-50.19
-62.21
-74.39
-84.88
-98.98
-121.03
-150.50
-182.65
-211.99
-234.05
-245.91
-246.62
-206.44
-120.09
-10.95
88.81
162.96
212.27
243.71
262.93
272.22
271.63
256.32
226.24
188.76
154.73
131.94
122.26
122.69
127.91
132.98
131.37
121.29
106.40
92.48
82.76
76.98
73.02
68.83
63.56
55.19
43.69
31.34
21.05
14.11
10.33
9.07
9.82
12.34
14.95
16.22
15.70
13.76
10.91
7.70
4.61
1.92
-0.22
-2.42
-5.00
-7.70
-9.86
-11.07
-11.38
-11.35
-11.79
-13.20
-15.75
-19.17
-22.92
-26.34
-28.82
-29.78
-28.66
-26.18
-22.54
-18.09
-13.44
-9.39
-6.72
-5.98
-7.31
-10.43
-14.68
-19.00
-22.46
-24.31
-24.17
-22.02
-18.18
-13.14
-7.33
-1.09
5.48
12.20
18.64
24.06
27.42
27.66
23.88
15.58
2.82
-13.63
-32.33
-51.22
-67.78
-79.47
-84.29
-81.31
-71.03
-55.30
-36.69
-17.81
-0.56
14.22
26.67
37.52
47.56
57.31
66.97
76.63
86.35
96.26
106.39
116.51
126.02
133.97
139.20
140.46
136.48
126.16
108.87
84.84
55.51
23.57
-7.45
-33.94
-53.24
-64.34
-68.19
-67.24
-64.56
-62.85
-63.49
-66.20
-69.16
-69.84
-65.98
-56.42
-41.54
-23.03
-3.30
15.41
31.62
44.99
55.89
64.92
72.61
79.44
85.85
92.29
98.96
105.50
111.17
114.35
112.98
105.49
91.69
72.94
51.62
30.39
11.28
-3.84
-14.50
-21.50
-26.30
-30.14
-33.74
-37.27
-40.15
-41.40
-38.53
-29.91
-15.45
3.71
26.06
50.06
74.07
96.67
116.27
133.03
146.25
154.31
155.30
148.38
134.25
114.78
92.87
60.99
19.60
-24.16
-61.56
-88.58
-106.47
-117.54
-125.86
-133.16
-139.81
-143.85
-144.35
-141.11
-134.80
-125.71
-113.90
-99.60
-83.47
-67.08
-50.92
-35.87
-22.85
-12.64
-5.08
-1.17
-1.22
-4.31
-8.71
-11.71
-12.07
-9.37
-5.93
-3.84
-4.09
-6.21
-8.80
-11.07
-11.95
-11.29
-9.76
-8.39
-7.57
-6.99
-5.74
-2.71
2.94
11.88
24.14
38.90
54.35
68.03
77.15
79.40
73.61
60.22
41.35
20.07
-0.33
-17.29
-29.41
-36.66
-40.15
-41.63
-42.76
-44.42
-46.39
-47.49
-46.30
-41.92
-34.68
-25.99
-17.61
-10.65
-4.78
1.56
10.20
22.01
36.23
50.49
61.87
68.01
67.89
61.98
51.69
38.81
25.01
11.72
0.02
-9.62
-17.46
-24.49
-31.90
-40.33
-49.28
-57.17
-62.03
-62.40
-57.90
-49.05
-36.70
-21.48
-3.71
16.02
36.32
54.99
69.59
78.34
80.62
76.76
67.50
53.55
35.74
15.57
-4.52
-21.76
-34.32
-42.40
-48.27
-55.05
-64.76
-76.94
-88.63
-95.85
-95.69
-87.81
-74.47
-59.35
-45.72
-35.11
-27.04
-19.64
-10.91
0.30
13.96
29.11
44.49
59.00
71.78
81.85
87.77
87.64
79.83
64.14
42.70
19.62
-0.54
-14.74
-22.62
-26.25
-28.60
-31.84
-36.45
-41.42
-45.21
-46.77
-45.77
-42.04
-34.99
-23.68
-7.35
13.50
37.10
60.81
81.24
94.72
97.79
87.66
63.22
26.26
-18.23
-62.19
-96.36
-114.28
-114.85
-102.24
-83.90
-67.33
-57.09
-54.47
-57.36
-61.66
-64.66
-65.77
-65.25
-63.04
-58.25
-49.50
-37.17
-22.57
-6.86
7.75
19.05
26.23
29.37
28.52
28.06
28.12
21.08
5.94
-12.34
-29.47
-42.16
-49.29
-51.77
-51.18
-50.40
-49.94
-47.53
-41.16
-30.34
-15.61
1.89
21.30
42.80
64.92
86.96
108.44
127.11
139.00
140.06
127.42
98.60
60.87
18.84
-20.47
-50.02
-66.00
-69.04
-63.24
-54.24
-46.44
-38.29
-30.50
-22.96
-15.31
-7.81
-1.15
4.50
9.79
16.04
25.37
36.54
47.40
55.49
58.56
55.34
45.80
28.70
6.40
-15.37
-30.57
-35.93
-32.09
-22.24
-10.44
0.41
7.56
10.47
10.61
8.92
7.26
7.27
9.21
12.69
18.23
26.13
36.63
49.18
61.87
72.37
78.26
74.28
57.31
28.56
-6.26
-38.77
-61.25
-71.17
-70.36
-62.84
-53.73
-46.94
-43.68
-41.79
-38.18
-29.61
-13.99
7.52
31.44
55.10
75.45
89.95
96.46
93.46
80.98
60.80
36.30
11.55
-10.05
-26.76
-38.15
-44.70
-47.16
-45.89
-41.56
-35.52
-29.80
-25.32
-22.39
-20.23
-17.99
-15.82
-14.46
-14.48
-15.64
-16.86
-16.49
-13.25
-6.80
2.15
10.66
16.14
18.40
19.93
23.25
28.54
33.10
33.19
26.49
13.61
-0.99
-13.28
-20.00
-19.83
-13.26
-1.93
12.10
26.97
39.33
46.36
46.60
40.16
27.91
11.37
-7.41
-26.13
-42.35
-53.89
-59.12
-57.68
-50.52
-39.82
-28.43
-17.52
-7.75
1.01
9.48
18.76
29.56
41.82
54.54
66.55
76.77
84.52
89.90
93.48
96.03
98.04
99.77
99.20
96.00
90.78
84.63
78.71
73.64
69.26
64.76
59.16
51.75
42.65
32.16
20.38
7.17
-7.67
-24.01
-41.07
-57.56
-72.18
-83.91
-92.70
-99.27
-104.34
-108.18
-110.36
-110.22
-107.40
-102.28
-95.65
-88.48
-81.33
-74.06
-66.07
-56.74
-45.82
-33.54
-20.49
-7.33
5.33
17.01
27.35
35.98
42.39
46.02
46.43
43.48
37.52
29.43
20.46
12.03
5.20
0.26
-3.23
-6.15
-9.54
-14.18
-20.29
-27.48
-34.78
-41.02
-45.55
-47.98
-48.14
-46.11
-42.25
-37.14
-31.31
-25.17
-19.03
-13.99
-10.94
-10.12
-11.18
-13.64
-17.01
-20.72
-24.08
-26.39
-28.44
-30.79
-33.39
-35.77
-37.82
-40.01
-42.98
-46.96
-51.80
-58.67
-67.94
-78.67
-89.12
-97.97
-104.82
-109.91
-113.55
-105.77
-82.27
-46.57
-7.39
28.31
58.08
81.93
100.27
113.59
122.48
125.14
120.56
109.70
95.23
80.10
66.54
55.64
48.65
46.22
46.98
49.46
52.79
56.59
60.13
62.19
61.48
57.38
50.19
40.35
29.35
19.36
12.36
9.24
9.68
12.68
17.29
22.69
27.82
31.80
34.08
34.42
32.81
29.53
25.16
20.33
15.35
9.80
2.95
-5.71
-16.01
-27.11
-37.48
-45.31
-49.27
-49.18
-45.98
-41.36
-36.75
-32.73
-29.37
-26.00
-21.68
-15.76
-8.41
-0.29
7.53
14.32
19.86
23.41
24.30
22.04
16.22
6.54
-6.62
-22.36
-38.69
-53.09
-64.42
-72.35
-77.15
-79.60
-80.96
-82.23
-84.44
-87.74
-85.45
-74.03
-54.83
-32.74
-12.19
2.82
13.77
21.81
27.84
32.84
36.64
39.43
42.24
46.48
53.11
62.46
73.48
84.77
94.89
101.80
104.13
101.54
94.74
84.90
73.56
61.77
50.33
39.55
28.62
16.46
2.40
-13.37
-29.88
-45.61
-59.24
-69.81
-76.80
-80.42
-81.10
-79.30
-75.57
-70.59
-65.05
-59.48
-53.90
-47.83
-40.73
-32.36
-23.04
-13.66
-5.38
0.68
3.87
4.17
2.30
-0.49
-2.76
-3.36
-1.85
1.28
4.89
7.78
9.29
9.57
9.40
9.61
10.63
12.35
14.24
15.66
16.18
15.63
14.02
11.42
7.98
4.08
0.59
-1.54
-1.66
0.24
3.59
7.44
11.00
13.98
16.68
20.15
25.15
31.63
38.75
45.44
50.90
54.88
57.48
58.90
59.73
59.99
59.07
56.20
51.18
44.55
37.49
31.12
26.22
23.87
24.28
26.78
30.11
33.14
35.05
35.49
34.22
27.32
14.04
-2.47
-17.66
-29.57
-39.25
-50.48
-65.48
-84.55
-106.36
-126.19
-139.26
-142.21
-134.12
-116.40
-92.34
-66.00
-41.36
-21.24
-6.18
4.47
11.78
16.74
20.36
23.65
27.69
33.23
40.63
49.90
60.02
69.03
74.66
75.39
70.98
62.50
51.62
40.01
28.97
18.90
9.50
0.30
-8.64
-16.61
-22.59
-25.77
-25.83
-22.99
-17.94
-11.58
-5.08
0.26
3.83
5.94
7.31
8.40
9.34
10.12
10.78
11.40
12.05
13.23
14.21
14.06
12.12
8.24
2.85
-3.15
-8.74
-13.10
-15.38
-15.36
-13.98
-12.86
-13.50
-16.49
-21.26
-26.52
-30.87
-33.42
-34.22
-33.95
-33.22
-32.43
-31.63
-30.72
-29.74
-28.96
-28.66
-29.01
-30.26
-31.52
-31.92
-30.88
-28.10
-23.63
-17.57
-9.94
-0.45
10.37
21.85
32.96
42.56
49.92
54.72
57.04
57.06
54.81
50.23
43.78
36.45
30.03
26.70
27.84
33.14
40.42
46.60
49.13
47.37
42.65
37.05
33.09
32.59
36.25
43.63
53.51
64.30
74.29
81.14
83.04
79.51
71.47
61.03
50.86
43.40
40.22
41.92
46.74
52.97
59.69
66.60
73.44
79.52
84.02
86.43
87.06
84.33
77.92
68.98
59.21
49.54
39.62
28.09
12.58
-4.82
-27.03
-56.03
-91.41
-130.89
-171.97
-212.45
-250.12
-282.29
-305.77
-322.36
-333.57
-339.73
-341.11
-339.69
-338.79
-341.52
-349.31
-336.86
-291.95
-219.73
-138.27
-64.26
-5.65
37.14
66.88
86.81
99.43
102.05
91.49
70.32
43.67
16.19
-8.90
-30.44
-49.08
-67.03
-90.70
-125.51
-174.15
-230.42
-287.58
-337.39
-371.52
-383.56
-371.15
-338.86
-294.30
-245.08
-196.67
-152.25
-112.11
-74.92
-39.22
-4.09
29.96
63.32
97.20
132.78
169.71
206.63
241.43
271.92
296.54
314.49
327.65
337.99
346.61
353.45
358.49
361.61
362.24
359.31
351.66
341.94
332.09
322.30
311.66
299.87
287.20
273.86
259.83
244.98
234.53
230.97
232.37
234.56
234.94
233.45
231.37
230.18
230.49
238.38
254.94
274.82
290.23
296.43
293.34
283.85
272.09
222.21
127.39
10.75
-95.59
-175.75
-230.81
-267.91
-293.43
-309.31
-319.16
-318.22
-305.38
-285.53
-266.03
-251.56
-243.10
-238.99
-237.08
-235.84
-229.10
-214.19
-192.75
-168.10
-142.23
-115.22
-90.44
-73.58
-68.28
-69.69
-71.48
-69.81
-64.37
-57.14
-51.17
-49.37
-52.64
-59.43
-64.89
-65.80
-61.99
-55.56
-48.97
-43.86
-40.71
-38.55
-35.42
-28.47
-16.42
-0.19
17.46
32.77
41.85
41.95
33.34
18.67
5.24
-0.11
5.63
20.37
38.65
53.70
60.63
58.30
49.08
37.17
25.91
16.46
8.57
1.84
-4.03
-9.22
-14.22
-20.20
-28.22
-38.99
-52.35
-66.37
-77.89
-83.02
-79.12
-65.95
-46.12
-23.90
-4.19
8.77
14.01
14.15
13.51
16.24
24.46
35.40
43.63
48.71
51.61
52.10
51.62
50.95
49.35
44.90
35.54
20.61
1.34
-22.15
-45.41
-61.47
-65.95
-60.04
-49.30
-40.24
-35.26
-33.76
-33.87
-33.06
-29.71
-24.78
-19.61
-15.15
-11.47
-7.50
-1.99
5.73
16.00
28.35
41.43
53.57
63.39
70.43
75.55
80.79
88.65
101.43
119.62
141.20
162.19
178.45
187.65
190.34
189.20
187.27
186.20
184.66
179.70
167.45
145.46
113.74
74.77
32.35
-9.67
-48.34
-82.65
-111.31
-134.34
-152.03
-164.77
-173.00
-177.40
-178.75
-177.89
-176.56
-174.08
-170.90
-167.41
-163.78
-159.91
-155.33
-149.48
-141.93
-134.08
-124.84
-115.02
-105.39
-96.13
-86.80
-76.76
-65.73
-45.35
-27.86
-12.00
1.94
13.80
23.93
32.94
41.21
48.69
54.92
58.02
59.17
58.14
54.49
48.39
40.52
31.74
22.60
13.40
3.32
-6.13
-14.71
-22.81
-30.34
-36.61
-40.68
-41.71
-39.18
-33.69
-25.02
-10.74
7.21
23.97
35.40
40.53
40.67
37.64
32.55
26.85
21.41
16.63
13.41
12.71
14.83
19.08
24.26
29.38
34.21
39.18
44.80
51.94
61.46
73.54
87.32
101.26
113.64
123.16
129.29
131.93
131.80
130.14
127.94
125.35
121.63
115.41
105.23
90.08
69.41
44.09
16.53
-9.82
-31.65
-46.81
-55.03
-57.88
-58.00
-58.73
-62.23
-68.79
-77.23
-85.90
-93.48
-99.22
-102.91
-104.70
-106.06
-108.36
-112.48
-118.59
-126.45
-135.26
-143.80
-150.68
-154.57
-156.01
-155.59
-153.31
-148.65
-141.44
-132.07
-121.41
-110.08
-89.65
-56.02
-10.97
38.30
83.62
119.20
142.75
155.01
159.02
158.91
156.54
152.14
144.73
134.26
119.65
101.49
82.26
65.77
56.00
54.12
59.17
68.40
78.09
84.44
85.10
79.70
68.82
54.62
38.68
22.45
7.05
-6.85
-19.26
-30.25
-39.91
-48.26
-55.47
-62.85
-71.25
-80.52
-89.65
-97.58
-103.40
-106.68
-107.55
-106.65
-105.93
-106.42
-107.54
-107.44
-103.96
-95.36
-80.81
-60.67
-31.72
2.77
35.24
59.05
72.54
78.22
79.74
79.73
79.99
80.10
78.26
73.81
67.73
61.85
57.49
54.96
53.33
51.78
49.46
44.77
36.89
26.19
13.73
0.49
-13.01
-26.53
-39.92
-50.16
-55.06
-54.18
-48.89
-40.82
-31.15
-20.79
-10.71
-1.85
5.04
9.08
10.07
8.63
5.76
2.32
-1.21
-4.51
-7.19
-8.93
-9.98
-10.83
-11.91
-13.44
-15.34
-17.26
-18.58
-18.66
-17.22
-14.73
-12.03
-9.85
-8.25
-6.73
-4.50
-0.95
4.09
10.09
15.98
20.70
23.67
24.78
24.12
21.62
17.29
11.25
4.01
-3.36
-9.41
-12.74
-12.46
-8.64
-2.27
5.35
12.73
18.42
21.30
20.76
16.84
10.35
2.66
-4.64
-9.66
-11.07
-8.39
-2.04
7.13
18.26
30.93
43.89
54.21
59.61
59.16
53.77
45.55
36.58
27.71
18.72
10.06
0.71
-8.82
-16.88
-21.57
-21.83
-17.95
-11.43
-4.05
2.75
8.33
12.43
15.06
16.07
15.06
12.92
9.47
5.10
0.87
-2.54
-4.19
-3.88
-2.35
-0.72
0.09
-0.40
-1.94
-3.98
-6.18
-8.21
-9.56
-9.67
-8.11
-4.77
0.01
5.77
11.85
17.41
21.87
24.75
25.93
25.64
24.43
22.84
21.21
19.85
18.82
17.91
16.60
14.57
11.98
9.51
7.94
7.79
8.90
10.31
12.02
13.18
13.16
11.93
10.11
8.44
7.55
7.61
8.28
8.93
8.81
7.71
5.95
4.18
2.62
1.09
-0.94
-4.14
-8.86
-15.00
-21.62
-27.66
-32.39
-36.40
-40.82
-46.59
-53.92
-62.17
-70.11
-75.95
-78.33
-76.61
-72.02
-66.35
-61.19
-57.49
-55.39
-54.42
-53.38
-51.54
-48.73
-46.51
-46.37
-48.69
-52.66
-56.96
-60.68
-63.41
-66.23
-63.41
-52.85
-36.55
-18.87
-2.77
11.54
22.39
32.16
41.77
51.03
58.19
62.02
63.22
62.85
62.23
62.13
