1698246109.00
64.000000
-0.00
-0.00
-0.00
-0.00
-0.00
-0.00
-0.00
-0.00
-0.00
-0.00
0.00
0.01
0.01
-0.00
-0.03
-0.05
-0.05
0.00
0.13
0.36
0.66
1.01
1.37
1.72
2.06
2.40
2.79
3.24
3.80
4.42
5.06
5.66
6.20
6.68
7.15
7.68
8.31
9.14
10.09
11.04
11.88
12.56
13.14
13.76
14.65
15.96
17.91
20.32
22.90
25.38
27.58
29.57
31.68
34.32
37.81
42.54
48.15
54.10
59.83
64.97
69.58
74.14
79.34
85.71
93.76
103.00
112.62
121.73
129.77
136.75
143.30
150.75
157.77
166.64
177.95
191.79
206.97
220.57
228.25
225.36
208.53
176.87
132.76
80.05
23.07
-34.94
-92.44
-149.16
-205.23
-260.37
-313.74
-363.87
-409.83
-450.91
-486.50
-515.74
-537.23
-549.22
-549.96
-538.37
-514.21
-478.67
-433.88
-382.45
-327.02
-269.84
-212.63
-156.66
-102.95
-52.37
-5.90
35.58
71.43
101.35
125.50
144.38
158.69
169.15
176.37
180.75
182.58
182.07
179.50
175.22
169.65
163.18
156.18
148.86
141.35
133.71
125.94
118.11
110.29
102.58
95.09
87.88
80.98
74.40
68.10
62.07
56.31
50.83
45.67
40.86
36.40
32.29
28.48
24.91
21.53
18.31
15.29
12.54
10.15
8.16
6.52
5.09
3.70
2.20
0.54
-1.19
-2.78
-4.02
-4.80
-5.18
-5.42
-5.84
-6.74
-8.20
-10.05
-11.95
-13.47
-14.34
-14.59
-14.53
-14.65
-15.38
-16.95
-19.18
-21.65
-23.84
-25.28
-25.80
-25.50
-24.77
-24.30
-25.04
-27.91
-33.19
-39.85
-45.29
-45.91
-38.34
-21.04
4.77
35.32
65.62
91.15
109.03
118.28
119.26
113.02
101.01
85.17
68.01
52.15
39.50
30.39
23.70
17.62
10.90
3.49
-3.74
-9.84
-14.78
-19.49
-25.24
-32.45
-40.14
-46.31
-49.09
-47.90
-43.74
-38.52
-33.94
-30.65
-28.15
-25.46
-21.83
-16.94
-10.78
-3.24
6.08
17.50
30.55
43.64
54.19
59.42
57.44
48.16
33.56
17.15
3.10
-5.62
-7.51
-2.77
7.05
19.94
33.81
46.79
56.97
62.94
63.17
56.51
42.71
23.28
1.62
-17.59
-30.08
-33.75
-29.48
-21.10
-13.31
-9.42
-9.72
-11.79
-12.60
-11.14
-9.34
-11.18
-20.07
-36.29
-56.87
-77.53
-94.96
-108.21
-117.62
-122.82
-121.47
-109.83
-85.16
-48.24
-3.92
40.02
75.28
95.60
97.95
82.75
53.34
15.23
-25.11
-61.02
-87.02
-100.06
-100.01
-89.01
-70.07
-45.67
-17.21
14.11
46.23
76.42
101.54
118.90
127.31
127.25
120.49
109.26
95.34
79.93
63.97
48.60
35.27
25.29
18.99
14.86
11.06
6.34
1.29
-1.71
-0.12
6.38
14.96
20.65
19.11
9.42
-5.57
-21.31
-34.73
-46.15
-58.39
-73.77
-90.94
-105.63
-112.62
-109.82
-100.22
-91.14
-88.19
-92.96
-101.67
-107.32
-103.55
-87.80
-62.03
-30.85
1.04
29.55
53.27
72.22
86.82
97.43
104.54
108.68
110.59
111.77
111.80
110.29
106.58
99.78
89.05
73.98
55.06
34.05
13.64
-3.38
-14.99
-20.93
-22.53
-21.64
-19.45
-16.02
-10.48
-2.06
8.91
21.03
32.17
40.34
44.34
43.99
39.84
32.95
24.68
16.40
9.44
4.65
2.22
1.72
2.41
3.62
5.30
7.90
11.85
17.07
22.66
27.14
29.12
28.70
26.35
23.22
20.35
18.00
15.53
11.92
6.56
-0.17
-6.93
-12.26
-15.12
-15.49
-14.20
-12.47
-11.47
-11.95
-14.30
-18.52
-24.45
-31.55
-39.12
-46.35
-52.25
-55.38
-53.61
-44.62
-27.22
-2.73
24.18
46.38
56.76
50.86
28.41
-6.96
-49.50
-93.44
-134.22
-168.50
-193.50
-207.13
-208.91
-201.37
-190.15
-182.15
-182.34
-190.73
-201.42
-204.56
-190.56
-154.28
-97.93
-30.40
35.73
88.55
121.16
133.62
132.30
126.16
123.17
127.00
137.15
150.38
163.18
173.74
181.91
188.01
191.17
190.06
182.81
169.64
152.73
134.82
117.72
101.06
82.49
58.37
26.34
-15.01
-60.06
-97.53
-117.30
-117.55
-104.81
-87.21
-75.96
-69.75
-65.21
-58.81
-49.19
-38.33
-26.96
-18.59
-15.95
-19.75
-27.51
-36.17
-42.40
-44.37
-42.72
-39.91
-39.23
-42.73
-51.13
-63.27
-78.23
-94.76
-111.94
-129.33
-146.63
-163.51
-178.97
-191.83
-200.67
-205.07
-204.98
-200.66
-192.65
-181.47
-167.53
-150.72
-130.65
-106.85
-79.47
-49.23
-17.44
14.24
44.34
71.84
96.59
118.97
139.51
158.17
174.39
187.28
196.19
201.13
202.81
202.44
201.28
200.15
199.28
198.46
197.21
195.00
191.39
186.07
178.93
170.18
160.37
150.19
140.15
130.23
119.69
107.37
92.33
74.54
55.23
36.67
21.29
10.78
5.39
3.96
4.50
5.05
4.30
1.77
-2.37
-7.75
-14.04
-21.00
-28.26
-35.21
-40.96
-44.54
-45.22
-42.80
-37.87
-31.66
-25.81
-21.86
-20.76
-22.56
-26.48
-31.29
-35.89
-39.80
-43.13
-46.36
-49.77
-53.10
-55.54
-56.08
-54.04
-49.43
-42.98
-35.77
-28.82
-22.71
-17.55
-13.13
-9.19
-5.67
-2.71
-0.56
0.57
0.52
-0.77
-3.33
-7.10
-11.87
-17.10
-22.02
-25.73
-27.51
-27.05
-24.57
-20.68
-16.15
-11.63
-7.59
-4.25
-1.75
-0.22
0.22
-0.49
-2.30
-4.98
-8.09
-11.13
-13.63
-15.33
-16.23
-16.60
-16.80
-17.15
-17.75
-18.47
-19.13
-19.52
-19.64
-19.63
-19.66
-19.88
-20.33
-20.94
-21.58
-21.97
-21.70
-20.18
-16.77
-11.00
-2.83
7.26
18.36
29.41
39.52
48.18
55.27
60.96
65.44
68.88
71.35
72.96
73.90
74.39
74.62
74.62
74.28
73.40
71.81
69.46
66.39
62.64
58.25
53.17
47.51
41.55
35.86
31.06
27.51
25.05
23.01
20.46
16.72
11.85
6.77
2.95
1.83
4.18
9.80
17.58
25.91
33.26
38.53
41.20
41.22
38.77
34.13
27.62
19.66
10.79
1.62
-7.35
-15.90
-24.14
-32.29
-40.47
-48.46
-55.72
-61.65
-65.93
-68.80
-70.94
-73.14
-75.88
-79.10
-82.29
-84.78
-86.13
-86.34
-85.84
-85.27
-85.27
-86.17
-87.94
-90.11
-92.02
-93.02
-92.81
-91.59
-90.08
-89.24
-89.94
-92.65
-97.19
-102.80
-108.38
-112.80
-115.10
-114.55
-110.52
-102.33
-89.25
-70.71
-46.63
-17.79
14.11
46.92
78.68
108.07
134.39
157.32
176.55
191.72
202.53
209.05
212.07
212.85
212.52
211.30
208.27
201.98
191.59
177.77
162.62
149.21
140.22
136.68
137.37
139.29
138.97
133.83
122.64
104.72
80.52
51.56
20.14
-11.10
-39.72
-63.84
-82.37
-95.51
-106.18
-117.21
-130.04
-144.32
-158.83
-172.35
-184.21
-194.01
-202.07
-211.80
-225.65
-243.95
-264.67
-284.99
-302.46
-315.77
-324.06
-327.84
-331.70
-338.99
-349.97
-361.77
-370.69
-373.84
-370.53
-361.12
-324.33
-251.05
-148.01
-35.06
68.66
154.12
221.50
271.99
311.66
341.73
357.02
353.32
330.34
291.70
239.83
179.16
113.79
53.93
12.19
-4.29
4.63
32.06
66.88
95.78
113.16
116.44
107.08
89.16
66.09
41.28
17.94
0.14
-9.02
-7.43
4.11
23.21
46.43
69.20
87.96
101.18
110.02
117.39
127.52
142.77
157.94
165.45
159.22
139.69
113.34
88.58
71.52
65.13
68.19
77.23
88.45
98.80
106.47
109.96
109.59
102.22
85.99
60.36
27.15
-9.70
-45.00
-72.97
-89.49
-93.71
-89.13
-81.72
-78.47
-83.90
-96.30
-111.24
-122.68
-127.16
-126.16
-125.74
-131.46
-144.61
-153.15
-143.38
-108.57
-55.39
-1.14
37.03
49.73
42.02
23.76
5.15
-8.35
-17.00
-22.77
-28.93
-37.49
-48.04
-57.62
-62.49
-59.48
-48.95
-34.94
-23.50
-20.24
-27.32
-42.72
-61.18
-77.04
-85.90
-86.40
-79.59
-67.31
-51.20
-32.20
-11.35
9.60
27.82
40.64
46.22
44.56
37.57
28.45
20.62
16.60
17.29
21.82
28.45
35.17
40.38
43.18
43.31
40.99
36.83
31.54
25.82
20.45
16.19
13.57
12.94
14.35
17.42
21.48
25.41
27.93
28.44
27.15
24.87
22.56
20.87
19.78
19.19
18.90
18.92
20.27
23.92
29.70
35.96
40.39
40.75
36.98
30.49
23.19
17.71
15.59
16.22
17.16
15.84
10.28
1.68
-7.36
-14.21
-15.57
-9.04
5.53
26.38
51.18
77.22
104.38
133.01
152.69
154.50
136.20
103.82
66.97
40.51
24.11
15.88
13.97
16.67
20.38
23.85
25.92
25.34
21.53
13.85
4.02
-6.29
-16.31
-24.83
-30.30
-31.90
-29.60
-23.80
-15.99
-6.65
3.42
12.87
21.00
27.75
32.91
36.02
36.75
34.64
30.45
25.12
19.34
13.78
8.95
4.74
0.52
-4.53
-11.26
-19.72
-29.48
-39.89
-50.01
-58.88
-65.86
-70.78
-73.81
-75.33
-75.56
-74.53
-72.19
-68.46
-63.27
-56.71
-49.06
-40.74
-32.25
-23.98
-16.09
-8.42
-0.66
7.45
15.81
23.94
31.25
37.38
42.52
47.30
52.41
58.07
63.73
68.12
69.70
67.23
60.25
49.15
34.94
18.91
2.25
-14.07
-29.43
-43.47
-56.14
-67.68
-78.50
-89.05
-99.60
-110.07
-120.00
-128.75
-135.80
-141.04
-144.78
-147.59
-149.96
-151.94
-153.14
-152.92
-150.88
-147.20
-142.83
-139.17
-137.54
-138.61
-142.14
-147.09
-152.09
-155.95
-158.00
-158.07
-156.16
-152.12
-145.44
-135.31
-120.94
-101.95
-78.63
-51.84
-22.67
7.93
39.49
71.98
105.40
139.27
172.38
202.92
229.16
250.13
266.07
278.26
288.29
297.45
306.24
314.33
320.88
324.83
325.00
320.20
309.37
291.80
267.56
237.62
203.77
167.96
131.55
94.89
57.42
18.55
-21.43
-60.73
-96.54
-126.10
-147.91
-162.39
-171.72
-178.94
-186.94
-197.58
-211.12
-225.96
-238.90
-246.06
-244.37
-232.65
-212.14
-185.68
-156.16
-125.21
-93.01
-59.22
-24.34
9.62
40.04
64.94
84.11
98.82
110.65
120.35
127.62
131.90
133.29
132.66
130.85
127.76
122.22
112.81
98.99
81.91
63.91
47.44
34.02
24.03
17.27
13.60
13.06
15.37
19.28
22.62
23.03
19.25
11.74
2.55
-5.87
-11.97
-15.54
-17.50
-18.96
-20.44
-21.69
-22.21
-21.90
-21.49
-22.20
-25.10
-30.37
-37.13
-43.77
-48.81
-51.56
-52.40
-52.43
-52.80
-54.04
-55.75
-56.82
-55.91
-52.01
-44.88
-35.10
-23.75
-12.03
-0.85
9.37
18.62
27.06
34.75
41.57
47.16
51.18
53.44
54.03
53.21
51.31
48.52
44.90
40.40
35.05
29.04
22.69
16.33
10.12
4.07
-1.96
-8.09
-14.29
-20.36
-25.98
-30.78
-34.56
-37.31
-39.34
-41.14
-43.23
-45.87
-48.83
-51.31
-52.14
-50.18
-44.77
-36.02
-24.78
-12.42
-0.36
10.29
18.86
25.17
29.36
31.76
32.79
32.92
32.54
31.89
30.91
29.31
26.74
23.03
18.42
13.55
9.34
6.64
5.99
7.52
10.95
15.77
21.40
27.23
32.69
37.28
40.66
42.72
43.54
43.28
42.09
39.98
36.90
32.95
28.52
24.31
21.19
19.93
20.85
23.75
27.87
32.10
35.28
36.35
34.64
29.94
22.53
13.22
3.14
-6.42
-14.39
-20.22
-24.01
-26.51
-28.78
-31.80
-36.09
-41.61
-47.81
-53.95
-59.45
-64.09
-68.00
-71.46
-74.75
-77.95
-80.93
-83.53
-85.61
-87.18
-88.25
-88.70
-88.16
-85.99
-81.57
-74.59
-65.36
-54.77
-44.04
-34.31
-26.25
-19.96
-15.14
-11.40
-8.47
-6.31
-4.98
-4.42
-4.33
-4.21
-3.49
-1.78
0.99
4.56
8.44
12.11
15.20
17.61
19.40
20.74
21.71
22.27
22.25
21.47
19.83
17.30
13.97
9.95
5.52
1.12
-2.58
-4.85
-5.09
-3.08
0.84
5.98
11.41
16.43
20.66
24.03
26.61
28.46
29.59
30.00
29.84
29.43
29.11
29.11
29.37
29.58
29.35
28.42
26.76
24.59
22.17
19.73
17.36
15.07
12.86
10.79
8.91
7.20
5.49
3.53
1.15
-1.61
-4.34
-6.39
-7.11
-6.13
-3.48
0.34
4.66
8.80
12.29
14.86
16.40
16.91
16.39
14.95
12.78
10.22
7.69
5.56
4.13
3.47
3.48
3.88
4.39
4.76
4.88
4.76
4.44
3.95
3.25
2.23
0.77
-1.18
-3.60
-6.41
-9.45
-12.50
-15.25
-17.32
-18.31
-17.86
-15.80
-12.18
-7.38
-1.94
3.48
8.33
12.21
14.92
16.41
16.67
15.71
13.58
10.45
6.68
2.86
-0.40
-2.63
-3.69
-3.85
-3.63
-3.58
-4.03
-4.96
-6.07
-7.06
-7.75
-8.27
-8.94
-10.08
-11.81
-14.03
-16.46
-18.73
-20.54
-21.51
-21.29
-19.56
-16.15
-11.24
-5.32
0.82
6.40
10.84
13.88
15.53
15.93
15.21
13.49
10.93
7.84
4.67
1.92
-0.02
-1.06
-1.41
-1.45
-1.56
-1.98
-2.70
-3.56
-4.42
-5.19
-5.86
-6.51
-7.13
-7.78
-8.49
-9.39
-10.61
-12.15
-13.74
-14.79
-14.60
-12.52
-8.32
-2.29
4.84
12.08
18.50
23.41
26.48
27.63
27.01
24.82
21.38
17.06
12.28
7.49
3.08
-0.67
-3.61
-5.80
-7.34
-8.40
-9.09
-9.51
-9.73
-9.84
-9.95
-10.16
-10.54
-11.12
-11.91
-12.94
-14.28
-15.99
-18.04
-20.19
-21.95
-22.68
-21.73
-18.64
-13.31
-6.06
2.44
11.32
19.71
26.88
32.33
35.85
37.47
37.39
35.95
33.53
30.46
27.02
23.40
19.74
16.16
12.80
9.80
7.25
5.19
3.59
2.34
1.33
0.44
-0.42
-1.32
-2.39
-3.73
-5.42
-7.44
-9.65
-11.88
-14.00
-16.03
-18.12
-20.47
-23.15
-26.04
-28.67
-30.38
-30.45
-28.29
-23.63
-16.68
-8.15
0.87
9.17
15.85
20.59
23.68
25.75
27.40
28.86
29.87
29.97
28.87
26.62
23.68
20.54
17.46
14.29
10.63
6.08
0.58
-5.59
-11.91
-17.98
-23.60
-28.86
-33.95
-38.97
-43.84
-48.38
-52.44
-55.99
-59.03
-61.49
-63.03
-63.12
-61.21
-57.01
-50.65
-42.65
-33.70
-24.50
-15.53
-7.08
0.66
7.57
13.50
18.34
21.99
24.41
25.66
25.86
25.30
24.28
23.12
21.95
20.73
19.20
17.10
14.28
10.79
6.94
3.10
-0.49
-3.74
-6.80
-9.89
-13.20
-16.81
-20.57
-24.12
-26.97
-28.55
-28.38
-26.16
-21.88
-15.86
-8.68
-1.04
6.41
13.20
19.11
24.11
28.26
31.57
33.98
35.36
35.64
34.91
33.52
32.00
30.99
31.02
32.37
35.00
38.64
42.83
47.11
51.10
54.59
57.49
59.78
61.46
62.44
62.61
61.87
60.23
57.90
55.39
53.38
52.66
53.83
57.14
62.27
68.43
74.57
79.69
83.15
84.82
84.93
83.76
81.37
77.53
71.95
64.58
55.84
46.53
37.44
28.96
20.97
13.14
5.41
-1.74
-7.50
-11.38
-13.72
-15.61
-18.09
-21.56
-25.59
-29.29
-32.21
-34.62
-37.44
-41.53
-46.77
-51.91
-55.41
-56.54
-56.16
-56.43
-59.51
-66.54
-77.29
-90.67
-105.32
-120.66
-136.89
-154.47
-173.41
-192.44
-209.62
-223.32
-232.85
-237.98
-239.34
-238.15
-235.83
-233.92
-232.39
-230.87
-229.26
-227.66
-224.77
-219.25
-210.54
-199.20
-187.40
-175.27
-162.49
-148.88
-133.79
-113.93
-86.09
-48.93
-3.83
44.25
93.02
140.65
185.02
224.67
261.59
298.19
335.57
372.83
406.12
436.36
465.44
494.38
502.97
476.12
413.69
331.82
265.45
215.60
178.05
149.86
124.31
100.50
82.28
73.22
73.67
79.96
83.55
80.39
68.83
48.70
21.53
-8.02
-35.09
-56.68
-72.13
-84.58
-94.18
-100.22
-102.96
-103.98
-104.40
-105.53
-108.75
-114.51
-123.94
-134.61
-142.56
-144.85
-141.20
-132.36
-120.30
-107.23
-94.23
-83.26
-74.87
-68.83
-58.50
-41.56
-20.31
-0.57
8.50
9.23
4.59
-4.47
-15.11
-26.95
-40.86
-55.95
-70.76
-82.98
-89.44
-89.56
-84.91
-77.66
-70.50
-66.36
-66.13
-70.79
-80.61
-94.58
-106.23
-111.26
-108.21
-99.67
-97.09
-101.63
-111.91
-126.23
-138.82
-147.36
-151.72
-152.39
-150.24
-145.96
-138.57
-127.72
-113.12
-94.35
-72.44
-49.75
-28.55
-10.39
4.45
17.90
31.64
47.01
65.00
85.27
106.60
128.00
148.76
168.33
186.55
202.36
214.30
221.41
223.00
218.91
210.30
198.63
184.98
170.15
154.41
137.80
121.16
105.12
89.94
76.94
66.94
59.57
53.50
47.32
39.72
31.21
22.34
13.20
5.74
1.56
0.65
1.49
2.53
2.32
2.10
3.41
7.42
17.97
38.30
68.79
106.54
147.13
185.17
218.57
246.15
248.85
215.83
151.65
74.44
3.10
-43.79
-71.44
-85.87
-91.42
-90.71
-85.25
-74.62
-59.91
-43.98
-29.80
-20.25
-14.57
-11.52
-10.21
-7.95
-2.32
6.93
17.93
28.25
35.41
39.86
42.75
45.12
48.98
55.66
64.45
72.80
77.91
77.44
71.73
62.10
49.88
36.56
23.04
9.39
-4.59
-18.59
-31.99
-43.59
-52.99
-60.84
-68.10
-75.27
-82.05
-87.41
-90.15
-89.86
-86.98
-82.91
-79.24
-77.07
-76.57
-77.33
-78.81
-80.82
-83.53
-87.13
-91.41
-95.49
-98.04
-97.76
-93.98
-86.95
-77.83
-68.25
-59.84
-53.76
-50.53
-50.07
-51.89
-55.28
-59.51
-64.01
-68.43
-72.65
-76.64
-80.25
-83.17
-84.86
-84.84
-82.84
-78.97
-73.59
-67.06
-59.61
-51.34
-42.43
-33.35
-24.88
-17.83
-12.68
-9.23
-6.68
-3.94
-0.19
4.85
10.83
17.00
22.56
27.06
30.54
33.52
36.83
41.27
47.36
55.14
64.09
73.33
81.82
88.69
93.40
95.76
95.81
93.72
89.69
84.04
77.22
69.84
62.58
56.01
50.47
45.97
42.28
39.11
36.24
33.62
31.34
29.57
28.48
28.13
28.38
28.83
28.84
27.66
24.65
19.55
12.62
4.59
-3.49
-10.56
-15.80
-18.74
-19.29
-17.69
-14.48
-10.39
-6.25
-2.88
-0.86
-0.45
-1.55
-3.87
-7.06
-10.82
-14.97
-19.30
-23.55
-27.36
-30.39
-32.42
-33.51
-33.96
-34.14
-34.37
-34.78
-35.33
-35.84
-36.14
-36.11
-35.74
-35.04
-34.05
-32.85
-31.59
-30.45
-29.58
-28.98
-28.37
-27.25
-25.01
-21.18
-15.62
-8.58
-0.62
7.58
15.40
22.33
27.95
31.87
33.75
33.39
30.94
26.92
22.21
17.78
14.44
12.57
12.11
12.63
13.52
14.16
14.07
13.00
10.89
7.91
4.32
0.44
-3.57
-7.61
-11.71
-15.86
-19.85
-23.26
-25.52
-26.02
-24.34
-20.37
-14.38
-6.97
1.06
8.90
15.86
21.47
25.50
27.81
28.35
27.12
24.21
19.92
14.76
9.41
4.55
0.64
-2.18
-4.09
-5.42
-6.61
-7.95
-9.63
-11.72
-14.16
-16.85
-19.67
-22.51
-25.35
-28.31
-31.59
-35.40
-39.79
-44.46
-48.70
-51.49
-51.71
-48.54
-41.71
-31.65
-19.46
-6.59
5.40
15.25
22.20
26.26
28.16
29.13
30.49
33.09
36.94
41.25
44.80
46.56
46.14
43.91
40.66
37.17
33.83
30.63
27.40
24.08
20.90
18.16
16.08
14.59
13.28
11.62
9.13
5.49
0.62
-5.32
-11.99
-18.84
-25.24
-30.42
-33.68
-34.44
-32.41
-27.70
-20.82
-12.61
-4.03
4.05
11.05
16.77
21.24
24.55
26.68
27.51
26.91
24.95
21.97
18.51
15.08
11.92
9.02
6.20
3.37
0.60
-1.85
-3.77
-5.18
-6.43
-8.06
-10.55
-14.09
-18.45
-23.08
-27.36
-30.83
-33.38
-35.24
-36.85
-38.71
-41.17
-44.37
-48.12
-51.87
-54.84
-56.05
-54.62
-50.04
-42.40
-32.47
-21.48
-10.86
-1.84
4.84
8.95
10.76
10.74
9.42
7.23
4.55
1.72
-0.89
-2.89
-3.89
-3.64
-2.04
0.80
4.65
9.20
14.15
19.13
23.79
27.74
30.67
32.46
33.18
33.10
32.50
31.55
30.15
28.01
24.80
20.40
15.06
9.41
4.39
1.02
0.12
2.07
6.73
13.42
21.09
28.56
34.79
39.08
41.16
41.10
39.18
35.80
31.30
26.10
20.64
15.40
10.84
7.27
4.77
3.16
2.14
1.36
0.58
-0.22
-0.95
-1.44
-1.63
-1.59
-1.57
-1.94
-3.02
-4.99
-7.80
-11.18
-14.74
-18.04
-20.78
-22.90
-24.57
-26.19
-28.21
-30.92
-34.31
-37.94
-40.99
-42.51
-41.63
-37.88
-31.30
-22.48
-12.37
-2.06
7.46
15.42
21.36
25.12
26.81
26.72
25.30
23.00
20.30
17.59
15.14
13.18
11.81
11.08
10.93
11.18
11.58
11.87
11.89
11.63
11.21
10.73
10.24
9.62
8.68
7.24
5.23
2.70
-0.19
-3.24
-6.25
-9.08
-11.65
-13.95
-16.08
-18.21
-20.57
-23.32
-26.44
-29.70
-32.56
-34.24
-33.94
-31.07
-25.46
-17.48
-8.03
1.77
10.83
18.37
24.02
27.75
29.70
30.06
29.04
26.91
24.09
21.09
18.37
16.27
14.87
14.05
13.66
13.53
13.60
13.78
13.98
14.02
13.72
12.93
11.65
9.98
8.10
6.15
4.19
2.20
0.06
-2.29
-4.86
-7.55
-10.15
-12.43
-14.18
-15.34
-16.03
-16.57
-17.31
-18.61
-20.65
-23.39
-26.47
-29.27
-31.00
-30.89
-28.42
-23.51
-16.57
-8.46
-0.22
7.17
13.03
17.08
19.41
20.30
20.10
19.10
17.53
15.63
13.67
12.01
11.04
11.03
12.09
14.21
17.30
21.30
26.09
31.41
36.76
41.34
44.29
44.92
42.97
38.74
32.90
26.33
19.80
13.80
8.50
3.77
-0.71
-5.26
-10.17
-15.47
-20.90
-25.93
-29.86
-32.08
-32.15
-29.99
-25.87
-20.37
-14.30
-8.52
-3.78
-0.52
1.15
1.50
0.88
-0.33
-1.95
-3.90
-6.10
-8.33
-10.21
-11.25
-11.17
-9.93
-7.88
-5.58
-3.60
-2.30
-1.79
-1.91
-2.38
-2.92
-3.40
-3.88
-4.58
-5.75
-7.58
-10.07
-13.02
-16.07
-18.82
-20.99
-22.52
-23.57
-24.50
-25.67
-27.35
-29.56
-31.98
-33.94
-34.46
-32.37
-26.61
-16.63
-2.72
13.78
30.74
45.78
56.94
63.26
64.88
62.77
58.15
51.99
44.88
37.18
29.30
21.87
15.66
11.28
8.88
8.08
8.11
8.17
7.78
6.90
5.84
4.96
4.40
3.98
3.27
1.75
-0.85
-4.49
-8.82
-13.30
-17.49
-21.21
-24.55
-27.82
-31.37
-35.39
-39.87
-44.54
-48.96
-52.57
-54.84
-55.25
-53.49
-49.44
-43.28
-35.46
-26.66
-17.66
-9.26
-2.12
3.28
6.74
8.32
8.34
7.22
5.47
3.49
1.63
0.12
-0.88
-1.27
-1.04
-0.28
0.87
2.23
3.64
4.97
6.06
6.77
6.91
6.37
5.16
3.43
1.41
-0.65
-2.60
-4.45
-6.34
-8.47
-11.03
-14.12
-17.69
-21.45
-24.93
-27.45
-28.30
-26.90
-23.00
-16.82
-9.05
-0.60
7.56
14.67
20.30
24.32
26.83
27.99
27.93
26.81
24.84
22.31
19.65
17.29
15.54
14.52
14.16
14.22
14.46
14.73
14.98
15.22
15.40
15.37
14.81
13.43
11.11
7.97
4.42
0.96
-1.97
-4.20
-5.87
-7.34
-8.93
-10.87
-13.09
-15.42
-17.68
-19.76
-21.69
-23.40
-24.67
-25.02
-23.84
-20.60
-15.12
-7.70
0.90
9.64
17.48
23.64
27.73
29.71
29.81
28.42
25.93
22.72
19.14
15.51
12.12
9.22
6.97
5.44
4.60
4.40
4.82
5.82
7.37
9.32
11.27
12.64
12.84
11.49
8.65
4.81
0.72
-2.95
-5.91
-8.31
-10.64
-13.43
-16.96
-21.09
-25.27
-28.72
-30.60
-30.23
-27.30
-21.94
-14.72
-6.60
1.37
8.28
13.54
16.99
18.81
19.37
19.13
18.46
17.65
16.86
16.17
15.69
15.64
16.44
18.61
22.53
28.19
35.04
42.00
47.80
51.42
52.37
50.81
47.35
42.79
37.83
32.99
28.66
25.05
22.23
19.98
17.85
15.21
11.50
6.42
0.05
-7.23
-14.99
-22.89
-30.74
-38.37
-45.43
-51.34
-55.33
-56.77
-55.40
-51.55
-46.03
-39.93
-34.20
-29.45
-25.87
-23.38
-21.83
-21.10
-21.11
-21.68
-22.36
-22.50
-21.34
-18.38
-13.49
-6.96
0.72
9.03
17.59
25.99
33.68
39.88
43.77
44.72
42.60
37.82
31.20
23.59
15.66
7.77
0.05
-7.50
-14.90
-22.17
-29.40
-36.74
-44.43
-52.67
-61.59
-71.13
-81.08
-91.10
-100.82
-109.85
-117.69
-123.66
-126.79
-125.93
-120.07
-108.67
-91.95
-70.90
-47.04
-22.02
2.72
26.21
47.96
67.90
86.30
103.53
120.00
135.91
151.23
165.64
178.59
189.56
198.10
203.94
207.00
207.36
205.19
200.60
193.59
183.95
171.42
155.83
137.41
116.85
95.22
73.63
52.90
33.40
15.14
-1.99
-18.00
-32.71
-45.93
-57.64
-68.05
-77.50
-86.21
-94.09
-100.60
-105.02
-106.62
-105.04
-100.33
-93.03
-84.01
-74.26
-64.70
-56.02
-48.64
-42.62
-37.87
-34.17
-31.27
-29.01
-27.26
-25.94
-24.99
-24.26
-23.57
-22.64
-21.19
-19.00
-16.05
-12.48
-8.65
-5.10
-2.47
-1.50
-2.88
-7.07
-14.05
-23.08
-32.79
-41.51
-47.91
-51.50
-52.82
-53.14
-53.82
-55.78
-59.14
-63.33
-67.41
-70.45
-71.72
-70.76
-67.39
-61.74
-54.23
-45.58
-36.70
-28.46
-21.51
-16.11
-12.26
-9.71
-8.10
-7.13
-6.58
-6.33
-6.33
-6.56
-6.84
-6.92
-6.46
-5.13
-2.77
0.54
4.46
8.58
12.54
16.21
19.73
23.33
27.15
31.06
34.63
37.29
38.58
38.35
36.98
35.21
33.94
33.94
35.58
38.65
42.39
45.63
47.18
46.18
42.42
36.42
29.27
22.20
16.19
11.72
8.77
7.06
6.24
5.98
5.92
5.56
4.35
2.01
-1.04
-3.54
-3.59
0.66
10.06
23.87
39.78
54.66
65.69
71.32
71.73
68.47
63.62
58.83
54.76
50.96
46.21
39.14
28.70
14.38
-3.49
-23.56
-43.20
-58.70
-66.14
-62.81
-48.68
-26.84
-2.61
18.44
32.70
39.62
41.36
41.11
41.34
42.73
44.46
45.20
44.18
41.55
38.02
34.16
29.92
24.76
17.99
9.26
-1.06
-11.95
-22.11
-30.39
-36.28
-40.06
-42.64
-45.14
-48.37
-52.40
-56.65
-60.22
-62.36
-62.95
-62.49
-61.84
-61.83
-62.86
-64.77
-67.01
-68.92
-69.95
-69.80
-68.38
-65.64
-61.53
-55.99
-49.04
-40.90
-32.01
-22.92
-14.23
-6.41
0.20
5.39
9.05
11.11
11.62
10.80
9.00
6.68
4.27
2.12
0.47
-0.47
-0.50
0.55
2.71
5.75
9.13
12.17
14.25
15.08
14.72
13.54
11.94
10.25
8.59
6.93
5.15
3.22
1.28
-0.37
-1.38
-1.54
-0.73
0.95
3.20
5.58
7.64
9.05
9.56
9.05
7.28
4.25
0.08
-5.13
-11.30
-18.36
-26.11
-34.14
-41.93
-49.17
-55.27
-59.80
-62.85
-65.10
-67.64
-71.20
-75.97
-81.56
-87.54
-92.71
-95.96
-96.98
-96.48
-95.86
-96.10
-97.28
-98.42
-98.15
-93.81
-83.03
-64.93
-40.41
-12.03
17.61
46.29
74.75
100.04
119.22
131.85
140.74
151.51
166.15
183.76
201.69
216.97
223.17
217.42
200.11
173.90
142.23
107.73
72.30
37.06
2.89
-29.34
-57.42
-79.17
-93.64
-101.47
-104.36
-103.48
-98.90
-89.88
-76.09
-57.48
-35.29
-11.72
10.80
30.41
46.44
58.95
68.12
73.83
76.15
75.32
71.86
66.44
59.73
52.26
44.41
36.32
28.02
19.79
12.03
5.22
-0.20
-4.03
-6.38
-7.63
-8.42
-9.39
-10.89
-12.92
-15.14
-17.13
-18.57
-19.48
-20.16
-21.08
-22.58
-24.63
-26.77
-28.19
-28.03
-25.66
-20.84
-13.81
-5.21
4.08
13.15
21.18
27.47
31.54
33.15
32.36
29.53
25.27
20.32
15.45
11.25
8.07
5.91
4.51
3.38
2.03
0.23
-1.94
-4.04
-5.57
-6.18
-5.90
-5.19
-4.75
-5.37
-7.59
-11.70
-17.51
-24.51
-31.86
-38.65
-44.06
-47.68
-49.69
-50.73
-51.70
-53.31
-55.78
-58.67
-61.07
-61.87
-60.16
-55.48
-47.93
-38.11
-26.92
-15.37
-4.43
5.13
12.74
18.11
21.25
22.46
22.19
21.00
19.33
17.54
15.80
14.21
12.85
11.81
11.19
11.04
11.32
11.90
12.57
13.14
13.42
13.30
12.72
11.68
10.24
8.48
6.53
4.47
2.39
0.35
-1.65
-3.60
-5.52
-7.42
-9.34
-11.27
-13.27
-15.43
-17.88
-20.74
-23.96
-27.18
-29.78
-30.92
-29.81
-25.99
-19.52
-10.98
-1.31
8.44
17.31
24.63
29.97
33.18
34.31
33.62
31.50
28.43
24.88
21.22
17.77
14.78
12.51
11.19
10.96
11.81
13.51
15.71
18.05
20.23
22.07
23.49
24.40
24.77
24.63
24.13
23.53
23.13
23.16
23.72
24.66
25.68
26.27
25.88
23.99
20.30
14.85
8.03
0.46
-7.20
-14.39
-20.74
-25.94
-29.66
-31.53
-31.13
-28.23
-22.99
-16.04
-8.35
-1.11
4.65
8.24
9.44
8.50
5.91
2.26
-2.01
-6.61
-11.42
-16.26
-20.84
-24.76
-27.61
-29.13
-29.33
-28.50
-27.08
-25.51
-24.13
-23.12
-22.53
-22.26
-22.17
-22.06
-21.68
-20.77
-19.12
-16.64
-13.46
-10.03
-7.11
-5.64
-6.37
-9.46
-14.20
-19.03
-21.96
-21.22
-15.88
-6.14
6.82
21.26
35.51
48.26
58.75
66.68
72.00
74.82
75.33
73.79
70.55
66.08
60.98
55.90
51.46
48.03
45.67
44.07
42.68
40.99
38.64
35.58
31.91
27.83
23.40
18.61
13.42
7.91
2.32
-2.94
-7.50
-11.12
-13.82
-15.77
-17.32
-18.77
-20.46
-22.62
-25.45
-29.03
-33.30
-37.92
-42.27
-45.57
-46.97
-45.87
-42.03
-35.75
-27.75
-19.07
-10.73
-3.56
1.94
5.65
7.68
8.32
7.92
6.84
5.38
3.78
2.21
0.75
-0.57
-1.69
-2.56
-3.13
-3.36
-3.33
-3.12
-2.85
-2.58
-2.35
-2.27
-2.45
-3.05
-4.18
-5.81
-7.77
-9.80
-11.66
-13.24
-14.57
-15.77
-16.97
-18.28
-19.80
-21.64
-23.93
-26.73
-29.88
-32.88
-34.95
-35.16
-32.82
-27.70
-20.17
-11.15
-1.77
6.90
14.18
19.76
23.62
25.87
26.61
25.97
24.18
21.58
18.65
15.85
13.51
11.79
10.72
10.19
10.10
10.34
10.81
11.36
11.82
12.02
11.83
11.13
9.90
8.17
6.05
3.74
1.45
-0.62
-2.37
-3.86
-5.24
-6.75
-8.57
-10.79
-13.37
-16.22
-19.20
-22.20
-25.08
-27.60
-29.41
-29.99
-28.88
-25.75
-20.58
-13.72
-5.79
2.45
10.16
16.65
21.35
23.95
24.39
22.88
19.87
15.97
11.76
7.73
4.22
1.39
-0.67
-1.91
-2.30
-1.89
-0.83
0.58
1.94
2.83
2.95
2.15
0.52
-1.73
-4.34
-7.04
-9.64
-12.04
-14.21
-16.20
-18.19
-20.40
-23.06
-26.26
-29.78
-33.10
-35.39
-35.75
-33.50
-28.42
-20.87
-11.67
-1.93
7.25
14.98
20.73
24.27
25.69
25.30
23.52
20.83
17.67
14.42
11.33
8.56
6.23
4.45
3.31
2.89
3.17
4.03
5.16
6.22
6.84
6.80
6.04
4.66
2.88
0.91
-1.18
-3.42
-5.91
-8.69
-11.70
-14.68
-17.37
-19.53
-21.20
-22.61
-24.13
-26.12
-28.75
-31.92
-35.21
-37.97
-39.44
-38.96
-36.10
-30.80
-23.47
-14.85
-5.90
2.46
9.51
14.86
18.47
20.51
21.27
21.03
20.06
18.62
16.98
15.45
14.29
13.63
13.49
13.82
14.54
15.69
17.33
19.51
22.05
24.59
26.58
27.54
27.28
25.97
24.05
21.95
19.88
17.74
15.25
12.24
8.76
5.16
1.88
-0.80
-2.87
-4.69
-6.72
-9.38
-12.84
-16.99
-21.52
-25.94
-29.68
-32.10
-32.53
-30.39
-25.38
-17.60
-7.65
3.46
14.53
24.44
32.40
38.03
41.32
42.51
41.87
39.75
36.47
32.39
27.89
23.28
18.82
14.72
11.24
8.74
7.62
8.05
9.82
12.19
14.14
14.76
13.72
11.45
8.92
7.15
6.65
7.09
7.35
6.05
2.18
-4.39
-12.73
-21.22
-28.20
-32.72
-34.91
-36.00
-37.86
-42.46
-51.43
-65.79
-85.54
-109.15
-133.11
-152.22
-160.68
-154.05
-131.07
-94.40
-49.82
-4.14
37.02
70.49
95.34
111.62
119.04
116.63
103.51
80.26
49.81
17.17
-11.99
-33.33
-45.21
-49.06
-48.38
-47.01
-47.44
-49.84
-52.37
-52.23
-47.19
-36.60
-21.61
-4.55
12.14
26.87
39.36
50.36
60.94
71.69
82.32
91.79
98.84
102.77
103.79
102.91
101.52
100.67
100.76
101.47
102.15
102.23
101.53
100.32
98.99
97.77
96.41
94.31
90.69
84.97
77.05
67.39
56.87
46.53
37.20
29.37
23.03
17.86
13.40
9.28
5.36
1.74
-1.41
-3.98
-6.04
-7.89
-9.97
-12.70
-16.36
-21.00
-26.44
-32.30
-38.12
-43.46
-48.00
-51.60
-54.35
-56.49
-58.38
-60.36
-62.63
-65.04
-67.06
-67.87
-66.54
-62.46
-55.64
-46.88
-37.62
-29.50
-23.99
-21.94
-23.57
-28.45
-35.70
-44.10
-52.26
-58.85
-62.78
-63.46
-60.87
-55.51
-48.15
-39.66
-30.76
-22.08
-14.10
-7.18
-1.48
3.06
6.69
9.69
12.14
13.76
13.93
11.99
7.44
0.27
-9.05
-19.72
-30.81
-41.38
-50.58
-57.58
-61.61
-62.11
-58.85
-52.20
-43.07
-32.79
-22.71
-13.93
-7.07
-2.25
0.75
2.35
3.01
3.15
3.18
3.33
3.73
4.40
5.28
6.31
7.50
8.88
10.53
12.52
14.85
17.44
20.08
22.44
24.07
24.49
23.33
20.39
15.74
9.70
2.77
-4.47
-11.50
-17.88
-23.34
-27.67
-30.69
-32.16
-31.77
-29.24
-24.44
-17.61
-9.31
-0.38
8.28
15.95
22.14
26.67
29.53
30.83
30.77
29.60
27.64
25.25
22.78
20.48
18.48
16.81
15.43
14.26
13.19
12.10
10.87
9.42
7.78
6.08
4.48
3.05
1.78
0.49
-1.02
-2.86
-5.02
-7.37
-9.71
-11.96
-14.16
-16.44
-18.94
-21.69
-24.58
-27.36
-29.64
-30.94
-30.69
-28.41
-23.88
-17.27
-9.20
-0.62
7.45
14.17
19.05
21.97
23.08
22.71
21.22
19.00
16.38
13.64
10.93
8.35
5.96
3.86
2.26
1.40
1.43
2.41
4.18
6.50
9.09
11.74
14.32
16.69
18.68
20.09
20.71
20.47
19.46
17.99
16.49
15.40
15.05
15.56
16.77
18.25
19.39
19.43
17.63
13.44
6.72
-2.08
-11.92
-21.34
-28.79
-33.09
-33.76
-31.08
-25.92
-19.41
-12.60
-6.23
-0.76
3.56
6.59
8.30
8.76
8.25
7.15
5.93
4.97
4.52
4.71
5.60
7.11
9.06
11.06
12.54
12.91
11.73
9.02
5.27
1.37
-1.65
-2.96
-2.21
0.42
4.23
8.22
11.33
12.60
11.34
7.24
0.45
-8.45
-18.48
-28.50
-37.33
-43.99
-47.72
-48.13
-45.12
-38.95
-30.22
-19.88
-9.07
1.04
9.56
16.06
20.60
23.58
25.51
26.73
27.29
26.92
25.23
21.94
17.04
11.02
4.73
-0.75
-4.40
-5.55
-4.00
-0.10
5.40
11.50
17.12
21.27
23.27
22.78
19.91
15.15
9.22
2.88
-3.26
-8.88
-13.95
-18.65
-23.23
-27.87
-32.55
-37.00
-40.70
-42.98
-43.19
-40.92
-36.18
-29.41
-21.37
-12.97
-5.06
1.79
7.23
11.25
14.07
16.15
18.14
20.79
24.68
30.07
36.69
43.89
50.82
56.76
61.35
64.64
66.90
68.43
69.26
69.17
67.71
64.38
58.91
51.37
42.22
32.24
22.24
12.89
4.49
-3.00
-9.93
-16.68
-23.47
-30.26
-36.73
-42.36
-46.52
-48.65
-48.33
-45.39
-39.99
-32.56
-23.82
-14.63
-5.88
1.68
7.53
11.43
13.42
13.73
12.71
10.72
8.12
5.26
2.54
0.35
-1.00
-1.38
-0.90
0.14
1.28
2.14
2.52
2.40
1.84
0.97
-0.18
-1.65
-3.41
-5.39
-7.40
-9.26
-10.83
-12.16
-13.41
-14.82
-16.56
-18.71
-21.27
-24.23
-27.60
-31.33
-35.21
-38.73
-41.09
-41.41
-38.91
-33.27
-24.72
-14.04
-2.40
8.97
18.90
26.53
31.34
33.20
32.35
29.35
24.96
19.97
15.15
11.05
7.98
5.99
5.00
4.76
5.00
5.42
5.81
6.00
5.98
5.72
5.26
4.54
3.51
2.12
0.41
-1.45
-3.23
-4.72
-5.92
-7.00
-8.32
-10.28
-13.10
-16.69
-20.62
-24.21
-26.74
-27.60
-26.50
-23.49
-18.92
-13.30
-7.20
-1.13
4.46
9.19
12.72
14.78
15.24
14.17
11.92
9.01
6.04
3.50
1.68
0.59
0.11
0.11
0.56
1.56
3.20
5.43
7.95
10.30
12.04
12.87
12.84
12.21
11.39
10.65
10.00
9.24
8.01
6.04
3.24
-0.27
-4.21
-8.26
-12.05
-15.16
-17.08
-17.34
-15.57
-11.77
-6.34
-0.02
6.27
11.77
16.01
18.93
20.66
21.40
21.26
20.22
18.29
15.63
12.58
9.65
7.32
5.94
5.57
6.02
6.88
7.74
8.22
8.09
7.25
5.72
3.60
1.05
-1.75
-4.60
-7.33
-9.81
-11.99
-13.86
-15.47
-16.91
-18.28
-19.73
-21.39
-23.40
-25.80
-28.52
-31.28
-33.58
-34.76
-34.09
-30.97
-25.10
-16.60
-6.02
5.73
17.54
28.30
37.05
43.15
46.24
46.39
43.99
39.73
34.47
29.05
24.11
20.01
16.81
14.38
12.51
11.04
9.79
8.60
7.30
5.74
3.85
1.64
-0.78
-3.26
-5.73
-8.22
-10.79
-13.52
-16.40
-19.32
-22.10
-24.54
-26.54
-28.08
-29.31
-30.51
-31.98
-33.89
-36.16
-38.34
-39.70
-39.42
-36.85
-31.75
-24.38
-15.45
-5.94
3.14
11.01
17.21
21.56
24.11
25.03
24.49
22.72
20.08
17.02
14.04
11.62
10.01
9.19
8.93
8.92
8.95
8.99
9.13
9.42
9.80
10.06
9.97
9.42
8.41
7.09
5.59
3.98
2.22
0.29
-1.79
-3.92
-5.99
-7.92
-9.80
-11.82
-14.18
-17.00
-20.20
-23.43
-26.18
-27.82
-27.75
-25.54
-21.11
-14.73
-7.02
1.19
9.02
15.71
20.73
23.88
25.29
25.30
24.39
22.94
21.20
19.26
17.15
14.99
13.04
11.62
11.04
11.44
12.71
14.50
16.36
17.80
18.46
18.03
16.41
13.63
9.85
5.39
0.63
-4.12
-8.69
-13.10
-17.52
-22.14
-27.03
-32.05
-36.74
-40.43
-42.38
-41.90
-38.57
-32.40
-23.90
-13.99
-3.82
5.53
13.27
19.04
22.87
25.01
25.74
25.27
23.82
21.68
19.25
17.04
15.48
14.75
14.74
15.11
15.48
15.64
15.65
15.80
16.41
17.60
19.20
20.69
21.45
20.92
18.92
15.59
11.42
6.97
2.67
-1.31
-5.16
-9.28
-14.13
-20.09
-27.26
-35.37
-43.80
-51.61
-57.72
-61.11
-61.12
-57.55
-50.70
-41.25
-30.10
-18.16
-6.28
4.76
14.18
21.26
25.44
26.49
24.65
20.67
15.68
10.93
7.49
5.96
6.41
8.43
11.29
14.23
16.55
17.77
17.58
15.88
12.76
8.53
3.71
-1.11
-5.40
-8.93
-11.77
-14.22
-16.60
-19.08
-21.64
-24.13
-26.49
-28.85
-31.49
-34.62
-38.04
-40.97
-42.21
-40.59
-35.42
-26.97
-16.44
-5.61
3.72
10.25
13.46
13.55
11.20
7.23
2.38
-2.78
-7.80
-12.30
-15.90
-18.30
-19.32
-18.87
-16.82
-12.84
-6.36
3.30
16.50
32.88
51.08
68.98
84.21
94.83
99.93
99.69
95.14
87.64
78.46
68.53
58.35
48.12
37.88
27.58
17.20
6.79
-3.55
-13.70
-23.49
-32.49
-40.01
-45.09
-46.78
-44.58
-38.82
-30.76
-22.20
-14.84
-9.68
-6.72
-5.28
-4.48
-3.78
-3.14
-2.83
-3.04
-3.64
-4.16
-3.98
-2.68
-0.27
2.82
5.91
8.36
9.77
10.07
9.50
8.40
7.09
5.69
4.16
2.37
0.30
-1.87
-3.74
-4.85
-4.91
-3.99
-2.57
-1.41
-1.28
-2.75
-5.96
-10.64
-16.16
-21.75
-26.64
-30.22
-32.13
-32.29
-30.86
-28.15
-24.59
-20.58
-16.52
-12.75
-9.55
-7.13
-5.59
-4.81
-4.56
-4.50
-4.35
-4.00
-3.57
-3.33
-3.58
-4.47
-5.98
-7.96
-10.20
-12.55
-14.91
-17.23
-19.41
-21.29
-22.65
-23.21
-22.60
-20.41
-16.22
-9.80
-1.36
8.34
17.93
25.73
30.17
30.33
26.25
19.03
10.52
2.78
-2.54
-4.59
-3.41
0.27
5.48
11.26
16.92
21.98
26.13
29.10
30.70
30.77
29.19
25.92
21.08
15.03
8.42
2.15
-2.88
-6.02
-7.16
-6.71
-5.36
-3.88
-2.78
-2.25
-2.27
-2.72
-3.54
-4.80
-6.67
-9.29
-12.69
-16.74
-21.11
-25.36
-29.04
-31.83
-33.64
-34.58
-34.93
-35.00
-34.99
-34.96
-34.77
-34.13
-32.70
-30.14
-26.24
-20.99
-14.59
-7.42
0.02
7.25
13.83
19.49
24.04
27.41
29.51
30.31
29.83
28.23
25.83
23.13
20.67
18.94
18.24
18.65
20.00
21.90
23.85
25.32
25.85
25.12
23.08
19.91
15.99
11.75
7.55
3.59
-0.13
-3.69
-7.17
-10.51
-13.52
-15.98
-17.72
-18.72
-19.07
-18.91
-18.29
-17.19
-15.59
-13.55
-11.26
-9.01
-7.01
-5.36
-3.97
-2.68
-1.46
-0.45
0.07
-0.18
-1.32
-3.21
-5.48
-7.66
-9.33
-10.22
-10.21
-9.37
-7.89
-6.00
-3.98
-2.04
-0.33
1.10
2.26
3.24
4.09
4.82
5.38
5.63
5.36
4.32
2.28
-0.89
-5.13
-10.09
-15.23
-19.81
-23.08
-24.36
-23.19
-19.38
-13.05
-4.67
4.97
14.89
24.02
31.43
36.54
39.18
39.58
38.31
36.05
33.44
30.94
28.75
26.88
25.20
23.54
21.79
19.93
18.02
16.19
14.50
13.00
11.57
10.04
8.25
6.09
3.57
0.76
-2.18
-5.12
-7.95
-10.65
-13.24
-15.79
-18.38
-21.07
-23.84
-26.54
-28.80
-30.10
-29.82
-27.47
-22.89
-16.37
-8.61
-0.53
6.97
13.23
17.90
20.91
22.32
22.24
20.82
18.31
15.10
11.68
8.58
6.20
4.74
4.17
4.31
4.97
5.93
7.03
8.15
9.12
9.76
9.88
9.37
8.21
6.48
4.35
1.97
-0.54
-3.14
-5.82
-8.61
-11.44
-14.22
-16.81
-19.12
-21.15
-23.02
-24.95
-27.15
-29.75
-32.71
-35.69
-38.11
-39.22
-38.32
-35.01
-29.32
-21.81
-13.39
-5.09
2.23
8.08
12.34
15.18
16.87
17.62
17.54
16.76
15.42
13.79
12.23
11.10
10.66
10.98
11.99
13.48
15.22
16.95
18.47
19.60
20.19
20.16
19.50
18.34
16.90
15.42
14.13
13.18
12.57
12.15
11.59
10.55
8.68
5.84
2.08
-2.36
-7.18
-12.09
-16.91
-21.47
-25.48
-28.52
-30.05
-29.57
-26.80
-21.82
-15.10
-7.35
0.56
7.72
13.28
16.57
17.17
15.07
10.69
4.87
-1.33
-6.85
-10.91
-13.11
-13.49
-12.35
-10.23
-7.71
-5.41
-3.90
-3.58
-4.61
-6.76
-9.50
-12.13
-14.05
-14.89
-14.62
-13.40
-11.54
-9.33
-6.99
-4.71
-2.66
-0.94
0.36
1.27
1.85
2.26
2.75
3.64
5.32
8.06
11.90
16.52
21.26
25.37
28.24
29.57
29.40
27.96
25.49
22.15
18.03
13.31
8.32
3.55
-0.52
-3.52
-5.32
-6.02
-5.86
-5.12
-4.03
-2.74
-1.39
-0.12
0.90
1.51
1.57
1.03
-0.01
-1.40
-2.92
-4.41
-5.75
-6.93
-8.02
-9.13
-10.39
-11.98
-14.01
-16.48
-19.15
-21.54
-22.98
-22.79
-20.51
-16.05
-9.77
-2.39
5.28
12.47
18.67
23.65
27.35
29.79
31.00
30.98
29.78
27.54
24.54
21.11
17.56
14.04
10.52
6.84
2.82
-1.60
-6.34
-11.19
-15.87
-20.12
-23.74
-26.61
-28.73
-30.14
-30.94
-31.23
-31.12
-30.67
-29.80
-28.39
-26.23
-23.23
-19.52
-15.55
-11.98
-9.56
-8.75
-9.55
-11.37
-13.22
-13.98
-12.88
-9.69
-4.80
0.97
6.66
11.35
14.42
15.52
14.61
11.96
8.05
3.61
-0.56
-3.73
-5.40
-5.41
-3.88
-1.20
2.05
5.24
7.75
9.12
9.21
8.22
6.63
5.04
3.84
3.19
2.96
2.89
2.71
2.33
1.78
1.15
0.50
-0.15
-0.79
-1.32
-1.50
-1.01
0.42
2.94
6.49
10.81
15.47
19.93
23.62
26.05
26.92
26.22
24.16
21.16
17.64
13.92
10.13
6.32
2.58
-0.90
-3.86
-6.06
-7.39
-7.88
-7.66
-6.92
-5.79
-4.37
-2.76
-1.04
0.74
2.49
4.11
5.37
5.90
5.27
3.15
-0.58
-5.65
-11.46
-17.25
-22.25
-25.86
-27.74
-27.82
-26.25
-23.30
-19.39
-14.97
-10.55
-6.56
-3.30
-0.92
0.65
1.64
2.36
3.13
4.15
5.48
6.97
8.32
9.20
9.46
9.15
8.60
8.21
8.30
8.96
10.05
11.28
12.42
13.37
14.09
14.46
14.26
13.20
11.06
7.97
4.37
0.88
-1.92
-3.84
-5.10
-6.27
-7.96
-10.63
-14.37
-18.89
-23.60
-27.67
-30.27
-30.65
-28.41
-23.52
-16.41
-7.88
1.21
10.04
18.11
25.13
30.95
35.36
38.07
38.82
37.54
34.60
30.74
26.98
24.27
23.20
23.80
25.61
27.83
29.57
30.15
29.18
26.62
22.77
18.10
13.19
8.60
4.75
1.85
-0.19
-1.66
-2.99
-4.57
-6.58
-9.03
-11.78
-14.71
-17.78
-21.08
-24.68
-28.47
-32.14
-35.11
-36.70
-36.30
-33.55
-28.45
-21.46
-13.43
-5.46
1.30
6.00
8.19
7.89
5.50
1.61
-3.11
-8.02
-12.47
-15.91
-17.93
-18.40
-17.46
-15.54
-13.15
-10.74
-8.54
-6.63
-4.95
-3.50
-2.32
-1.54
-1.25
-1.47
-2.11
-3.02
-4.01
-4.91
-5.64
-6.25
-6.86
-7.66
-8.80
-10.33
-12.11
-13.77
-14.79
-14.59
-12.74
-9.08
-3.80
2.55
9.23
15.52
20.82
24.76
27.15
27.90
27.05
24.76
21.30
17.13
12.75
8.63
5.09
2.30
0.29
-0.97
-1.50
-1.24
-0.08
2.08
5.21
9.06
13.12
16.68
19.03
19.61
18.20
14.91
10.13
4.37
-1.88
-8.32
-14.72
-20.93
-26.76
-31.91
-35.89
-38.18
-38.28
-35.85
-30.90
-23.75
-14.97
-5.27
4.61
13.92
21.95
28.04
31.63
32.40
30.39
26.06
20.23
13.91
8.10
3.50
0.44
-1.05
-1.17
-0.11
1.99
5.07
8.96
13.30
17.48
20.75
22.35
21.71
18.63
13.31
6.37
-1.22
-8.37
-14.10
-17.81
-19.41
-19.27
-18.14
-16.78
-15.79
-15.41
-15.54
-15.84
-15.87
-15.23
-13.66
-11.04
-7.48
-3.27
1.22
5.55
9.25
11.88
13.02
12.35
9.82
5.69
0.67
-4.32
-8.34
-10.79
-11.59
-11.09
-9.88
-8.45
-7.04
-5.60
-4.00
-2.22
-0.41
1.17
2.33
3.02
3.41
3.69
4.00
4.36
4.61
4.60
4.26
3.66
2.95
2.25
1.55
0.66
-0.71
-2.81
-5.58
-8.65
-11.37
-13.05
-13.22
-11.76
-8.88
-5.00
-0.58
4.00
8.45
12.43
15.60
17.60
18.18
17.32
15.23
12.36
9.23
6.30
3.91
2.22
1.23
0.86
1.01
1.55
2.32
3.11
3.62
3.56
2.68
0.90
-1.65
-4.70
-7.93
-11.06
-13.92
-16.45
-18.62
-20.42
-21.88
-23.10
-24.28
-25.66
-27.40
-29.46
-31.50
-32.94
-33.11
-31.43
-27.64
-21.93
-14.88
-7.37
-0.32
5.56
9.94
12.87
14.69
15.84
16.75
17.71
18.91
20.46
22.45
24.92
27.83
30.94
33.89
36.25
37.72
38.19
37.70
36.37
34.32
31.59
28.17
24.15
19.70
15.10
10.70
6.78
3.51
0.91
-1.16
-2.94
-4.75
-6.96
-9.86
-13.61
-18.10
-22.90
-27.31
-30.50
-31.70
-30.41
-26.59
-20.69
-13.53
-6.18
0.44
5.69
9.33
11.49
12.46
12.55
11.94
10.75
9.08
7.15
5.28
3.78
2.89
2.64
2.89
3.49
4.33
5.43
6.83
8.49
10.16
11.49
12.08
11.74
10.50
8.70
6.75
5.01
3.68
2.69
1.83
0.78
-0.72
-2.85
-5.59
-8.78
-12.06
-14.93
-16.78
-17.07
-15.48
-12.00
-7.07
-1.40
4.21
9.03
12.60
14.71
15.42
14.85
13.19
10.67
7.58
4.28
1.15
-1.46
-3.37
-4.56
-5.17
-5.42
-5.50
-5.54
-5.56
-5.59
-5.66
-5.85
-6.23
-6.84
-7.67
-8.63
-9.67
-10.77
-11.98
-13.32
-14.79
-16.25
-17.54
-18.50
-19.18
-19.75
-20.56
-21.93
-23.98
-26.56
-29.13
-30.96
-31.28
-29.51
-25.46
-19.35
-11.79
-3.56
4.52
11.75
17.65
21.91
24.45
25.33
24.76
23.11
20.78
18.21
15.74
13.60
11.91
10.66
9.82
9.33
9.07
8.89
8.60
8.03
7.03
5.55
3.65
1.41
-1.02
-3.52
-5.96
-8.24
-10.33
-12.21
-13.96
-15.66
-17.45
-19.43
-21.65
-24.03
-26.30
-28.02
-28.62
-27.53
-24.42
-19.27
-12.43
-4.58
3.49
11.00
17.38
22.29
25.61
27.38
27.71
26.71
24.59
21.62
18.23
14.94
12.31
10.71
10.29
10.87
12.05
13.38
14.48
15.16
15.37
15.13
14.49
13.44
11.99
10.11
7.82
5.21
2.37
-0.56
-3.41
-6.06
-8.46
-10.64
-12.70
-14.79
-17.06
-19.62
-22.43
-25.33
-27.97
-29.83
-30.34
-28.98
-25.49
-19.97
-12.92
-5.14
2.47
9.13
14.38
18.05
20.24
21.14
20.96
19.85
17.97
15.57
12.99
10.65
8.90
7.94
7.75
8.16
8.92
9.77
10.51
11.01
11.19
11.00
10.48
9.64
8.51
7.04
5.14
2.76
-0.09
-3.25
-6.43
-9.37
-11.92
-14.09
-16.03
-17.94
-19.97
-22.23
-24.74
-27.44
-30.10
-32.29
-33.39
-32.75
-29.91
-24.82
-17.91
-10.02
-2.09
5.09
11.03
15.55
18.69
20.51
21.09
20.51
18.96
16.74
14.26
11.92
10.02
8.72
8.00
7.79
8.00
8.60
9.49
10.53
11.50
12.10
12.09
11.42
10.20
8.64
6.94
5.20
3.42
1.55
-0.42
-2.41
-4.31
-6.09
-7.82
-9.68
-11.85
-14.39
-17.16
-19.91
-22.30
-23.96
-24.51
-23.61
-21.03
-16.77
-11.12
-4.60
2.08
8.26
13.46
17.38
19.92
21.06
20.84
19.44
17.19
14.54
11.94
9.74
8.11
7.08
6.59
6.61
7.11
7.99
9.07
10.08
10.77
10.96
10.62
9.80
8.58
7.04
5.22
3.17
0.96
-1.30
-3.55
-5.77
-8.04
-10.48
-13.23
-16.31
-19.58
-22.66
-24.99
-25.93
-24.95
-21.81
-16.70
-10.19
-3.15
3.53
9.16
13.34
16.02
17.39
17.71
17.17
15.83
13.69
10.76
7.20
3.38
-0.24
-3.19
-5.22
-6.32
-6.71
-6.63
-6.26
-5.61
-4.62
-3.31
-1.84
-0.55
0.20
0.15
-0.77
-2.46
-4.74
-7.50
-10.66
-14.21
-18.12
-22.34
-26.83
-31.60
-36.79
-42.55
-48.95
-55.83
-62.71
-68.83
-73.29
-75.39
-74.77
-71.55
-66.24
-59.54
-52.06
-44.18
-36.04
-27.68
-19.12
-10.52
-2.06
6.18
14.36
22.90
32.32
43.04
55.10
68.13
81.40
93.94
104.79
113.10
118.25
119.96
118.24
113.45
106.19
97.11
86.77
75.53
63.62
51.27
38.86
26.95
16.21
7.13
-0.12
-5.77
-10.31
-14.31
-18.23
-22.31
-26.57
-30.82
-34.69
-37.60
-38.90
-37.96
-34.43
-28.45
-20.67
-12.08
-3.71
3.69
9.75
14.42
17.80
19.95
20.88
20.63
19.37
17.50
15.50
13.85
12.83
12.50
12.74
13.32
14.08
14.88
15.65
16.33
16.80
16.90
16.50
15.53
14.01
12.04
9.77
7.36
4.96
2.71
0.79
-0.70
-1.69
-2.32
-2.89
-3.79
-5.43
-8.04
-11.62
-15.95
-20.59
-24.99
-28.53
-30.66
-30.94
-29.23
-25.66
-20.71
-15.03
-9.27
-3.98
0.47
3.85
6.05
7.07
7.03
6.18
4.89
3.44
1.99
0.51
-1.21
-3.37
-6.09
-9.35
-13.01
-16.86
-20.60
-23.93
-26.55
-28.23
-28.85
-28.48
-27.28
-25.51
-23.45
-21.35
-19.49
-18.22
-17.90
-18.91
-21.40
-25.20
-29.79
-34.31
-37.88
-39.75
-39.55
-37.29
-33.25
-27.86
-21.54
-14.77
-8.01
-1.84
3.16
6.50
7.84
7.03
4.15
-0.50
-6.36
-12.62
-18.26
-22.30
-24.02
-23.15
-19.92
-14.95
-9.01
-2.80
3.16
8.53
13.06
16.47
18.52
18.99
17.90
15.51
12.35
8.97
5.81
3.07
0.66
-1.67
-4.22
-7.29
-11.12
-15.84
-21.32
-27.10
-32.38
-36.13
-37.39
-35.50
-30.39
-22.53
-12.83
-2.35
7.83
16.90
24.26
29.68
33.21
35.14
35.95
36.11
36.08
36.19
36.53
37.00
37.31
37.07
35.99
33.99
31.25
28.11
24.92
21.91
19.15
16.60
14.27
12.17
10.33
8.68
7.06
5.19
2.80
-0.29
-4.14
-8.59
-13.38
-18.14
-22.55
-26.41
-29.71
-32.60
-35.26
-37.70
-39.65
-40.54
-39.70
-36.60
-31.10
-23.48
-14.34
-4.41
5.68
15.41
24.41
32.28
38.60
42.94
45.08
45.05
43.23
40.18
36.48
32.59
28.73
24.98
21.35
17.91
14.74
11.88
9.30
6.92
4.67
2.54
0.56
-1.28
-3.08
-5.04
-7.46
-10.62
-14.61
-19.30
-24.36
-29.32
-33.77
-37.48
-40.45
-42.81
-44.72
-46.13
-46.79
-46.19
-43.71
-38.85
-31.39
-21.56
-10.02
2.26
14.17
24.67
32.98
38.55
41.16
40.84
37.88
32.85
26.53
19.80
13.50
8.25
4.42
2.06
1.07
1.21
2.19
3.68
5.35
6.88
8.09
8.92
9.39
9.55
9.43
9.02
8.29
7.23
5.91
4.40
2.80
1.17
-0.51
-2.31
-4.39
-6.87
-9.79
-13.03
-16.19
-18.69
-19.86
-19.16
-16.33
-11.55
-5.43
1.19
7.43
12.62
16.46
18.96
20.41
21.07
21.17
20.83
20.16
19.31
18.52
17.95
17.69
17.60
17.39
16.79
15.64
14.04
12.22
10.47
9.09
8.35
8.44
9.46
11.35
13.81
16.21
17.73
17.54
15.08
10.35
3.92
-3.24
-10.01
-15.57
-19.51
-21.90
-23.18
-23.92
-24.55
-25.34
-26.25
-27.09
-27.56
-27.34
-26.18
-23.87
-20.41
-15.93
-10.73
-5.16
0.44
5.85
10.94
15.67
20.02
23.90
27.20
29.72
31.24
31.57
30.59
28.36
25.12
21.29
17.34
13.69
10.53
7.89
5.64
3.68
1.95
0.44
-0.87
-2.09
-3.37
-4.86
-6.63
-8.62
-10.65
-12.59
-14.38
-16.07
-17.86
-19.93
-22.43
-25.39
-28.70
-32.13
-35.38
-38.04
-39.68
-39.84
-38.16
-34.52
-29.06
-22.26
-14.85
-7.59
-1.17
3.95
7.58
9.74
10.55
10.17
8.75
6.47
3.53
0.27
-2.90
-5.52
-7.14
-7.41
-6.15
-3.40
0.60
5.43
10.56
15.45
19.67
22.94
25.11
26.19
26.28
25.56
24.24
22.56
20.66
18.65
16.57
14.39
12.11
9.73
7.24
4.60
1.74
-1.38
-4.75
-8.19
-11.40
-13.96
-15.44
-15.50
-13.94
-10.80
-6.34
-1.06
4.40
9.39
13.40
16.12
17.49
17.61
16.72
15.06
12.91
10.57
8.38
6.65
5.58
5.19
5.25
5.43
5.44
5.20
4.81
4.50
4.37
4.36
4.21
3.59
2.31
0.40
-1.89
-4.27
-6.45
-8.31
-9.81
-11.05
-12.19
-13.41
-14.94
-16.95
-19.45
-22.23
-24.78
-26.46
-26.65
-24.92
-21.22
-15.85
-9.38
-2.54
3.97
9.52
13.69
16.25
17.19
16.74
15.28
13.27
11.13
9.17
7.55
6.32
5.45
4.95
4.80
5.03
5.59
6.42
7.36
8.22
8.78
8.91
8.49
7.53
6.14
4.46
2.62
0.75
-1.12
-3.03
-5.06
-7.24
-9.56
-11.95
-14.27
-16.46
-18.50
-20.44
-22.42
-24.55
-26.94
-29.55
-32.24
-34.60
-36.02
-35.80
-33.37
-28.53
-21.62
-13.47
-5.16
2.35
8.46
13.04
16.21
18.20
19.10
18.92
17.70
15.64
13.15
10.77
8.97
7.98
7.79
8.16
8.85
9.65
10.46
11.26
11.96
12.43
12.46
11.93
10.80
9.19
7.32
5.35
3.36
1.34
-0.75
-2.94
-5.19
-7.40
-9.54
-11.62
-13.75
-16.03
-18.54
-21.32
-24.35
-27.55
-30.73
-33.58
-35.57
-36.13
-34.72
-31.05
-25.23
-17.77
-9.46
-1.18
6.28
12.42
16.98
20.00
21.65
22.16
21.75
20.64
19.07
17.30
15.64
14.36
13.66
13.57
13.96
14.65
15.42
16.13
16.67
16.98
17.01
16.70
16.04
15.07
13.83
12.39
10.76
8.87
6.68
4.17
1.43
-1.38
-4.07
-6.58
-8.92
-11.22
-13.62
-16.26
-19.13
-22.12
-24.98
-27.28
-28.46
-28.00
-25.53
-21.03
-14.86
-7.74
-0.50
6.13
11.68
15.94
18.88
20.52
20.83
19.87
17.78
14.94
11.91
9.27
7.46
6.64
6.65
7.19
7.93
8.63
9.25
9.83
10.38
10.78
10.84
10.30
9.01
6.97
4.38
1.52
-1.30
-3.90
-6.28
-8.56
-10.98
-13.72
-16.91
-20.48
-24.25
-27.83
-30.71
-32.31
-32.11
-29.78
-25.34
-19.18
-12.00
-4.63
2.19
7.96
12.45
15.62
17.57
18.38
18.19
17.14
15.50
13.59
11.82
10.53
9.97
10.18
11.06
12.41
13.94
15.46
16.80
17.87
18.63
19.01
18.98
18.50
17.58
16.22
14.48
12.42
10.13
7.73
5.30
2.93
0.60
-1.76
-4.26
-7.02
-10.09
-13.50
-17.18
-21.01
-24.76
-28.03
-30.28
-30.94
-29.56
-26.01
-20.53
-13.71
-6.33
0.83
7.10
12.04
15.40
17.19
17.56
16.78
15.15
13.02
10.68
8.42
6.53
5.23
4.70
4.97
5.91
7.24
8.60
9.65
10.14
10.04
9.42
8.47
7.38
6.23
4.99
3.56
1.78
-0.44
-3.09
-6.00
-8.97
-11.80
-14.39
-16.73
-18.93
-21.13
-23.48
-26.00
-28.62
-31.08
-32.96
-33.74
-32.87
-29.95
-24.84
-17.81
-9.41
-0.42
8.37
16.34
23.01
28.09
31.43
32.98
32.88
31.44
29.09
26.28
23.40
20.71
18.37
16.48
15.14
14.37
14.12
14.16
14.24
14.12
13.69
12.99
12.08
11.00
9.64
7.85
5.53
2.72
-0.36
-3.40
-6.15
-8.50
-10.52
-12.40
-14.37
-16.57
-19.04
-21.63
-24.04
-25.79
-26.34
-25.22
-22.14
-17.19
-10.81
-3.73
3.25
9.46
14.48
18.16
20.52
21.64
21.57
20.39
18.24
15.46
12.50
9.86
7.91
6.84
6.58
6.95
7.72
8.67
9.65
10.49
11.07
11.33
11.26
10.90
10.25
9.24
7.74
5.66
3.02
-0.01
-3.11
-5.99
-8.49
-10.60
-12.44
-14.21
-16.08
-18.20
-20.65
-23.43
-26.32
-28.92
-30.63
-30.82
-29.09
-25.34
-19.90
-13.41
-6.62
-0.26
5.11
9.08
11.43
12.10
11.18
8.94
5.82
2.33
-0.98
-3.67
-5.40
-6.05
-5.68
-4.50
-2.84
-1.01
0.72
2.19
3.38
4.32
5.09
5.71
6.18
6.45
6.44
6.05
5.22
3.89
2.08
-0.10
-2.50
-4.93
-7.26
-9.45
-11.53
-13.60
-15.80
-18.26
-21.04
-24.05
-27.04
-29.49
-30.77
-30.28
-27.62
-22.79
-16.25
-8.74
-1.17
5.67
11.24
15.32
17.93
19.24
19.45
18.79
17.44
15.57
13.40
11.15
9.07
7.41
6.31
5.82
5.87
6.27
6.82
7.36
7.79
8.08
8.23
8.23
8.03
7.56
6.80
5.74
4.50
3.15
1.81
0.50
-0.84
-2.28
-3.88
-5.67
-7.60
-9.66
-11.82
-14.15
-16.76
-19.70
-22.87
-25.97
-28.50
-29.85
-29.50
-27.16
-22.91
-17.17
-10.61
-3.95
2.18
7.34
11.28
13.87
15.12
15.13
14.13
12.45
10.49
8.61
7.08
6.05
5.56
5.57
6.01
6.79
7.78
8.72
9.35
9.40
8.67
7.16
5.07
2.73
0.52
-1.32
-2.69
-3.68
-4.45
-5.13
-5.77
-6.33
-6.80
-7.30
-8.04
-9.27
-11.08
-13.30
-15.48
-16.99
-17.17
-15.55
-11.96
-6.56
0.17
7.54
14.76
21.02
25.66
28.18
28.36
26.23
22.15
16.72
10.79
5.23
0.81
-1.97
-3.03
-2.56
-1.03
1.07
3.25
5.10
6.38
6.93
6.79
6.14
5.27
4.45
3.80
3.23
2.46
1.23
-0.62
-3.04
-5.80
-8.64
-11.30
-13.69
-15.82
-17.84
-19.94
-22.32
-25.10
-28.21
-31.32
-33.85
-35.10
-34.42
-31.46
-26.26
-19.25
-11.12
-2.67
5.34
12.29
17.71
21.35
23.22
23.51
22.59
20.89
18.79
16.62
14.61
12.91
11.66
10.95
10.77
11.04
11.56
12.09
12.44
12.50
12.21
11.57
10.57
9.16
7.30
4.98
2.21
-0.89
-4.21
-7.61
-10.95
-14.09
-16.82
-18.91
-20.17
-20.55
-20.23
-19.62
-19.22
-19.39
-20.13
-21.06
-21.50
-20.78
-18.47
-14.58
-9.50
-3.81
1.92
7.24
11.86
15.55
18.13
19.55
19.91
19.55
18.86
18.21
17.81
17.74
18.09
18.98
20.61
23.06
26.14
29.36
32.03
33.56
33.69
32.52
30.40
27.79
25.00
22.19
19.36
16.48
13.52
10.41
7.06
3.32
-0.98
-5.86
-11.20
-16.71
-21.96
-26.55
-30.15
-32.54
-33.61
-33.30
-31.60
-28.55
-24.29
-19.09
-13.31
-7.38
-1.66
3.55
8.04
11.66
14.28
15.76
16.06
15.19
13.36
10.92
8.25
5.75
3.65
2.04
0.86
0.00
-0.61
-1.00
-1.19
-1.24
-1.31
-1.61
-2.31
-3.47
-4.98
-6.65
-8.29
-9.74
-10.93
-11.87
-12.60
-13.23
-13.88
-14.73
-15.91
-17.43
-19.15
-20.71
-21.63
-21.42
-19.71
-16.39
-11.69
-6.14
-0.46
4.60
8.51
11.07
12.37
12.73
12.39
11.48
9.98
7.88
5.29
2.57
0.20
-1.42
-2.08
-1.91
-1.22
-0.38
0.31
0.71
0.78
0.52
-0.08
-0.97
-2.08
-3.27
-4.43
-5.53
-6.70
-8.17
-10.14
-12.70
-15.75
-19.07
-22.33
-25.24
-27.50
-28.80
-28.87
-27.47
-24.53
-20.26
-15.18
-10.06
-5.74
-2.88
-1.82
-2.45
-4.38
-7.10
-10.13
-13.08
-15.65
-17.49
-18.20
-17.39
-14.74
-10.18
-3.94
3.53
11.69
20.02
28.13
35.80
42.87
49.25
54.85
59.57
63.35
66.21
68.23
69.51
70.03
69.54
67.61
63.85
58.14
50.87
42.87
35.25
29.17
25.53
24.87
27.26
32.23
38.73
45.28
50.26
52.41
51.25
47.17
41.16
34.36
27.55
20.99
14.57
8.16
1.80
-4.24
-9.62
-14.17
-17.96
-21.22
-24.21
-27.03
-29.62
-31.80
-33.41
-34.45
-35.14
-35.86
-37.02
-38.85
-41.26
-43.83
-45.87
-46.77
-46.21
-44.30
-41.57
-38.71
-36.30
-34.59
-33.47
-32.51
-31.26
-29.35
-26.63
-23.14
-19.04
-14.58
-9.96
-5.40
-1.10
2.83
6.35
9.57
12.60
15.59
18.56
21.40
23.95
26.01
27.46
28.22
28.24
27.48
25.99
23.89
21.36
18.54
15.47
12.04
8.11
3.63
-1.30
-6.46
-11.62
-16.67
-21.61
-26.48
-31.24
-35.77
-39.98
-44.00
-48.12
-52.66
-57.62
-62.48
-66.31
-67.99
-66.70
-62.22
-54.91
-45.65
-35.41
-25.11
-15.42
-6.85
0.26
5.69
9.40
11.51
12.31
12.18
11.47
10.49
9.49
8.69
8.27
8.35
8.87
9.64
10.33
10.56
10.06
8.72
6.60
3.89
0.84
-2.29
-5.25
-7.85
-9.94
-11.48
-12.53
-13.31
-14.11
-15.22
-16.76
-18.59
-20.22
-20.90
-19.86
-16.58
-11.00
-3.61
4.74
13.10
20.75
27.19
32.22
35.73
37.63
37.90
36.65
34.18
31.00
27.67
24.64
22.11
20.10
18.47
17.06
15.79
14.64
13.65
12.89
12.35
12.01
11.71
11.19
10.16
8.38
5.81
2.63
-0.80
-4.09
-6.98
-9.44
-11.61
-13.71
-15.91
-18.33
-20.98
-23.82
-26.71
-29.33
-31.12
-31.41
-29.58
-25.34
-18.86
-10.86
-2.30
5.78
12.57
17.65
20.96
22.71
23.19
22.71
21.45
19.56
17.21
14.67
12.29
10.49
9.54
9.51
10.17
11.12
11.94
12.35
12.28
11.80
11.08
10.19
9.13
7.80
6.08
3.90
1.27
-1.69
-4.76
-7.68
-10.26
-12.40
-14.14
-15.63
-17.06
-18.57
-20.18
-21.75
-23.00
-23.49
-22.62
-19.68
-14.00
-5.26
6.25
19.46
32.71
44.16
52.32
56.49
56.84
54.19
49.62
44.03
38.04
32.02
26.31
21.33
17.51
15.10
14.03
13.80
13.68
13.02
11.48
9.12
6.29
3.34
0.43
-2.50
-5.70
-9.28
-13.20
-17.15
-20.71
-23.54
-25.47
-26.56
-27.03
-27.24
-27.53
-28.20
-29.43
-31.24
-33.45
-35.68
-37.35
-37.75
-36.29
-32.63
-26.86
-19.51
-11.41
-3.41
3.83
9.88
14.60
17.90
19.78
20.26
19.50
17.77
15.48
13.08
10.93
9.28
8.21
7.69
7.62
7.82
8.13
8.41
8.58
8.63
8.54
8.24
7.59
6.43
4.69
2.43
-0.14
-2.79
-5.32
-7.68
-9.98
-12.37
-15.02
-17.89
-20.78
-23.25
-24.78
-24.88
-23.21
-19.69
-14.53
-8.23
-1.45
5.10
10.80
15.25
18.25
19.78
19.97
19.04
17.26
14.98
12.56
10.37
8.71
7.73
7.40
7.58
8.06
8.64
9.18
9.63
9.95
10.08
9.95
9.42
8.35
6.64
4.31
1.48
-1.62
-4.74
-7.63
-10.15
-12.26
-14.10
-15.88
-17.84
-20.18
-22.91
-25.85
-28.59
-30.55
-31.18
-30.04
-26.93
-22.01
-15.66
-8.51
-1.20
5.65
11.61
16.39
19.87
22.00
22.75
22.18
20.41
17.71
14.51
11.40
8.95
7.57
7.39
8.17
9.47
10.77
11.68
12.03
11.85
11.28
10.44
9.41
8.19
6.79
5.19
3.38
1.30
-1.03
-3.59
-6.24
-8.83
-11.22
-13.40
-15.49
-17.70
-20.19
-23.00
-25.92
-28.50
-30.11
-30.13
-28.08
-23.87
-17.76
-10.41
-2.62
4.79
11.19
16.15
19.46
21.09
21.11
19.72
17.25
14.17
10.96
8.06
5.82
4.41
3.90
4.19
5.11
6.39
7.70
8.75
9.36
9.48
9.14
8.47
7.51
6.28
4.72
2.83
0.63
-1.71
-4.02
-6.14
-8.01
-9.65
-11.22
-12.90
-14.88
-17.25
-19.96
-22.77
-25.20
-26.69
-26.68
-24.81
-21.02
-15.56
-8.96
-1.92
4.89
10.86
15.57
18.76
20.34
20.38
19.09
16.81
13.99
11.06
8.39
6.20
4.53
3.35
2.62
2.36
2.61
3.36
4.43
5.54
6.33
6.58
6.21
5.30
3.97
2.28
0.29
-2.00
-4.49
-6.99
-9.34
-11.44
-13.39
-15.44
-17.82
-20.62
-23.62
-26.24
-27.70
-27.22
-24.31
-18.97
-11.74
-3.52
4.66
11.98
17.94
22.38
25.31
26.77
26.80
25.49
23.08
19.96
16.63
13.60
11.20
9.56
8.61
8.16
7.98
7.90
7.81
7.70
7.60
7.51
7.38
7.03
6.20
4.64
2.28
-0.80
-4.29
-7.84
-11.15
-14.05
-16.57
-18.85
-21.09
-23.45
-26.03
-28.77
-31.50
-33.84
-35.20
-34.92
-32.38
-27.18
-19.32
-9.22
2.36
14.42
25.87
35.64
42.85
46.96
47.80
45.72
41.38
35.64
29.33
23.07
17.29
12.31
8.38
5.76
4.59
4.80
6.11
8.05
10.12
11.88
13.08
13.65
13.65
13.23
12.48
11.40
9.86
7.68
4.71
0.97
-3.37
-8.02
-12.72
-17.35
-21.95
-26.68
-31.65
-36.85
-42.06
-46.88
-50.77
-53.09
-53.24
-50.76
-45.54
-37.90
-28.57
-18.58
-8.97
-0.56
6.22
11.27
14.73
16.78
17.55
17.16
15.76
13.67
11.37
9.40
8.16
7.84
8.29
9.17
10.12
10.88
11.38
11.64
11.76
11.73
11.48
10.93
10.00
8.71
7.14
5.38
3.48
1.42
-0.76
-3.03
-5.23
-7.20
-8.80
-10.04
-11.06
-12.14
-13.52
-15.34
-17.50
-19.63
-21.15
-21.30
-19.33
-14.72
-7.39
2.09
12.58
22.62
30.82
36.28
38.82
38.86
37.12
34.27
30.73
26.66
22.19
17.63
13.49
10.33
8.56
8.20
8.84
9.86
10.64
10.75
10.07
8.60
6.40
3.49
-0.16
-4.46
-9.20
-13.97
-18.35
-21.97
-24.68
-26.54
-27.75
-28.55
-29.14
-29.66
-30.18
-30.70
-31.08
-31.07
-30.24
-28.13
-24.37
-18.86
-11.83
-3.87
4.26
11.79
18.11
22.84
25.81
27.04
26.70
25.08
22.54
19.48
16.29
13.31
10.81
8.97
7.90
7.60
7.91
8.58
9.30
9.81
9.98
9.79
9.26
8.38
7.06
5.22
2.86
0.13
-2.69
-5.34
-7.68
-9.82
-12.00
-14.55
-17.63
-21.14
-24.70
-27.67
-29.36
-29.18
-26.81
-22.30
-16.06
-8.77
-1.24
5.76
11.63
16.02
18.82
20.11
20.05
18.88
16.86
14.27
11.43
8.68
6.39
4.82
4.13
4.29
5.07
6.11
7.09
7.77
8.04
7.95
7.57
6.95
6.02
4.68
2.78
0.31
-2.59
-5.64
-8.55
-11.07
-13.18
-15.04
-16.93
-19.17
-21.94
-25.27
-28.96
-32.56
-35.48
-36.96
-36.34
-33.16
-27.44
-19.72
-10.92
-2.12
5.78
12.22
17.00
20.21
21.98
22.43
21.63
19.74
17.02
13.91
10.92
8.53
7.05
6.56
6.94
7.93
9.23
10.55
11.70
12.53
12.92
12.81
12.18
11.04
9.44
7.44
5.07
2.36
-0.60
-3.65
-6.56
-9.13
-11.31
-13.20
-15.07
-17.18
-19.66
-22.49
-25.42
-28.12
-30.16
-31.09
-30.49
-28.00
-23.53
-17.29
-9.87
-2.08
5.22
11.40
16.12
19.33
21.11
21.51
20.57
18.39
15.25
11.64
8.20
5.52
3.96
3.54
3.96
4.77
5.51
5.90
5.83
5.38
4.71
3.96
3.15
2.21
0.97
-0.72
-2.89
-5.45
-8.16
-10.81
-13.26
-15.48
-17.56
-19.58
-21.58
-23.49
-25.11
-26.16
-26.17
-24.55
-20.64
-13.87
-4.09
8.20
21.70
34.62
45.08
51.78
54.26
53.03
49.20
43.94
38.16
32.33
26.67
21.36
16.72
13.16
10.99
10.22
10.49
11.14
11.56
11.28
10.21
8.51
6.49
4.36
2.15
-0.37
-3.54
-7.66
-12.83
-18.89
-25.43
-31.92
-37.85
-42.85
-46.74
-49.41
-50.76
-50.51
-48.29
-43.70
-36.58
-27.17
-16.07
-3.99
8.44
20.82
32.81
43.95
53.37
59.93
62.62
60.98
55.43
47.19
37.83
28.77
20.94
14.70
10.07
6.93
5.16
4.64
5.07
5.99
6.78
6.82
5.67
3.17
-0.57
-5.23
-10.40
-15.70
-20.81
-25.57
-29.98
-34.14
-38.21
-42.22
-45.96
-48.96
-50.56
-50.13
-47.31
-42.10
-34.92
-26.46
-17.47
-8.63
-0.49
6.59
12.32
16.50
19.01
19.85
19.24
17.58
15.42
13.32
11.67
10.70
10.41
10.65
11.28
12.10
12.96
13.70
14.19
14.34
14.13
13.59
12.72
11.49
9.82
7.65
5.01
2.06
-0.92
-3.68
-6.07
-8.15
-10.12
-12.26
-14.80
-17.84
-21.28
-24.81
-27.98
-30.21
-30.91
-29.59
-26.05
-20.38
-13.06
-4.87
3.32
10.65
16.54
20.64
22.93
23.57
22.82
21.03
18.54
15.71
12.94
10.56
8.81
7.78
7.41
7.53
7.95
8.49
9.04
9.53
9.87
9.94
9.56
8.53
6.76
4.31
1.43
-1.47
-4.00
-5.95
-7.35
-8.51
-9.85
-11.74
-14.33
-17.54
-21.07
-24.42
-26.98
-28.10
-27.19
-23.92
-18.38
-11.18
-3.25
4.38
10.87
15.82
19.12
20.93
21.40
20.72
19.09
16.77
14.12
11.52
9.29
7.61
6.57
6.14
6.26
6.77
7.51
8.28
8.94
9.35
9.44
9.14
8.39
7.15
5.45
3.44
1.40
-0.40
-1.76
-2.69
-3.42
-4.31
-5.68
-7.74
-10.45
-13.59
-16.84
-19.79
-22.02
-23.13
-22.73
-20.59
-16.67
-11.25
-4.86
1.77
7.90
13.00
16.78
19.19
20.30
20.25
19.19
17.30
14.84
12.14
9.55
7.36
5.73
4.66
4.05
3.75
3.64
3.65
3.75
3.90
3.94
3.68
2.90
1.45
-0.66
-3.28
-6.15
-8.99
-11.57
-13.78
-15.65
-17.30
-18.85
-20.45
-22.13
-23.75
-24.97
-25.25
-23.96
-20.65
-15.15
-7.78
0.72
9.43
17.41
23.94
28.61
31.31
32.16
31.45
29.55
26.88
23.86
20.78
17.89
15.29
13.03
11.21
9.93
9.32
9.41
10.08
11.02
11.81
12.03
11.45
10.08
8.17
6.05
4.01
2.17
0.46
-1.31
-3.28
-5.47
-7.77
-10.01
-12.04
-13.80
-15.29
-16.62
-17.90
-19.31
-20.99
-23.04
-25.39
-27.73
-29.60
-30.43
-29.77
-27.45
-23.58
-18.57
-12.95
-7.28
-2.06
2.29
5.42
7.06
7.09
5.55
2.67
-1.19
-5.59
-10.08
-14.24
-17.64
-19.88
-20.61
-19.65
-17.06
-13.21
-8.72
-4.30
-0.55
2.23
4.00
4.91
5.14
4.80
3.94
2.63
1.00
-0.70
-2.21
-3.29
-3.86
-3.93
-3.59
-2.96
-2.00
-0.59
1.51
4.55
8.65
13.63
18.99
23.94
27.62
29.33
28.78
26.06
21.52
15.57
8.66
1.34
-5.52
-10.78
-13.27
-12.31
-8.12
-1.93
4.51
9.58
12.44
13.19
12.54
11.24
9.66
7.75
5.29
2.31
-0.81
-3.53
-5.50
-6.76
-7.81
-9.32
-11.77
-15.28
-19.50
-23.77
-27.31
-29.45
-29.70
-27.83
-23.91
-18.18
-11.17
-3.57
3.87
10.41
15.53
18.95
20.69
20.97
20.18
18.67
16.79
14.78
12.85
11.15
9.78
8.76
8.04
7.53
7.10
6.66
6.18
5.61
4.90
3.97
2.74
1.23
-0.51
-2.29
-3.96
-5.40
-6.67
-7.92
-9.43
-11.43
-14.01
-17.08
-20.28
-23.04
-24.72
-24.74
-22.75
-18.77
-13.20
-6.73
-0.15
5.82
10.74
14.43
17.04
18.83
20.10
21.05
21.80
22.38
22.82
23.16
23.43
23.70
23.98
24.21
24.31
24.18
23.73
22.90
21.65
19.94
17.71
14.94
11.65
7.99
4.17
0.46
-2.90
-5.78
-8.21
-10.31
-12.30
-14.43
-16.88
-19.80
-23.16
-26.69
-29.87
-31.98
-32.32
-30.41
-26.17
-19.99
-12.58
-4.75
2.72
9.23
14.37
17.88
19.60
19.59
18.06
15.46
12.38
9.38
6.91
5.15
4.06
3.46
3.19
3.21
3.55
4.31
5.44
6.70
7.67
7.91
7.12
5.32
2.76
-0.15
-3.11
-5.97
-8.76
-11.57
-14.45
-17.37
-20.28
-23.15
-25.94
-28.48
-30.37
-31.00
-29.70
-26.06
-20.14
-12.50
-4.10
4.07
11.15
16.63
20.27
22.06
22.11
20.68
18.17
15.09
12.03
9.43
7.58
6.55
6.24
6.48
7.19
8.36
10.02
12.15
14.59
17.06
19.15
20.47
20.68
19.61
17.27
13.94
10.22
6.98
5.13
5.32
7.59
11.22
14.82
16.78
15.91
11.84
5.25
-2.36
-9.28
-14.04
-15.85
-14.68
-11.04
-5.73
0.42
6.58
12.00
15.95
17.80
17.15
13.95
8.64
2.00
-5.05
-11.68
-17.36
-21.86
-25.09
-27.03
-27.55
-26.59
-24.19
-20.62
-16.38
-12.07
-8.27
-5.28
-3.14
-1.57
-0.15
1.56
3.76
6.27
8.47
9.53
8.67
5.50
0.22
-6.47
-13.56
-20.05
-25.12
-28.25
-29.12
-27.60
-23.73
-17.73
-10.11
-1.68
6.53
13.49
18.37
20.72
20.55
18.25
14.41
9.68
4.55
-0.56
-5.34
-9.45
-12.56
-14.34
-14.61
-13.40
-10.92
-7.55
-3.71
0.20
3.81
6.80
8.91
9.98
10.02
9.20
7.79
6.00
3.87
1.21
-2.24
-6.72
-12.22
-18.47
-24.95
-31.07
-36.20
-39.76
-41.20
-40.01
-35.91
-28.94
-19.63
-8.93
2.04
12.36
21.46
29.17
35.40
39.98
42.58
42.85
40.74
36.67
31.47
26.07
21.19
17.13
13.84
11.12
8.87
7.06
5.71
4.65
3.46
1.56
-1.63
-6.43
-12.76
-20.06
-27.37
-33.59
-37.87
-39.99
-40.41
-40.09
-39.94
-40.33
-40.89
-40.63
-38.50
-33.82
-26.59
-17.43
-7.29
2.86
12.23
20.19
26.25
30.04
31.41
30.60
28.20
24.93
21.43
18.00
14.64
11.15
7.42
3.51
-0.30
-3.67
-6.34
-8.17
-9.17
-9.45
-9.19
-8.63
-8.09
-7.91
-8.33
-9.45
-11.18
-13.33
-15.73
-18.26
-20.81
-23.25
-25.34
-26.76
-27.13
-26.07
-23.35
-18.92
-13.03
-6.18
0.95
7.65
13.32
17.62
20.40
21.67
21.53
20.13
17.69
14.54
11.09
7.76
4.93
2.85
1.63
1.28
1.68
2.63
3.80
4.81
5.31
5.05
4.05
2.51
0.72
-1.07
-2.79
-4.56
-6.65
-9.29
-12.56
-16.27
-19.91
-22.82
-24.26
-23.68
-20.86
-15.95
-9.43
-1.97
5.69
12.90
19.08
23.81
26.81
27.95
27.35
25.32
22.32
18.85
15.38
12.29
9.81
8.05
6.98
6.52
6.52
6.82
7.23
7.55
7.56
7.05
5.88
4.06
1.74
-0.85
-3.44
-5.91
-8.26
-10.70
-13.46
-16.74
-20.50
-24.40
-27.82
-29.98
-30.11
-27.70
-22.61
-15.19
-6.19
3.34
12.31
19.82
25.26
28.47
29.57
28.93
27.00
24.21
20.94
17.54
14.38
11.80
10.06
9.23
9.18
9.60
10.14
10.52
10.63
10.52
10.30
10.04
9.72
9.14
8.07
6.31
3.83
0.79
-2.50
-5.74
-8.72
-11.43
-14.03
-16.69
-19.56
-22.63
-25.76
-28.72
-31.16
-32.68
-32.77
-30.93
-26.81
-20.33
-11.88
-2.23
7.57
16.48
23.70
28.79
31.70
32.71
32.23
30.72
28.64
26.39
24.33
22.71
21.63
20.97
20.41
19.54
17.99
15.65
12.63
9.29
6.05
3.25
1.05
-0.60
-1.86
-2.96
-4.03
-5.14
-6.24
-7.26
-8.13
-8.85
-9.47
-10.07
-10.74
-11.53
-12.50
-13.72
-15.29
-17.36
-19.93
-22.77
-25.30
-26.64
-25.82
-22.12
-15.46
-6.53
3.34
12.58
19.90
24.69
27.12
27.89
27.81
27.44
26.86
25.81
23.91
21.06
17.64
14.47
12.54
12.52
14.43
17.64
21.19
24.22
26.30
27.36
27.27
25.55
21.49
14.87
6.61
-1.13
-5.98
-6.75
-4.38
-1.50
-0.82
-3.26
-7.35
-10.31
-10.20
-7.67
-5.77
-8.13
-16.47
-29.28
-42.53
-51.85
-54.84
-51.86
-45.25
-37.51
-29.89
-22.11
-13.24
-2.84
8.33
18.59
26.23
30.42
31.61
31.14
30.57
30.95
32.49
34.67
36.64
37.65
37.24
35.37
32.26
28.42
24.44
20.91
18.21
16.32
14.86
13.21
10.83
7.53
3.60
-0.39
-3.85
-6.47
-8.32
-9.80
-11.43
-13.65
-16.72
-20.71
-25.57
-31.12
-37.04
-42.70
-47.19
-49.48
-48.69
-44.49
-37.26
-28.09
-18.40
-9.49
-2.20
3.14
6.63
8.46
8.82
7.82
5.66
2.74
-0.37
-3.11
-5.05
-6.02
-6.12
-5.55
-4.54
-3.23
-1.76
-0.25
1.17
2.40
3.41
4.18
4.68
4.80
4.37
3.25
1.44
-0.93
-3.55
-6.13
-8.47
-10.55
-12.52
-14.65
-17.17
-20.08
-23.07
-25.49
-26.49
-25.28
-21.50
-15.35
-7.62
0.60
8.24
14.54
19.16
22.13
23.63
23.85
22.92
20.99
18.29
15.21
12.21
9.71
8.02
7.22
7.23
7.77
8.55
9.27
9.71
9.80
9.55
9.03
8.30
7.36
6.15
4.63
2.82
0.81
-1.27
-3.33
-5.40
-7.62
-10.08
-12.78
-15.55
-18.15
-20.36
-22.12
-23.58
-24.90
-26.12
-27.01
-27.02
-25.49
-21.88
-16.00
-8.17
0.92
10.39
19.38
27.25
33.57
38.10
40.70
41.35
40.13
37.27
33.17
28.30
23.10
17.89
12.78
7.82
3.06
-1.36
-5.21
-8.27
-10.43
-11.74
-12.34
-12.44
-12.22
-11.77
-11.19
-10.63
-10.31
-10.44
-11.14
-12.36
-13.90
-15.46
-16.80
-17.82
-18.58
-19.27
-20.09
-21.16
-22.45
-23.73
-24.56
-24.40
-22.69
-19.01
-13.20
-5.41
3.87
13.94
23.99
33.24
41.03
46.86
50.48
51.76
50.79
47.87
43.44
38.09
32.41
26.92
21.94
17.61
13.89
10.68
7.87
5.45
3.49
2.08
1.23
0.84
0.64
0.29
-0.51
-1.91
-3.85
-6.15
-8.60
-11.04
-13.44
-15.82
-18.20
-20.55
-22.81
-24.93
-26.95
-28.94
-30.96
-32.90
-34.41
-34.95
-33.93
-30.95
-25.97
-19.33
-11.68
-3.78
3.70
10.24
15.50
19.24
21.21
21.25
19.38
15.86
11.27
6.37
1.89
-1.65
-4.06
-5.50
-6.26
-6.59
-6.62
-6.28
-5.52
-4.38
-3.06
-1.85
-0.97
-0.47
-0.23
-0.08
-0.02
-0.26
-1.16
-3.07
-6.12
-10.16
-14.83
-19.79
-24.80
-29.73
-34.43
-38.57
-41.56
-42.65
-41.17
-36.83
-29.88
-21.13
-11.66
-2.59
5.24
11.34
15.51
17.77
18.21
17.00
14.34
10.58
6.22
1.83
-2.05
-5.00
-6.83
-7.55
-7.35
-6.54
-5.47
-4.47
-3.80
-3.63
-4.01
-4.99
-6.54
-8.63
-11.16
-13.95
-16.76
-19.37
-21.70
-23.86
-26.14
-28.89
-32.29
-36.18
-40.01
-42.91
-44.00
-42.62
-38.64
-32.47
-24.98
-17.19
-10.06
-4.31
-0.29
1.88
2.32
1.25
-0.98
-3.95
-7.13
-9.92
-11.77
-12.21
-10.99
-8.01
-3.25
3.25
11.36
20.72
30.66
40.15
48.08
53.60
56.54
57.42
57.24
57.04
57.39
58.15
58.54
57.47
53.91
47.22
37.44
25.28
12.14
-0.11
-9.54
-14.53
-14.26
-8.89
0.45
12.05
24.01
34.68
42.96
48.28
50.55
49.97
46.90
41.84
35.38
28.25
21.16
14.67
9.07
4.41
0.54
-2.66
-5.20
-6.97
-7.88
-7.98
-7.52
-7.00
-6.91
-7.63
-9.24
-11.54
-14.12
-16.54
-18.52
-20.02
-21.28
-22.67
-24.53
-26.99
-29.94
-33.00
-35.63
-37.28
-37.39
-35.50
-31.35
-24.96
-16.72
-7.43
1.93
10.35
17.02
21.55
23.90
24.34
23.25
21.09
18.31
15.33
12.52
10.17
8.44
7.34
6.78
6.66
6.87
7.34
8.00
8.76
9.43
9.82
9.74
9.07
7.85
6.21
4.35
2.40
0.39
-1.81
-4.41
-7.60
-11.42
-15.67
-19.97
-23.78
-26.54
-27.74
-27.00
-24.14
-19.16
-12.31
-4.05
5.02
14.33
23.43
32.16
40.52
48.44
55.57
61.18
64.36
64.43
61.28
55.52
48.28
40.83
34.09
28.47
23.88
20.05
16.67
13.59
10.64
7.60
4.16
0.02
-4.91
-10.40
-15.98
-21.15
-25.54
-29.07
-32.00
-34.70
-37.54
-40.65
-43.90
-46.86
-48.85
-49.14
-47.15
-42.63
-35.80
-27.33
-18.17
-9.34
-1.63
4.44
8.65
10.97
11.47
10.35
7.92
4.67
1.14
-2.08
-4.53
-5.99
-6.46
-6.12
-5.25
-4.11
-2.87
-1.65
-0.52
0.40
0.92
0.88
0.17
-1.14
-2.84
-4.65
-6.36
-7.97
-9.71
-11.89
-14.72
-18.09
-21.54
-24.26
-25.43
-24.43
-21.05
-15.58
-8.64
-1.07
6.33
12.93
18.27
22.15
24.48
25.30
24.74
23.00
20.38
17.27
14.08
11.16
8.75
6.99
5.87
5.32
5.26
5.58
6.10
6.60
6.79
6.43
5.34
3.49
0.97
-1.99
-5.11
-8.07
-10.65
-12.76
-14.54
-16.32
-18.56
-21.51
-25.11
-28.81
-31.74
-32.90
-31.57
-27.56
-21.22
-13.37
-5.00
3.02
10.05
15.77
20.06
22.92
24.35
24.39
23.11
20.74
17.60
14.16
10.90
8.16
6.10
4.67
3.67
2.93
2.32
1.79
1.36
1.01
0.65
0.13
-0.66
-1.78
-3.20
-4.81
-6.47
-8.11
-9.74
-11.46
-13.39
-15.60
-18.06
-20.54
-22.65
-23.86
-23.63
-21.54
-17.43
-11.42
-4.02
4.01
11.85
18.77
24.24
28.01
29.95
30.06
28.39
25.16
20.75
15.80
11.01
7.05
4.35
3.02
2.91
3.69
5.00
6.51
7.91
8.97
9.47
9.28
8.33
6.67
4.44
1.85
-0.92
-3.70
-6.42
-9.06
-11.68
-14.37
-17.25
-20.41
-23.86
-27.46
-30.86
-33.53
-34.87
-34.37
-31.71
-26.99
-20.67
-13.48
-6.26
0.21
5.30
8.64
10.11
9.84
8.10
5.35
2.28
-0.34
-1.78
-1.54
0.51
4.15
8.91
14.09
18.95
23.03
26.00
27.64
27.76
26.28
23.41
19.56
15.22
10.77
6.67
3.19
0.30
-2.26
-4.81
-7.38
-9.71
-11.42
-12.27
-11.68
-9.21
-4.66
1.80
9.83
19.29
30.34
43.24
55.11
62.90
64.63
60.59
52.76
43.08
32.92
23.10
14.14
6.38
0.63
-2.25
-1.80
1.78
7.53
14.27
20.75
25.85
28.58
28.75
26.62
22.73
18.12
12.88
7.40
2.15
-2.50
-6.62
-10.11
-12.82
-14.59
-15.47
-15.77
-15.78
-15.77
-15.95
-16.61
-17.63
-18.65
-19.24
-19.13
-18.30
-16.90
-15.37
-12.51
-8.34
-3.11
2.70
8.60
14.10
18.71
22.16
24.28
25.09
24.46
22.51
19.56
15.94
11.99
7.99
4.22
0.92
-1.70
-3.69
-5.14
-6.19
-7.11
-8.16
-9.60
-11.55
-13.95
-16.58
-19.32
-21.99
-24.49
-26.85
-29.18
-31.58
-34.07
-36.50
-38.55
-39.79
-39.65
-37.61
-33.39
-27.06
-19.14
-10.45
-1.93
5.61
11.63
15.92
18.55
19.73
19.68
18.63
16.80
14.49
12.01
9.73
8.00
7.02
6.84
7.33
8.23
9.21
9.93
10.06
9.33
7.52
4.49
0.27
-4.93
-10.74
-16.73
-22.53
-27.96
-33.05
-38.01
-43.11
-48.59
-54.47
-60.52
-66.17
-70.69
-73.29
-73.39
-70.75
-65.59
-58.52
-50.37
-42.00
-34.12
-27.22
-21.54
-17.14
-13.98
-11.97
-10.99
-10.86
-11.34
-12.10
-12.77
-13.04
-12.68
-11.62
-9.90
-7.62
-4.93
-2.04
0.73
3.03
4.50
5.00
4.64
3.83
3.08
2.81
3.17
4.00
4.96
5.69
5.93
5.61
4.75
3.41
1.64
-0.37
-2.18
-3.07
-2.11
1.49
8.07
17.27
28.09
39.13
49.10
57.09
62.74
66.14
67.57
67.30
65.46
62.15
57.52
51.87
45.67
39.46
33.70
28.65
24.28
20.33
16.42
12.13
7.11
1.16
-5.79
-13.66
-22.25
-31.28
-40.47
-49.57
-58.51
-67.32
-76.07
-84.69
-92.80
-99.66
-104.33
-105.94
-104.03
-98.77
-90.91
-81.44
-71.28
-60.90
-50.27
-38.94
-26.17
-11.19
6.58
27.25
50.30
74.46
97.92
118.71
135.26
146.92
154.00
157.55
158.86
158.99
158.55
157.78
156.66
155.06
152.65
148.85
142.86
133.75
120.75
103.55
82.56
58.79
33.73
9.03
-13.73
-33.17
-48.33
-58.75
-64.62
-66.60
-65.48
-61.76
-55.35
-45.63
-31.90
-14.10
6.66
27.98
46.55
59.08
63.16
57.72
42.90
19.58
-11.21
-48.42
-90.71
-135.92
-180.77
-221.12
-252.83
-272.97
-280.58
-276.79
-264.14
-245.57
-223.53
-199.66
-174.93
-149.93
-125.22
-101.38
-78.93
-58.16
-39.17
-21.99
-6.80
5.83
14.83
18.88
17.00
9.25
-2.73
-15.85
-26.41
-31.34
-29.33
-21.15
-9.01
4.65
18.21
31.34
44.54
58.36
72.67
86.50
98.58
108.01
114.84
120.02
124.84
130.16
135.95
141.18
144.43
144.68
141.89
137.06
131.80
127.45
124.41
122.04
119.09
114.55
108.27
100.96
93.61
86.69
79.78
71.68
61.17
47.83
32.35
16.36
1.58
-10.79
-20.39
-27.49
-32.45
-35.40
-36.19
-34.62
-30.67
-24.60
-16.84
-7.85
1.90
11.91
21.58
30.26
37.34
42.44
45.56
47.03
47.41
47.34
47.31
47.58
48.13
48.65
48.71
47.87
45.73
41.96
36.17
27.91
16.75
2.55
-14.40
-33.26
-52.83
-71.79
-88.95
-103.54
-115.37
-125.04
-133.86
-143.45
-155.07
-168.70
-182.46
-192.88
-196.05
-189.22
-171.99
-146.47
-116.17
-84.30
-52.42
-20.10
14.17
51.45
91.18
130.83
166.65
194.87
212.58
218.06
210.84
191.73
162.96
128.27
92.53
60.76
36.57
20.67
10.20
-0.49
-17.60
-44.99
-82.14
-124.10
-163.26
-192.22
-206.07
-203.37
-185.67
-156.27
-119.12
-78.42
-38.52
-3.71
22.44
38.15
44.18
43.50
39.83
36.10
33.28
30.34
25.31
16.61
4.04
-11.15
-26.95
-41.69
-54.85
-67.20
-80.11
-94.54
-110.33
-126.06
-139.75
-149.60
-154.36
-153.07
-144.88
-129.16
-106.21
-77.98
-47.80
-19.71
2.81
18.01
26.19
29.01
28.64
27.26
26.92
29.57
36.17
45.80
55.77
62.95
65.36
62.97
57.36
50.41
43.93
38.65
34.87
33.48
36.62
46.86
65.67
92.07
122.66
153.71
181.08
200.63
208.67
202.80
182.76
150.94
112.13
72.81
40.72
21.49
16.75
24.04
38.69
55.82
71.99
85.94
90.45
82.76
66.20
47.51
31.15
17.48
5.13
-6.55
-17.05
-25.02
-28.16
-25.60
-18.72
-10.64
-4.44
-1.92
-2.01
-3.51
-4.67
-3.77
-0.83
2.19
2.72
-0.35
-6.54
-13.78
-20.12
-24.45
-27.07
-29.56
-33.98
-42.06
-52.53
-64.37
-76.22
-86.82
-94.40
-97.70
-95.77
-88.26
-75.45
-58.63
-41.17
-26.56
-17.55
-14.35
-16.76
-23.98
-35.10
-49.03
-64.69
-82.13
-100.29
-116.84
-127.33
-129.53
-123.66
-112.16
-98.02
-76.59
-47.43
-14.42
12.30
34.95
57.66
83.37
111.41
139.95
166.57
187.42
199.14
193.75
168.05
124.68
72.85
23.59
-13.97
-37.44
-49.75
-54.55
-55.47
-54.28
-53.14
-51.72
-50.84
-50.51
-50.11
-49.76
-49.25
-47.81
-43.34
-34.66
-22.48
-9.33
1.77
8.18
7.86
1.60
-5.01
-4.49
7.90
30.61
57.23
79.97
93.75
94.26
79.26
49.74
9.75
-35.03
-78.60
-114.02
-135.11
-133.04
-106.05
-61.69
-13.68
23.92
49.74
66.24
77.13
84.83
91.55
97.46
101.52
101.88
96.65
84.91
66.45
43.59
20.65
2.24
-9.78
-15.86
-18.00
-17.78
-15.75
-12.81
-10.25
-10.29
-15.87
-30.21
-54.28
-87.06
-124.50
-161.54
-194.41
-220.66
-238.74
-247.39
-245.78
-232.81
-210.42
-181.11
-148.67
-117.77
-92.53
-75.63
-67.55
-66.48
-66.67
-63.90
-52.48
-29.32
4.19
42.28
77.10
102.25
115.54
121.65
124.13
128.30
136.87
149.72
165.63
184.36
207.44
224.60
251.44
283.53
316.27
344.41
364.19
374.44
376.08
370.53
358.05
339.16
309.30
266.53
211.03
146.12
77.88
13.51
-40.81
-82.02
-109.04
-126.42
-137.83
-145.91
-151.46
-153.84
-152.37
-147.53
-141.69
-136.96
-136.46
-140.39
-147.09
-154.13
-159.58
-163.01
-165.34
-168.67
-173.86
-180.99
-188.04
-192.53
-192.48
-186.93
-175.92
-160.13
-141.42
-121.72
-102.74
-85.18
-69.01
-53.69
-38.41
-22.55
-1.12
26.37
55.35
79.61
95.98
105.35
110.28
113.41
115.16
114.73
110.87
102.77
91.26
78.64
67.41
59.48
55.03
52.68
50.68
47.06
39.43
26.20
6.91
-18.01
-47.94
-82.45
-120.82
-161.35
-193.77
-208.72
-203.27
-182.46
-154.14
-124.05
-95.24
-69.69
-49.46
-36.59
-33.84
-41.80
-57.16
-73.87
-84.17
-82.30
-66.31
-38.39
-3.22
32.16
61.53
81.61
92.63
97.16
98.35
99.21
98.00
95.14
90.90
85.73
80.32
75.42
71.34
67.60
63.29
57.67
51.14
43.99
36.72
29.94
24.44
20.79
19.06
18.88
19.61
20.89
21.99
22.24
21.21
18.75
15.00
10.49
6.29
4.05
5.25
10.58
19.85
32.11
45.81
59.21
71.10
81.04
89.88
98.48
107.44
117.25
128.40
141.34
156.15
172.24
187.53
198.94
201.57
190.66
163.99
123.28
73.41
20.19
-31.79
-83.27
-130.11
-166.72
-189.13
-196.53
-190.79
-176.01
-157.98
-142.38
-132.95
-129.30
-128.69
-127.63
-123.62
-116.37
-107.62
-101.01
-97.24
-95.63
-93.86
-90.15
-83.99
-76.10
-67.80
-60.18
-53.64
-47.56
-41.26
-34.02
-26.13
-18.45
-11.64
-6.05
-0.99
4.77
12.62
23.09
35.96
50.04
63.65
75.20
83.61
88.59
90.42
89.86
87.69
84.69
81.36
77.77
73.65
68.51
61.86
53.42
43.20
31.47
18.62
4.98
-9.35
-24.46
-40.53
-57.52
-75.16
-92.87
-109.86
-125.33
-138.52
-148.89
-156.16
-160.42
-161.92
-161.02
-157.93
-152.56
-144.62
-133.85
-120.33
-104.79
-88.68
-73.97
-62.70
-56.45
-55.70
-59.54
-65.75
-71.38
-73.75
-71.29
-64.12
-53.88
-43.01
-33.84
-27.77
-25.05
-24.96
-26.28
-27.80
-28.58
-28.06
-26.00
-22.40
-17.41
-11.25
-4.08
3.98
12.93
22.91
34.10
46.68
60.58
75.31
89.88
103.11
114.23
123.52
132.45
143.21
157.63
176.01
196.48
215.25
227.80
230.37
221.21
201.06
172.80
140.50
108.38
79.92
57.41
41.94
33.55
31.55
34.89
42.23
52.15
63.13
73.62
82.30
88.18
90.73
89.86
85.71
78.45
68.20
54.96
38.90
20.53
0.82
-18.83
-36.86
-51.84
-62.81
-69.47
-72.16
-71.70
-69.09
-65.19
-60.62
-55.63
-50.22
-44.32
-37.88
-30.88
-23.32
-15.05
-5.77
4.96
17.58
32.27
48.83
66.63
84.60
101.43
115.70
126.19
132.06
133.16
130.08
124.11
116.92
110.13
104.79
101.16
98.68
96.31
93.03
88.34
82.53
76.64
72.05
70.03
71.20
75.27
81.06
86.70
90.03
89.07
82.41
69.51
50.83
27.76
2.39
-22.88
-45.76
-64.49
-78.17
-86.94
-91.86
-94.56
-96.80
-100.08
-105.23
-112.38
-120.95
-129.97
-138.27
-144.67
-148.14
-148.00
-144.00
-136.43
-126.02
-113.65
-100.24
-86.48
-72.74
-59.11
-45.65
-32.74
-21.08
-11.71
-5.34
-2.44
-3.05
-6.53
-11.74
-17.61
-23.54
-29.43
-35.60
-41.64
-47.15
-51.66
-54.39
-54.49
-51.43
-45.17
-35.90
-24.01
-8.96
8.99
28.72
48.82
68.25
86.29
102.75
118.02
132.22
146.02
158.19
165.77
165.67
156.34
137.91
112.49
83.66
47.24
6.14
-33.15
-66.12
-93.12
-116.37
-136.79
-154.96
-168.04
-172.99
-167.31
-151.92
-130.82
-108.83
-87.21
-68.28
-54.07
-45.95
-44.57
-47.61
-50.76
-48.67
-36.24
-10.98
24.50
63.15
95.95
115.35
118.84
108.59
89.14
65.68
42.75
23.27
9.20
1.56
0.14
3.62
9.04
11.80
7.90
-4.21
-23.35
-46.37
-70.19
-92.85
-113.48
-127.00
-129.56
-120.76
-104.20
-85.52
-69.23
-57.92
-51.75
-48.78
-45.90
-41.03
-33.59
-24.00
-14.41
-5.35
2.62
9.37
15.42
21.44
27.35
32.62
37.27
40.87
43.81
46.44
48.82
50.96
52.64
54.48
56.03
57.65
59.93
63.42
68.16
73.43
78.56
82.67
85.32
84.83
81.71
77.26
72.73
68.76
64.49
58.42
48.27
32.15
9.37
-18.73
-49.78
-81.28
-110.91
-137.71
-156.15
-161.54
-152.72
-133.11
-108.04
-82.29
-61.88
-46.63
-36.10
-29.76
-27.70
-30.01
-35.49
-42.67
-49.88
-55.66
-58.49
-58.02
-54.43
-48.94
-43.07
-37.99
-34.08
-31.00
-28.15
-24.76
-20.82
-16.65
-13.03
-10.70
-10.03
-10.91
-12.83
-15.26
-17.58
-19.57
-21.06
-21.92
-21.91
-20.68
-17.91
-13.51
-7.73
-1.05
5.77
12.02
17.15
20.80
22.81
23.23
22.32
20.46
18.18
15.87
13.77
11.91
10.18
8.45
6.68
4.95
3.41
2.16
1.16
0.26
-0.87
-2.64
-5.53
-9.97
-16.25
-24.33
-33.78
-43.81
-53.43
-61.61
-67.46
-70.27
-69.54
-65.09
-57.06
-45.84
-31.96
-15.72
2.98
24.45
48.81
75.33
102.26
127.10
147.56
162.48
172.27
178.43
182.54
185.34
186.42
184.85
179.97
172.06
162.17
151.41
140.10
127.49
112.20
93.05
69.89
43.95
17.38
-7.39
-28.42
-44.71
-56.25
-63.83
-68.69
-72.22
-75.51
-79.20
-83.29
-87.17
-89.93
-90.68
-88.95
-84.93
-79.39
-73.43
-68.08
-64.05
-61.67
-61.13
-62.63
-66.47
-72.86
-81.64
-92.07
-102.95
-113.03
-121.44
-128.02
-133.17
-137.46
-141.19
-144.02
-145.10
-143.25
-137.27
-126.12
-109.01
-85.53
-55.89
-21.19
16.56
54.67
90.43
121.83
148.23
170.38
189.99
208.83
227.94
247.19
265.38
280.77
291.77
297.37
297.34
292.04
282.18
268.62
252.38
234.59
216.46
199.17
183.59
170.11
158.55
148.16
137.94
126.93
114.46
100.46
85.44
70.27
55.85
42.57
30.00
16.86
1.46
-17.71
-41.18
-68.31
-97.42
-126.55
-154.18
-179.58
-202.58
-222.99
-239.95
-251.80
-256.61
-253.06
-241.22
-222.71
-200.19
-176.27
-152.71
-130.04
-107.91
-85.82
-63.75
-42.43
-23.00
-6.45
6.97
17.85
27.40
36.71
46.13
55.08
62.35
66.68
67.41
64.67
59.20
52.02
43.88
35.08
25.59
15.24
3.90
-8.44
-21.71
-35.73
-49.98
-63.66
-75.72
-85.13
-91.24
-93.88
-93.50
-90.93
-87.17
-82.86
-78.68
-75.45
-74.12
-75.26
-78.73
-83.47
-87.98
-90.89
-90.90
-87.59
-81.39
-73.25
-63.85
-53.26
-41.09
-26.99
-11.20
6.56
26.05
46.43
66.32
84.25
99.06
110.00
116.61
118.60
117.44
115.02
113.12
112.91
115.29
120.95
130.80
145.55
156.84
158.27
147.77
129.01
107.43
86.50
66.78
47.88
29.52
11.81
-3.52
-15.45
-24.13
-31.40
-38.92
-46.97
-52.80
-52.01
-42.05
-22.42
3.17
28.49
46.34
51.83
42.95
21.49
-8.54
-42.63
-75.90
-104.71
-126.33
-140.87
-144.67
-140.02
-132.05
-125.04
-119.94
-114.41
-109.06
-102.22
-94.58
-87.51
-82.15
-77.61
-71.70
-62.47
-47.64
-28.01
-4.08
20.62
41.70
55.77
62.48
63.91
62.99
61.96
61.44
61.25
60.88
58.14
51.64
41.76
30.49
20.61
14.58
13.25
15.98
20.36
23.37
22.90
18.40
11.11
3.68
-0.67
0.66
8.94
23.12
39.96
54.93
63.44
62.27
50.46
29.42
2.62
-25.25
-49.57
-66.78
-75.34
-76.27
-72.98
-70.24
-72.58
-81.86
-95.92
-109.15
-114.33
-105.43
-78.74
-33.55
27.25
96.82
165.57
222.78
258.74
267.45
248.39
207.78
156.79
107.23
67.09
39.31
21.88
9.42
-4.66
-25.95
-56.28
-90.67
-120.24
-137.26
-139.84
-133.52
-134.11
-148.61
-177.06
-213.23
-247.75
-265.50
-257.77
-221.53
-159.58
-72.29
25.76
110.10
159.94
168.86
144.60
101.46
55.03
17.80
-2.86
-6.52
2.01
15.87
28.55
35.88
36.80
35.02
34.40
38.21
46.65
57.48
67.80
75.27
78.62
77.28
71.83
63.19
52.40
39.51
24.80
9.75
-3.13
-11.38
-13.88
-11.01
-4.43
3.71
10.81
15.15
16.77
16.99
17.62
20.16
25.80
35.59
50.79
71.53
95.55
118.31
133.48
136.13
125.02
102.85
75.32
49.73
31.14
20.09
14.99
12.15
6.96
-4.46
-24.26
-52.69
-84.93
-116.58
-141.93
-154.37
-148.50
-122.33
-79.23
-28.07
18.69
49.20
54.74
35.01
-2.10
-45.03
-83.55
-112.06
-130.02
-140.39
-146.95
-154.42
-164.13
-173.95
-180.38
-180.67
-174.35
-163.15
-150.32
-127.03
-92.12
-48.87
-1.66
45.60
87.42
116.36
126.50
116.96
93.70
65.06
39.99
23.94
17.25
16.09
14.61
11.15
6.77
3.92
3.43
6.05
12.34
22.67
36.53
52.50
68.93
84.01
96.40
104.69
108.87
107.90
101.95
91.39
76.69
58.77
38.75
18.08
-2.15
-20.76
-36.68
-48.94
-56.98
-60.83
-60.96
-58.41
-54.55
-51.18
-50.37
-54.49
-65.64
-84.74
-110.42
-138.50
-162.96
-177.91
-179.87
-169.19
-149.71
-126.50
-103.09
-79.80
-54.15
-22.65
17.24
65.65
119.83
174.78
224.50
264.25
291.39
305.01
305.42
293.68
271.57
241.50
206.32
169.21
134.43
105.82
84.29
66.58
46.46
17.58
-23.59
-76.35
-135.77
-192.85
-237.07
-260.02
-257.54
-229.23
-177.51
-107.12
-23.50
55.37
106.71
118.41
95.89
55.45
13.96
-17.63
-35.16
-42.78
-45.34
-44.70
-39.14
-25.95
-4.36
23.84
51.73
71.44
77.50
70.15
55.70
42.87
37.10
37.97
40.85
40.50
34.86
25.54
16.81
10.88
8.82
9.92
12.46
14.87
16.53
18.11
20.42
23.14
24.63
23.20
16.78
4.52
-13.57
-36.92
-64.21
-90.91
-111.03
-120.44
-118.97
-109.78
-96.96
-83.96
-72.93
-64.00
-55.83
-47.21
-38.30
-30.59
-26.23
-27.53
-33.89
-43.18
-51.82
-56.20
-54.53
-47.31
-36.54
-24.39
-12.29
-0.74
10.00
19.84
27.89
31.74
29.63
22.35
13.76
8.93
11.30
20.70
33.92
45.53
50.45
46.57
35.72
22.59
12.07
7.35
9.63
19.49
36.02
56.62
77.59
95.16
106.67
110.87
108.19
95.30
74.38
52.28
36.37
30.00
32.02
38.93
48.22
56.13
60.14
60.33
57.83
53.92
49.68
43.84
36.01
25.18
9.88
-10.52
-34.45
-59.10
-81.17
-97.65
-106.28
-105.75
-96.41
-80.23
-60.04
-38.78
-19.84
-6.44
-0.79
-3.17
-11.65
-23.38
-35.78
-47.23
-57.21
-66.13
-74.64
-82.92
-90.50
-96.46
-100.22
-101.87
-101.93
-100.90
-99.09
-96.51
-92.86
-87.65
-80.15
-69.74
-55.98
-38.90
-19.24
1.46
20.97
36.93
47.53
52.22
52.24
50.55
51.31
58.76
75.88
103.36
139.21
179.08
217.32
248.31
267.61
272.60
262.73
239.38
205.68
166.08
125.68
89.20
59.64
37.41
20.22
4.27
-13.81
-35.25
-58.33
-79.29
-94.25
-101.20
-100.85
-96.14
-90.60
-86.66
-84.87
-84.22
-83.25
-81.14
-78.17
-75.45
-73.92
-73.76
-74.08
-73.53
-70.82
-65.39
-57.52
-48.18
-38.56
-29.53
-21.47
-14.27
-7.76
-1.80
3.54
8.00
11.28
13.18
13.80
13.51
12.91
12.23
11.65
11.38
11.69
12.66
14.16
15.88
17.38
18.29
17.76
15.30
11.20
6.35
1.51
-3.05
-7.54
-12.62
-19.13
-29.00
-43.92
-64.33
-88.69
-113.98
-136.48
-152.63
-160.31
-159.38
-153.03
-145.53
-140.24
-138.30
-139.31
-142.02
-144.89
-146.76
-138.47
-115.79
-82.21
-46.80
-16.93
4.95
19.69
30.91
40.30
48.34
54.24
57.77
57.95
56.02
53.82
52.73
53.29
55.09
57.61
60.40
62.94
65.00
67.44
71.70
79.02
90.14
104.88
122.43
142.00
160.95
175.41
182.77
183.24
179.73
176.95
179.41
189.23
206.18
224.96
237.34
236.46
220.05
189.81
149.92
104.77
46.76
-18.66
-75.69
-109.85
-118.75
-112.56
-105.36
-106.93
-120.60
-143.32
-165.24
-175.34
-166.36
-137.79
-92.48
-43.64
-8.57
2.75
-6.71
-24.37
-38.59
-43.75
-41.87
-34.97
-23.73
-6.85
17.40
48.97
83.69
114.09
132.51
134.23
120.32
96.21
69.56
46.61
29.26
15.18
-0.46
-21.86
-50.76
-84.62
-118.04
-144.29
-157.74
-155.63
-138.49
-109.80
-75.26
-42.84
-19.86
-10.95
-16.27
-32.32
-54.13
-77.48
-99.75
-112.84
-110.52
-92.11
-62.97
-30.43
-1.50
18.05
25.20
21.17
11.00
0.05
-8.38
-13.60
-16.23
-16.80
-14.67
-8.35
3.25
19.41
36.79
51.91
62.36
68.29
71.56
74.14
76.89
79.54
80.06
78.04
74.29
70.56
68.81
69.85
72.87
75.85
77.36
77.08
75.51
73.65
70.71
65.53
56.74
43.53
25.77
5.27
-14.88
-31.65
-43.44
-50.65
-55.06
-59.41
-66.44
-78.62
-95.70
-114.47
-129.48
-135.08
-127.65
-107.16
-77.65
-40.95
-4.48
24.60
41.70
45.54
37.40
19.77
-4.08
-30.32
-54.55
-73.11
-82.77
-82.17
-72.67
-57.80
-41.69
-27.14
-14.89
-4.10
5.84
15.50
24.83
33.16
40.37
45.34
47.14
45.18
38.95
27.32
9.64
-14.01
-42.80
-75.57
-111.30
-149.21
-188.77
-229.02
-267.97
-301.66
-324.65
-331.72
-319.79
-289.07
-243.17
-188.19
-130.99
-77.68
-33.46
-0.25
23.20
38.82
48.70
54.89
59.14
62.90
67.48
74.20
84.47
99.42
119.46
144.15
172.14
201.39
229.64
255.06
276.79
295.18
311.23
325.97
340.08
353.69
366.49
377.91
387.38
394.34
398.16
397.93
392.53
381.10
363.38
339.65
310.43
276.13
236.87
192.69
143.99
91.82
37.94
-15.77
-67.69
-117.07
-164.00
-209.04
-252.97
-296.77
-341.71
-389.09
-439.55
-492.04
-543.11
-587.17
-617.75
-629.50
-619.87
-589.85
-543.38
-485.97
-423.02
-358.67
-295.35
-233.91
-174.12
-115.07
-55.62
5.50
69.59
137.79
210.37
285.84
359.98
425.54
473.77
496.78
490.15
454.41
394.70
318.57
233.38
144.73
56.86
-25.66
-96.71
-148.77
-175.47
-174.45
-149.29
-108.87
-64.19
-24.21
6.95
29.94
47.94
63.21
75.84
84.42
88.02
87.59
86.22
87.33
92.54
100.89
108.92
113.14
111.95
106.22
98.21
90.52
84.92
81.76
80.28
77.64
70.27
54.90
30.38
-1.33
-34.98
-64.31
-86.92
-100.89
-109.21
-117.20
-127.28
-135.78
-138.58
-133.00
-120.89
-107.90
-99.95
-100.79
-109.06
-121.40
-133.48
-142.96
-149.70
-154.62
-158.08
-158.73
-154.71
-143.92
-126.53
-104.28
-80.65
-59.48
-43.10
-32.35
-26.42
-26.70
-26.52
-23.52
-15.75
-3.03
13.39
32.43
52.27
70.81
86.41
98.85
108.67
117.23
125.31
133.08
141.96
152.10
162.41
171.37
177.95
182.30
185.17
186.90
187.61
189.51
193.27
197.45
199.46
196.52
187.95
174.31
156.75
123.10
73.13
16.93
-33.25
-66.84
-90.38
-110.18
-129.75
-150.43
-169.88
-181.69
-181.06
-167.31
-143.73
-116.46
-90.22
-68.64
-54.30
-47.47
-44.51
-41.94
-38.19
-33.02
-26.75
-17.45
-3.15
15.07
33.16
46.39
49.79
40.73
21.98
1.58
-10.76
-5.47
15.07
35.21
37.71
14.86
-28.12
-77.25
-119.51
-149.78
-168.72
-180.95
-189.74
-193.65
-188.51
-171.47
-139.65
-97.15
-51.47
-8.97
26.86
56.55
82.80
107.23
128.57
143.95
151.96
153.59
152.04
150.01
148.80
148.07
145.65
137.66
112.94
66.14
1.50
-67.35
-124.83
-159.07
-164.46
-142.73
-102.43
-57.77
-17.38
12.16
27.51
28.92
19.90
6.21
-6.21
-14.09
-13.73
-3.98
12.17
30.32
46.60
58.33
64.20
63.68
57.09
46.15
33.87
22.87
14.81
11.07
9.84
9.20
7.48
3.86
-1.28
-6.74
-11.53
-14.84
-16.26
-16.14
-15.07
-13.81
-12.77
-11.47
-9.37
-6.25
-2.31
2.05
6.06
8.89
9.55
7.33
2.16
-6.20
-18.31
-34.29
-52.96
-72.14
-89.10
-101.58
-107.55
-105.11
-93.14
-71.69
-41.78
-4.94
36.35
78.75
115.46
137.81
142.74
136.00
126.82
121.09
119.64
119.62
117.35
110.34
99.30
87.21
77.04
70.39
65.09
58.90
50.48
40.09
28.57
17.66
8.07
-0.57
-9.33
-19.11
-29.91
-41.52
-49.18
-51.07
-47.29
-41.34
-36.88
-35.54
-36.41
-37.32
-36.56
-33.67
-30.19
-27.91
-30.77
-40.39
-54.57
-68.60
-78.88
-84.42
-86.45
-87.91
-91.79
-104.24
-128.82
-164.03
-204.23
-243.82
-278.79
-306.19
-323.89
-306.21
-243.10
-149.48
-55.41
15.92
55.74
67.14
60.16
46.94
37.24
31.77
26.61
15.76
-0.49
-19.67
-37.76
-49.85
-51.78
-42.02
-24.59
-5.38
11.57
25.66
37.92
49.55
60.65
71.25
81.38
90.53
98.23
105.35
113.83
124.82
138.20
152.99
168.01
182.28
195.76
207.53
216.60
222.07
223.34
220.67
215.32
209.35
194.56
169.98
141.17
116.90
102.71
99.64
106.13
119.35
135.66
150.95
165.74
177.33
184.01
185.80
184.74
184.07
186.65
193.79
204.82
218.76
231.87
240.54
241.61
233.59
216.86
193.09
164.53
133.28
101.74
70.81
40.91
12.11
-15.36
-41.17
-65.35
-88.49
-111.69
-135.72
-161.58
-189.15
-217.40
-244.81
-270.39
-294.20
-317.23
-340.78
-365.44
-391.97
-419.79
-447.92
-476.04
-504.69
-533.83
-561.26
-582.09
-590.44
-584.20
-563.53
-530.69
-488.95
-441.18
-388.31
-329.96
-266.94
-203.36
-149.60
-113.85
-97.49
-94.53
-95.92
-94.20
-86.98
-77.52
-71.41
-76.48
-92.88
-112.69
-124.86
-122.44
-105.13
-77.62
-46.26
9.37
89.67
177.39
252.13
305.42
338.54
355.72
361.47
356.62
342.09
316.63
283.87
248.63
217.80
194.72
177.89
162.93
145.13
122.99
95.04
63.74
33.93
10.08
-5.90
-15.31
-20.91
-25.87
-30.60
-35.83
-40.45
-42.37
-39.52
-29.96
-14.34
4.44
21.21
34.42
43.62
50.20
56.34
64.76
80.59
106.68
142.18
180.84
219.18
254.23
284.05
306.91
322.00
333.06
342.65
350.55
352.03
348.25
342.65
338.87
337.55
312.14
250.02
158.52
76.48
7.29
-51.55
-105.88
-154.85
-197.33
-232.97
-258.32
-272.21
-276.92
-279.67
-282.29
-284.16
-283.61
-280.28
-274.61
-264.62
-250.05
-233.31
-220.60
-213.60
-211.20
-210.15
-206.57
-196.15
-173.33
-135.14
-82.85
-23.17
37.15
91.47
134.36
162.77
177.18
182.09
182.83
182.89
182.11
179.26
173.00
162.86
149.87
136.49
125.28
117.06
110.41
102.60
92.19
80.23
69.06
61.32
58.74
61.34
67.46
74.38
79.30
80.10
75.93
65.94
49.75
27.95
2.27
-24.62
-49.71
-70.64
-88.33
-102.39
-114.19
-126.32
-140.30
-155.26
-168.45
-176.85
-178.62
-175.55
-168.17
-158.03
-146.97
-136.46
-127.29
-119.54
-112.64
-105.52
-97.21
-86.36
-72.70
-56.74
-39.39
-21.73
-4.79
10.60
23.93
34.99
44.55
53.17
61.44
70.00
79.39
89.78
100.68
111.12
119.75
126.04
129.49
129.82
127.04
121.50
113.89
104.84
95.07
84.93
75.64
67.76
60.93
54.01
45.94
36.34
25.32
13.81
2.73
-5.60
-9.67
-9.73
-7.62
-5.38
-4.07
-3.83
-3.27
-0.89
6.57
21.15
42.27
67.09
92.22
115.45
135.55
153.08
155.91
137.27
99.79
54.32
11.13
-25.15
-50.62
-69.10
-82.22
-90.35
-91.32
-84.23
-71.56
-57.36
-45.13
-35.99
-29.48
-24.49
-24.14
-30.50
-43.66
-60.52
-76.60
-88.84
-98.12
-106.87
-117.09
-129.96
-141.88
-148.15
-144.81
-130.82
-108.66
-83.01
-58.79
-38.93
-23.96
-11.56
0.78
14.09
27.34
38.29
45.19
47.95
48.47
49.73
54.83
64.62
77.60
90.66
100.76
106.40
108.22
108.36
109.03
111.51
114.68
116.54
115.73
112.29
107.32
102.11
97.59
94.00
91.14
86.98
79.73
68.91
55.44
40.70
25.76
11.15
-3.13
-17.26
-34.01
-56.11
-84.44
-117.40
-151.74
-183.74
-210.10
-228.95
-229.50
-207.77
-170.24
-130.47
-99.41
-80.52
-72.04
-70.55
-73.40
-78.17
-85.47
-95.82
-108.53
-122.08
-135.28
-147.22
-155.67
-159.05
-150.42
-126.44
-87.87
-39.18
12.92
61.58
102.04
133.21
153.42
165.83
172.73
174.85
172.21
165.61
157.25
150.00
146.12
145.69
147.10
145.75
136.62
117.28
89.20
57.34
28.09
6.85
-4.23
-6.15
-3.20
-0.29
-0.70
-5.06
-11.79
-19.23
-26.10
-32.02
-36.58
-39.28
-39.30
-36.04
-30.12
-24.06
-21.55
-25.59
-36.49
-50.77
-62.54
-65.96
-58.03
-39.88
-16.06
7.79
27.37
40.96
49.18
53.76
56.34
57.80
58.55
58.73
58.47
57.88
56.86
55.26
52.61
49.77
48.66
51.80
61.13
76.83
96.67
116.23
130.44
135.68
131.49
120.62
107.80
97.58
92.27
91.30
91.99
90.93
85.20
73.15
54.55
30.84
5.18
-18.31
-36.06
-47.09
-54.29
-63.84
-82.54
-114.22
-157.28
-204.70
-246.85
-275.26
-285.54
-278.42
-258.43
-231.42
-202.28
-174.00
-147.99
-125.25
-106.30
-90.96
-77.98
-65.37
-51.12
-34.08
-14.74
4.65
20.07
28.18
28.15
21.81
12.34
2.73
-5.28
-11.37
-16.46
-23.48
-35.01
-51.50
-70.86
-89.36
-102.42
-105.77
-96.84
-76.37
-50.77
-28.61
-16.81
-18.31
-31.61
-51.48
-71.05
-84.17
-76.22
-41.85
9.93
61.52
100.18
124.44
140.25
154.40
170.54
187.45
199.78
202.85
195.20
178.23
152.63
120.63
84.86
48.57
15.19
-13.39
-35.87
-51.77
-61.83
-66.83
-66.81
-61.79
-52.31
-40.90
-32.00
-29.35
-29.12
-27.39
-20.32
-4.38
22.21
58.48
98.84
134.97
159.26
168.17
160.11
136.83
103.32
65.57
29.17
-3.82
-33.72
-55.45
-65.93
-67.34
-64.39
-59.65
-56.18
-48.15
-31.62
-5.67
26.70
58.03
80.95
88.15
78.32
56.72
32.55
10.95
-6.62
-21.39
-35.57
-49.79
-62.41
-71.13
-76.69
-83.72
-101.53
-135.07
-180.64
-228.01
-265.86
-287.47
-292.79
-286.95
-260.40
-211.19
-145.29
-75.04
-14.02
27.43
44.45
39.81
23.11
6.43
-5.20
-13.56
-23.66
-39.45
-60.19
-79.97
-90.42
-85.71
-65.45
-36.75
-8.28
12.87
25.01
32.37
40.88
53.90
69.41
82.99
88.54
83.15
68.37
49.90
36.50
34.65
45.64
63.88
83.40
98.70
107.34
109.68
108.62
110.36
119.15
134.83
150.83
163.62
171.76
176.16
177.84
178.05
181.40
191.45
208.74
227.75
247.14
266.83
286.79
304.69
295.29
245.09
161.28
89.29
39.63
11.01
-8.59
-26.15
-47.55
-76.14
-108.31
-138.52
-162.94
-184.50
-203.31
-218.81
-229.52
-234.85
-234.31
-224.91
-205.25
-177.40
-149.07
-124.66
-106.15
-93.13
-84.79
-79.86
-75.41
-69.58
-62.77
-59.07
-60.63
-68.17
-80.85
-97.31
-115.55
-132.55
-145.93
-154.89
-161.12
-165.90
-170.11
-173.90
-177.13
-179.25
-179.27
-176.34
-170.24
-161.69
-151.47
-140.39
-129.10
-118.01
-107.03
-95.41
-81.78
-64.42
-41.68
-12.58
22.88
63.43
106.81
150.28
191.20
227.63
258.51
283.61
303.32
318.33
329.45
337.49
343.10
346.63
347.97
346.58
341.70
332.69
319.37
302.21
282.31
261.14
240.09
220.03
200.94
181.85
161.14
137.17
109.19
77.86
45.28
14.34
-12.25
-32.88
-47.39
-56.74
-62.21
-64.80
-64.86
-62.51
-58.04
-52.26
-46.31
-41.25
-37.62
-35.36
-34.17
-33.84
-34.45
-36.09
-38.45
-40.71
-41.83
-41.07
-38.51
-35.01
-31.76
-29.74
-29.48
-31.14
-34.70
-40.04
-46.80
-54.21
-61.09
-66.14
-68.40
-67.62
-64.26
-59.32
-53.96
-49.18
-45.62
-43.38
-41.92
-40.18
-37.00
-31.64
-24.24
-15.79
-7.69
-1.18
3.14
5.28
5.59
4.33
1.50
-2.97
-8.95
-15.98
-23.53
-31.24
-39.18
-47.67
-56.88
-66.41
-75.14
-81.54
-84.32
-83.01
-78.27
-71.46
-64.01
-56.94
-50.68
-45.25
-40.56
-36.53
-33.14
-30.61
-28.99
-28.05
-27.73
-28.23
-29.82
-32.62
-36.19
-39.72
-42.80
-45.16
-46.54
-47.17
-47.80
-49.35
-52.70
-58.02
-64.52
-70.98
-74.96
-73.26
-63.82
-47.10
-25.89
-4.53
13.07
24.62
29.26
28.40
25.40
23.07
22.38
23.65
24.08
21.33
19.48
20.61
23.05
26.48
30.21
32.43
32.84
32.40
32.68
34.99
39.22
44.98
53.47
64.89
76.88
88.34
99.47
110.77
122.72
134.80
146.28
158.14
170.24
179.33
184.23
185.74
184.78
181.86
176.39
156.89
120.29
83.32
49.46
15.02
-19.66
-52.80
-81.81
-104.12
-117.78
-120.42
-112.45
-99.17
-84.93
-72.28
-62.80
-56.72
-53.27
-51.09
-47.57
-41.18
-33.38
-24.78
-15.18
-4.97
5.06
13.96
20.97
26.55
31.18
34.13
35.69
36.94
38.82
42.14
47.33
54.28
62.57
71.05
77.79
81.64
82.60
81.21
78.07
73.42
66.91
57.95
45.91
30.35
11.50
-9.75
-32.29
-54.91
-76.39
-95.60
-111.74
-124.50
-134.14
-141.37
-147.00
-151.52
-154.91
-156.65
-156.06
-152.62
-146.29
-137.46
-126.92
-115.59
-104.33
-93.73
-83.97
-74.82
-65.68
-55.82
-44.69
-32.14
-18.57
-4.84
8.02
19.20
28.30
35.28
40.28
43.29
44.19
42.93
39.85
35.71
31.44
27.49
23.53
18.49
11.20
1.19
-10.85
-23.36
-34.55
-43.23
-49.11
-52.58
-54.03
-53.40
-50.19
-43.82
-34.28
-22.33
-9.38
2.97
13.47
21.39
26.49
28.77
28.32
25.27
19.89
12.69
4.33
-4.52
-13.39
-22.09
-30.64
-39.05
-47.28
-55.13
-62.33
-68.58
-73.62
-77.19
-79.10
-79.31
-78.04
-75.87
-73.61
-72.10
-71.91
-73.07
-74.99
-76.51
-76.19
-72.60
-64.71
-52.20
-35.54
-16.02
4.72
25.06
43.92
61.03
76.85
92.17
107.68
123.49
139.00
153.01
164.16
171.37
174.17
172.84
168.22
161.37
153.20
144.25
134.63
124.19
112.66
99.84
85.71
70.50
54.64
38.77
23.68
10.14
-1.30
-10.50
-17.86
-24.22
-30.58
-37.70
-45.79
-54.47
-63.03
-70.64
-76.71
-80.99
-83.46
-84.34
-83.87
-82.34
-80.26
-78.31
-77.18
-77.52
-79.73
-83.72
-88.91
-94.00
-97.22
-96.85
-91.61
-80.96
-65.51
-46.79
-26.78
-7.47
9.87
24.65
36.57
45.55
51.78
55.28
55.94
54.53
51.04
45.32
36.00
22.47
4.74
-15.05
-34.31
-50.37
-61.19
-65.91
-64.65
-55.16
-38.17
-17.32
2.91
19.60
32.36
42.39
51.09
59.41
67.22
73.54
77.25
77.80
75.24
70.15
63.25
55.16
47.79
40.80
34.02
27.62
22.05
17.69
14.52
12.13
9.85
7.16
3.49
-1.38
-7.35
-13.83
-19.96
-24.80
-27.53
-28.39
-27.22
-24.13
-19.27
-12.92
-5.44
2.70
10.89
18.38
24.42
28.57
30.59
30.61
28.93
25.95
22.18
18.06
13.90
9.77
5.73
1.96
-1.45
-4.63
-7.80
-10.98
-13.85
-15.87
-16.54
-15.47
-12.13
-6.67
0.01
6.68
12.49
17.14
20.71
23.26
25.00
27.17
30.48
34.88
39.83
44.97
50.35
56.25
62.60
69.36
77.54
87.08
96.64
104.53
109.88
113.25
116.05
119.40
116.73
105.64
88.24
68.78
49.16
28.34
4.67
-22.01
-50.45
-78.35
-100.47
-113.00
-114.64
-106.61
-91.66
-73.26
-51.50
-29.26
-9.41
7.12
18.43
22.81
19.43
9.04
-6.34
-24.16
-42.37
-59.04
-71.73
-80.88
-88.03
-94.70
-101.55
-108.47
-115.06
-121.30
-127.28
-124.00
-107.70
-81.14
-51.94
-26.85
-8.58
3.69
12.08
16.39
18.93
19.16
16.15
9.77
1.10
-8.44
-17.95
-24.95
-28.70
-28.78
-26.80
-24.55
-23.42
-24.28
-27.63
-33.35
-40.21
-46.12
-48.07
-44.62
-35.51
-21.68
-4.85
12.66
28.51
40.88
48.40
50.71
47.66
40.17
30.31
20.95
14.66
12.98
16.37
24.14
35.06
46.54
55.04
57.76
54.77
48.48
42.00
37.66
36.25
37.23
39.20
41.01
42.39
44.25
47.47
52.14
57.18
60.60
60.39
55.53
47.51
37.74
28.29
20.59
14.90
10.62
6.98
3.52
0.28
-2.30
-3.86
-4.33
-4.48
-5.43
-8.13
-12.88
-19.60
-28.06
-38.38
-49.73
-59.65
-66.24
-68.53
-66.74
-61.71
-54.53
-46.16
-37.54
-29.49
-22.76
-17.99
-15.34
-15.19
-16.30
-17.53
-18.04
-17.78
-17.16
-16.88
-17.51
-19.21
-21.75
-24.57
-27.36
-28.94
-28.99
-27.40
-24.10
-18.85
-11.76
-3.73
3.85
9.33
11.82
11.59
10.29
10.23
13.63
21.09
31.27
41.80
50.37
55.98
59.03
60.98
63.40
67.75
74.20
81.58
88.28
92.70
93.94
91.54
85.21
71.37
49.45
22.44
-4.87
-28.55
-47.18
-60.87
-70.28
-75.98
-78.19
-76.32
-70.16
-61.63
-51.15
-39.43
-27.15
-15.27
-5.14
1.60
3.92
1.24
-6.44
-18.46
-33.86
-50.87
-67.72
-83.26
-96.78
-107.37
-113.96
-115.60
-111.90
-103.09
-89.61
-72.30
-52.02
-29.51
-5.33
19.66
43.75
64.25
78.73
86.14
86.87
82.54
75.55
68.46
63.78
63.41
68.11
75.27
82.19
86.46
86.70
82.81
75.29
65.05
55.94
47.23
38.43
29.95
22.78
17.96
16.23
16.48
18.62
22.48
27.27
32.76
38.67
45.01
51.53
57.65
62.48
65.17
64.32
57.94
45.07
23.40
-5.35
-35.97
-62.30
-80.15
-88.17
-87.82
-84.41
-80.44
-77.53
-76.11
-76.21
-77.79
-80.82
-83.47
-84.79
-84.49
-82.19
-78.27
-72.78
-66.16
-59.42
-53.80
-50.25
-49.24
-50.45
-52.35
-53.56
-52.47
-48.41
-41.60
-32.36
-20.06
-2.64
21.15
50.65
81.76
109.19
127.98
135.28
131.32
119.07
102.57
85.24
71.14
59.02
47.76
36.93
26.80
18.01
11.24
6.60
3.56
1.29
-1.25
-4.47
-7.88
-10.72
-12.33
-12.41
-11.31
-9.90
-9.18
-10.16
-12.81
-16.46
-20.20
-23.23
-25.11
-25.90
-26.06
-26.12
-26.63
-27.62
-28.80
-29.83
-30.30
-29.77
-27.80
-24.13
-18.68
-11.76
-3.82
4.59
12.89
20.66
27.72
33.97
39.38
43.92
47.48
50.07
51.84
53.00
53.85
54.66
55.64
56.87
58.36
60.09
62.04
64.20
66.54
68.92
71.14
72.91
74.01
74.31
73.82
72.60
70.71
68.09
64.59
59.95
53.91
46.17
36.45
24.53
10.36
-5.86
-23.56
-41.90
-59.88
-76.53
-91.03
-102.79
-111.39
-116.62
-118.50
-117.34
-113.75
-108.51
-102.34
-95.73
-88.80
-81.43
-73.40
-64.59
-55.02
-44.80
-34.01
-22.60
-10.44
2.56
16.32
30.52
44.71
58.39
71.25
83.13
93.91
103.31
110.76
115.37
116.19
112.64
104.71
93.06
78.79
62.99
46.42
29.42
12.04
-5.65
-23.33
-40.43
-56.24
-70.19
-81.94
-91.45
-98.75
-103.92
-106.95
-107.84
-106.64
-103.52
-98.74
-92.69
-85.76
-78.40
-71.08
-64.33
-58.60
-54.23
-51.35
-49.81
-49.29
-49.36
-49.66
-49.95
-50.06
-49.90
-49.36
-48.28
-46.45
-43.72
-40.05
-35.50
-30.34
-24.96
-19.81
-15.32
-11.81
-9.31
-7.65
-6.52
-5.54
-4.49
-3.35
-2.25
-1.42
-1.00
-1.03
-1.38
-1.80
-2.00
-1.79
-1.14
-0.25
0.48
0.61
-0.18
-1.91
-4.18
-6.23
-7.19
-6.35
-3.33
1.82
8.76
16.97
25.94
35.08
43.87
51.75
58.22
62.88
65.50
66.07
64.66
61.43
56.61
50.66
44.29
38.39
33.80
31.08
30.31
31.20
33.10
35.48
38.16
41.24
44.76
48.43
51.50
53.09
52.49
49.35
43.94
37.22
30.36
24.12
18.54
13.02
6.73
-0.96
-10.50
-21.69
-33.53
-44.46
-53.22
-59.06
-61.92
-62.04
-59.83
-56.46
-53.44
-52.21
-53.69
-58.13
-64.55
-70.77
-73.93
-68.64
-52.52
-28.39
-2.88
18.25
32.97
42.64
49.42
54.47
57.68
57.98
55.04
50.18
46.90
46.78
50.02
55.20
60.00
62.30
60.58
54.67
46.06
37.27
30.50
27.07
27.15
29.73
33.88
38.71
43.36
47.41
50.77
52.89
53.01
50.12
43.56
33.30
19.95
4.17
-12.57
-27.20
-36.91
-40.76
-40.20
-37.36
-35.84
-35.65
-36.06
-36.35
-36.32
-36.73
-36.93
-37.06
-36.94
-36.14
-33.94
-30.29
-25.50
-20.15
-14.92
-10.29
-6.68
-4.11
-2.55
-1.81
-1.98
-3.09
-5.01
-7.61
-10.81
-14.67
-19.10
-23.90
-28.59
-32.79
-36.23
-38.81
-40.74
-42.37
-44.03
-45.75
-47.40
-48.75
-49.69
-50.34
-50.96
-51.79
-52.97
-54.20
-54.83
-54.18
-51.70
-46.93
-39.78
-30.71
-20.62
-10.85
-2.22
4.76
9.82
12.94
14.86
16.38
17.96
19.40
19.70
18.67
16.48
13.37
9.84
7.30
7.06
9.59
14.20
18.77
22.68
26.19
30.00
35.19
43.73
56.99
75.02
96.37
117.98
138.93
159.10
178.25
188.07
181.78
158.53
125.05
97.50
78.67
68.07
64.48
64.08
64.77
66.07
68.16
71.13
74.13
74.74
72.36
67.10
59.12
49.07
38.21
27.94
19.26
11.59
2.65
-8.43
-21.75
-36.97
-53.12
-69.13
-83.56
-94.85
-103.14
-110.11
-116.56
-122.87
-129.35
-136.03
-143.57
-151.83
-159.49
-166.51
-173.85
-181.46
-189.04
-196.42
-203.50
-210.91
-217.64
-220.04
-215.33
-201.99
-178.82
-146.50
-107.81
-60.17
-7.91
35.62
69.27
96.94
120.94
143.15
164.00
182.48
196.52
203.35
202.02
194.41
181.39
158.91
126.86
89.41
53.01
22.18
-2.16
-21.57
-36.80
-48.83
-58.78
-66.55
-71.76
-72.45
-68.23
-59.53
-46.64
-29.40
-9.47
10.46
26.61
36.19
41.40
44.56
46.91
47.54
46.24
42.67
36.76
29.48
22.36
16.46
11.20
5.32
-2.17
-11.03
-20.28
-28.41
-33.55
-34.10
-29.38
-20.39
-8.89
3.20
14.48
23.96
31.22
36.41
40.26
43.68
47.27
51.51
56.76
63.32
71.19
80.10
89.59
99.15
108.21
116.01
121.62
124.03
122.24
115.48
103.51
86.84
66.75
44.79
22.31
-0.02
-22.18
-44.51
-67.10
-89.40
-110.14
-127.75
-140.92
-149.06
-152.30
-151.21
-146.42
-138.48
-127.97
-115.67
-102.56
-89.69
-77.81
-67.12
-57.27
-47.59
-37.50
-26.76
-15.53
-4.22
6.65
16.58
25.04
31.50
35.47
36.57
34.73
30.25
23.66
15.68
7.03
-1.55
-9.32
-15.60
-19.90
-22.18
-22.84
-22.66
-22.40
-22.46
-22.69
-22.47
-21.12
-18.25
-13.95
-8.68
-2.94
3.01
9.10
15.34
21.57
27.31
31.92
34.84
35.87
35.24
33.56
31.56
29.88
28.87
28.63
29.02
29.85
30.90
31.99
32.96
33.68
34.00
33.74
32.70
30.70
27.67
23.66
18.89
13.72
8.63
4.09
0.52
-1.78
-2.67
-2.26
-0.83
1.21
3.40
5.36
6.91
7.99
8.72
9.17
9.41
9.40
9.11
8.54
7.75
6.85
5.92
4.97
3.87
2.44
0.52
-1.90
-4.64
-7.39
-9.82
-11.70
-13.04
-14.03
-14.96
-16.04
-17.31
-18.62
-19.64
-20.01
-19.45
-17.79
-15.12
-11.68
-7.91
-4.31
-1.34
0.67
1.56
1.37
0.32
-1.34
-3.28
-5.26
-7.11
-8.79
-10.30
-11.68
-12.89
-13.82
-14.36
-14.40
-13.99
-13.25
-12.37
-11.55
-10.94
-10.67
-10.84
-11.47
-12.55
-13.93
-15.36
-16.54
-17.21
-17.25
-16.71
-15.80
-14.75
-13.73
-12.76
-11.73
-10.52
-9.10
-7.57
-6.17
-5.16
-4.74
-4.97
-5.80
-7.08
-8.59
-10.07
-11.19
-11.59
-10.96
-9.10
-6.00
-1.86
2.93
7.95
12.83
17.34
21.41
25.12
28.59
31.97
35.35
38.79
42.33
46.04
49.94
54.03
58.23
62.36
66.10
68.95
70.35
69.71
66.54
60.54
51.75
40.77
28.59
16.49
5.67
-2.95
-8.89
-12.18
-13.26
-12.84
-11.43
-9.40
-7.06
-4.81
-3.15
-2.55
-3.31
-5.52
-9.00
-12.93
-16.26
-18.14
-18.38
-17.34
-15.68
-14.04
-12.90
-12.44
-12.02
-10.70
-7.62
-2.39
4.99
14.46
26.02
39.64
51.67
58.39
57.80
51.11
41.34
31.08
21.37
12.10
2.81
-6.75
-15.82
-23.11
-27.39
-28.28
-26.25
-22.47
-18.38
-14.96
-12.67
-11.06
-9.45
-7.36
-5.13
-3.65
-3.94
-6.62
-11.43
-17.41
-23.04
-27.06
-28.92
-29.30
-28.57
-26.51
-23.54
-20.50
-18.40
-17.86
-18.99
-21.30
-24.22
-27.09
-29.47
-31.28
-32.55
-33.22
-32.98
-32.35
-30.51
-27.16
-22.50
-17.19
-11.96
-7.18
-2.73
1.73
6.36
11.10
15.38
18.66
20.65
21.54
21.80
21.98
22.49
23.40
24.57
25.55
25.93
25.46
24.08
21.90
19.17
16.18
13.09
9.96
6.64
2.98
-1.01
-5.08
-8.77
-11.57
-13.15
-13.53
-13.03
-12.19
-11.48
-11.18
-11.31
-11.81
-12.61
-13.73
-15.28
-17.28
-19.65
-22.13
-24.37
-26.03
-26.87
-26.78
-25.73
-23.72
-20.79
-17.08
-12.80
-8.21
-3.55
0.98
5.25
9.04
11.97
13.50
13.01
10.12
4.81
-2.48
-11.05
-20.20
-29.44
-38.59
-47.57
-56.17
-63.93
-70.09
-73.88
-74.90
-73.38
-70.11
-66.09
-62.13
-58.53
-55.15
-51.73
-48.10
-44.10
-39.37
-33.09
-24.11
-11.58
4.45
22.64
40.69
56.19
67.53
74.35
77.48
78.18
77.49
75.81
73.03
68.93
63.44
56.93
49.94
43.00
36.45
30.38
24.77
19.57
14.78
10.38
6.42
2.91
-0.14
-2.66
-4.57
-5.80
-6.36
-6.42
-6.23
-5.90
-5.46
-4.85
-3.97
-2.73
-1.02
1.33
4.57
8.96
14.77
21.92
29.84
37.53
43.96
48.47
50.94
51.83
51.84
51.99
52.93
54.77
57.14
59.46
61.18
61.78
60.77
57.81
53.42
48.59
44.49
42.03
41.44
42.08
42.66
41.67
38.10
32.52
26.31
20.87
17.05
15.11
15.05
16.89
20.76
22.09
17.75
6.78
-8.99
-26.22
-41.88
-53.91
-61.25
-64.00
-63.20
-59.73
-54.43
-48.05
-41.17
-34.38
-28.32
-23.71
-21.29
-21.53
-23.79
-26.73
-29.46
-31.23
-31.51
-29.85
-25.98
-20.19
-13.51
-7.27
-2.98
-1.80
-3.95
-8.58
-14.01
-18.44
-20.88
-21.29
-20.10
-17.83
-14.80
-10.71
-5.77
-0.58
4.02
6.98
7.50
5.43
1.27
-4.22
-10.42
-17.13
-24.45
-31.31
-36.38
-38.84
-39.09
-38.18
-37.06
-36.16
-35.41
-34.65
-33.91
-33.65
-34.50
-36.78
-40.06
-43.37
-46.33
-48.27
-49.20
-49.59
-50.16
-51.28
-52.74
-53.69
-53.22
-50.82
-46.61
-41.35
-35.93
-31.04
-26.80
-23.33
-20.33
-17.38
-14.27
-11.09
-8.22
-5.97
-4.33
-2.88
-1.00
1.95
6.21
11.56
17.48
23.42
29.08
34.49
39.85
45.35
51.10
57.12
63.31
69.63
75.99
82.21
87.95
92.69
95.94
97.37
96.90
94.69
91.06
86.28
80.62
74.34
67.73
61.17
55.00
49.48
44.68
40.53
36.89
33.67
30.92
28.69
27.09
26.22
26.05
26.43
27.14
28.07
29.35
31.26
34.09
38.02
42.97
48.53
53.95
58.33
60.86
61.07
58.91
54.57
48.67
42.14
35.94
30.80
27.09
24.68
23.10
21.58
18.88
14.45
8.77
3.17
-0.88
-2.39
-1.30
1.42
3.94
3.31
-2.29
-12.75
-26.60
-42.18
-58.35
-74.57
-90.71
-106.74
-123.76
-141.38
-157.29
-168.62
-173.72
-172.80
-167.61
-160.57
-154.10
-151.84
-155.11
-162.03
-168.75
-171.46
-167.13
-153.58
-129.47
-83.90
-18.48
52.01
109.42
143.89
155.42
149.72
134.12
115.38
98.37
83.72
71.35
62.15
57.49
57.16
60.70
66.52
72.61
77.05
76.98
71.58
62.91
54.41
48.70
46.60
47.06
48.05
47.21
42.46
33.06
20.55
7.71
-3.19
-11.33
-17.43
-22.95
-29.50
-39.66
-54.62
-73.57
-94.36
-114.85
-133.45
-149.44
-162.33
-171.88
-179.33
-185.20
-188.74
-188.24
-182.28
-170.27
-152.79
-130.71
-98.23
-55.68
-9.11
32.79
64.29
85.24
100.51
113.81
127.14
141.12
152.06
156.97
154.32
144.53
129.32
111.24
92.40
74.20
57.17
40.32
23.47
7.78
-4.30
-10.16
-7.17
5.33
24.92
46.42
63.64
72.95
73.93
70.75
65.74
60.04
53.69
46.15
37.07
26.36
14.00
1.23
-10.62
-21.19
-30.38
-38.09
-44.32
-49.06
-52.04
-52.58
-50.42
-47.59
-45.52
-45.46
-48.00
-52.77
-58.49
-63.65
-65.55
-63.18
-55.10
-42.39
-27.77
-13.81
-1.86
7.93
16.02
22.80
28.26
32.34
35.61
38.31
40.85
43.36
45.19
45.40
43.28
38.79
32.86
26.88
21.65
18.51
18.23
20.35
23.65
26.50
27.29
24.87
18.43
7.63
-7.29
-24.36
-40.61
-53.12
-60.10
-61.09
-56.69
-48.57
-39.22
-31.20
-26.41
-26.09
-29.01
-33.14
-36.34
-37.07
-34.96
-30.56
-24.65
-16.97
-8.18
1.41
11.54
21.74
31.12
39.39
46.01
50.76
53.84
55.49
56.07
55.65
54.22
52.01
47.90
41.97
34.82
27.17
19.46
11.99
4.74
-2.49
-9.84
-17.27
-24.25
-30.05
-33.93
-35.40
-34.32
-31.06
-26.26
-20.64
-14.76
-8.89
-3.19
2.13
6.80
10.57
13.26
14.88
15.57
15.57
15.06
14.03
12.31
9.70
6.06
1.32
-4.46
-10.98
-17.87
-24.67
-30.99
-36.41
-40.43
-42.61
-42.76
-40.91
-37.17
-31.88
-25.66
-19.38
-13.80
-9.41
-6.32
-4.62
-4.12
-4.15
-4.08
-3.53
-2.54
-1.35
-0.05
1.47
3.08
5.01
8.04
13.00
20.40
30.17
41.93
55.29
70.05
85.60
98.18
104.37
103.07
96.38
87.34
77.59
67.17
57.74
47.79
36.82
25.75
15.88
7.91
1.39
-5.18
-13.08
-22.78
-34.39
-46.87
-58.48
-67.70
-73.73
-76.71
-77.35
-76.37
-74.25
-71.77
-69.16
-66.24
-62.70
-58.34
-53.19
-47.40
-42.04
-36.41
-30.33
-23.73
-16.72
-9.64
-3.02
2.52
6.53
8.97
10.30
10.86
11.03
11.02
10.81
10.21
9.06
7.41
5.47
3.79
2.74
2.53
3.12
4.28
5.64
6.88
7.71
7.89
7.37
6.16
4.31
2.03
-0.45
-2.94
-5.23
-7.28
-9.32
-11.53
-14.02
-16.77
-19.59
-22.13
-23.95
-24.40
-23.17
-20.74
-17.64
-14.39
-11.51
-9.35
-8.07
-7.59
-7.23
-6.52
-6.00
-5.94
-6.29
-7.10
-8.45
-10.31
-12.32
-13.03
-11.05
-6.45
1.01
11.80
25.72
41.92
59.22
76.31
93.00
108.77
121.28
129.19
132.48
131.44
126.59
118.49
101.37
73.29
44.34
17.79
-8.10
-33.06
-56.25
-76.71
-93.69
-106.84
-115.19
-118.52
-118.73
-117.05
-113.77
-109.28
-104.02
-98.30
-92.07
-83.95
-72.83
-59.51
-44.88
-29.69
-14.83
-0.95
11.81
23.76
35.96
48.82
61.34
72.66
82.59
91.13
98.03
102.16
102.08
97.22
87.87
75.09
60.98
47.94
37.61
30.27
24.80
20.20
16.80
15.40
16.55
20.22
25.83
32.95
41.54
51.82
60.51
65.22
64.58
58.93
49.67
38.39
26.69
18.41
12.85
9.04
6.86
6.09
6.28
6.86
5.80
2.26
-4.31
-14.71
-29.15
-46.77
-64.92
-80.40
-91.06
-96.53
-97.46
-95.01
-90.62
-87.06
-84.08
-81.24
-78.51
-76.13
-74.27
-72.73
-71.37
-69.07
-65.34
-59.49
-51.24
-40.73
-28.48
-15.02
-0.64
14.51
30.23
45.95
60.93
73.55
81.78
84.07
80.26
71.96
61.95
52.97
46.65
43.40
42.33
41.98
40.94
38.40
34.10
28.07
20.18
9.98
-2.82
-18.10
-34.94
-51.60
-65.45
-73.67
-74.20
-66.88
-53.91
-38.98
-25.88
-17.14
-13.29
-12.87
-13.36
-12.32
-8.34
-0.94
9.97
24.64
43.12
63.20
80.26
89.31
88.54
80.46
69.62
59.53
50.86
41.30
27.57
7.91
-16.27
-40.65
-60.21
-71.69
-74.82
-71.95
-66.81
-62.43
-60.14
-59.77
-60.60
-62.39
-65.15
-68.00
-68.12
-61.73
-45.46
-18.84
14.41
47.35
72.54
85.20
85.21
77.60
67.35
58.97
54.52
53.48
53.90
53.68
51.41
45.82
37.34
26.20
12.98
-1.46
-15.90
-28.73
-38.41
-43.90
-45.04
-42.63
-38.54
-34.64
-32.39
-32.40
-34.16
-36.45
-37.96
-37.37
-34.22
-29.07
-22.97
-17.07
-12.12
-8.03
-4.14
0.36
5.92
12.06
17.35
20.02
18.77
13.42
5.42
-2.84
-8.87
-10.98
-8.83
-3.31
4.10
12.00
19.08
25.00
29.81
33.51
36.01
37.01
36.31
33.83
30.15
25.22
19.42
13.37
7.81
3.34
0.27
-1.48
-2.24
-2.39
-2.22
-1.67
-0.74
0.32
1.09
1.15
0.39
-0.84
-1.88
-2.15
-1.33
0.38
2.45
4.41
6.06
7.58
9.35
11.64
14.48
17.64
20.67
23.08
24.56
25.09
24.91
24.34
23.68
23.05
22.44
21.81
21.14
20.48
19.83
19.07
17.89
15.91
12.83
8.51
3.05
-3.34
-10.36
-17.80
-25.35
-32.64
-39.12
-44.12
-47.00
-47.33
-45.09
-40.63
-34.63
-27.84
-20.81
-13.74
-6.51
1.13
9.17
17.21
24.47
30.04
33.33
34.20
33.06
30.56
27.33
23.71
19.75
15.31
10.23
4.45
-2.03
-9.20
-17.07
-25.72
-35.12
-45.00
-54.69
-63.16
-69.37
-72.69
-73.31
-72.22
-70.87
-70.39
-71.02
-71.91
-71.59
-68.74
-62.88
-54.59
-45.11
-35.74
-27.21
-19.63
-12.72
-6.27
-0.36
4.70
8.62
11.47
13.70
16.02
19.06
23.18
28.31
34.02
39.68
44.76
48.94
52.29
55.18
57.97
60.77
63.24
64.71
64.47
62.15
57.99
52.64
46.85
41.15
35.58
29.99
24.29
18.76
14.00
10.64
8.89
8.35
8.14
7.36
5.61
3.25
1.28
0.82
2.58
6.47
11.70
17.07
21.48
24.19
24.87
23.51
20.28
15.49
9.71
3.80
-1.23
-4.45
-5.46
-4.53
-2.54
-0.64
0.18
-0.63
-3.01
-6.46
-10.26
-13.75
-16.46
-18.15
-18.77
-18.30
-16.70
-13.90
-9.86
-4.70
1.15
6.94
11.68
14.44
14.56
11.88
6.66
-0.56
-9.21
-18.85
-29.26
-40.39
-52.29
-65.05
-78.62
-92.69
-106.53
-118.87
-128.09
-132.62
-131.46
-124.67
-113.43
-99.66
-85.40
-72.08
-60.24
-49.57
-39.44
-29.33
-19.23
-9.52
-0.71
6.93
13.64
20.13
27.28
35.69
45.37
55.66
65.52
73.93
80.20
84.18
86.11
86.41
85.44
83.37
80.18
75.74
69.90
62.51
53.46
42.73
30.46
16.98
2.85
-11.22
-24.49
-36.24
-45.84
-52.79
-56.81
-57.82
-55.97
-51.66
-45.61
-38.96
-33.12
-29.58
-29.36
-32.49
-37.86
-43.45
-47.10
-47.32
-43.87
-37.64
-30.04
-22.25
-14.73
-7.42
-0.20
6.66
12.41
16.30
18.09
18.38
18.35
19.10
21.11
23.99
26.84
28.86
29.82
30.14
30.50
31.38
32.81
34.41
35.68
36.31
36.32
35.94
35.47
35.16
35.11
35.41
36.13
37.34
39.05
41.11
43.36
45.53
47.40
48.77
49.55
49.77
49.52
48.87
47.88
46.66
45.21
43.42
41.03
37.73
33.27
27.45
20.24
11.74
2.38
-7.36
-17.02
-26.36
-35.14
-43.06
-49.86
-55.22
-58.87
-60.50
-59.96
-57.32
-52.98
-47.32
-40.71
-33.64
-26.81
-21.66
-19.40
-20.11
-22.29
-25.10
-27.88
-29.95
-30.64
-29.22
-25.19
-18.34
-8.97
1.96
12.92
22.51
29.70
34.05
35.72
35.34
33.76
31.84
30.12
28.79
27.99
27.76
28.03
28.60
29.14
29.39
29.25
28.70
27.86
26.92
26.07
25.29
24.30
22.52
19.27
13.91
6.10
-3.99
-15.50
-26.98
-36.84
-43.79
-47.25
-47.49
-45.41
-42.05
-38.07
-33.51
-27.89
-20.71
-11.91
-1.99
8.08
17.27
24.73
29.86
32.11
30.83
25.33
15.32
1.20
-15.77
-33.78
-50.95
-65.88
-77.74
-86.14
-90.85
-91.67
-88.56
-81.88
-72.44
-61.26
-49.19
-36.70
-23.84
-10.67
2.43
14.55
24.52
31.39
34.74
34.81
32.27
27.99
22.82
17.58
12.98
9.57
7.54
6.55
5.90
4.96
3.59
2.34
2.14
3.72
7.11
11.53
15.77
18.79
20.16
20.09
19.23
18.20
17.43
17.09
17.22
17.75
18.44
18.89
18.55
16.96
13.93
9.74
5.06
0.82
-2.02
-2.58
-0.26
5.15
13.42
23.77
35.02
45.77
54.80
61.32
65.07
66.28
65.48
63.35
60.32
56.43
51.43
45.07
37.46
29.19
21.30
14.97
10.99
9.30
8.85
8.30
6.75
4.21
1.50
-0.19
0.03
2.32
5.82
8.92
10.11
8.65
4.76
-0.73
-6.63
-11.63
-14.37
-14.01
-10.67
-5.33
0.40
4.46
4.74
-0.34
-11.86
-27.83
-43.57
-54.92
-60.58
-61.57
-59.73
-56.72
-53.66
-51.05
-48.83
-46.89
-45.40
-44.55
-44.21
-43.96
-43.24
-41.48
-38.23
-33.32
-27.25
-21.24
-16.56
-13.75
-12.41
-11.49
-9.77
-6.41
-1.52
4.46
10.39
15.19
18.37
19.99
20.36
19.78
18.45
16.46
13.86
10.59
6.54
1.89
-3.19
-8.51
-13.65
-17.92
-20.74
-21.90
-21.94
-22.01
-23.00
-25.45
-29.42
-34.18
-38.55
-41.62
-42.59
-41.55
-39.32
-36.24
-32.47
-28.13
-22.97
-16.50
-8.26
1.81
13.46
25.92
39.09
52.82
63.98
69.34
67.56
60.14
50.23
43.78
41.16
41.69
44.51
48.94
52.64
54.58
54.45
52.15
47.76
41.29
33.70
26.24
20.10
16.74
15.64
16.87
20.17
24.50
27.66
27.85
24.09
16.59
6.89
-2.89
-10.87
-16.44
-19.99
-22.51
-24.30
-25.15
-24.64
-22.42
-18.56
-13.57
-8.50
-4.41
-2.07
-1.38
-1.51
-2.07
-2.85
-3.90
-5.46
-7.68
-10.35
-12.88
-14.39
-14.47
-13.22
-10.97
-7.99
-4.30
0.13
4.92
8.81
10.03
7.00
-0.51
-10.78
-20.74
-27.62
-29.87
-27.63
-22.76
-16.74
-10.81
-5.44
-0.46
4.47
8.84
11.90
13.11
12.57
11.09
9.64
8.92
8.75
8.02
4.32
-4.06
-16.80
-31.44
-44.28
-52.02
-52.90
-47.07
-34.13
-14.64
9.01
33.87
57.39
77.83
93.94
104.72
109.63
111.23
108.91
103.06
95.52
88.30
82.21
76.53
69.85
60.30
48.09
32.63
14.78
-3.74
-21.80
-39.79
-59.03
-80.44
-103.82
-128.06
-154.45
-183.21
-212.41
-238.16
-255.81
-261.18
-251.66
-227.27
-179.61
-113.36
-43.59
13.78
52.22
74.88
88.41
97.76
104.44
107.62
103.98
92.89
77.17
61.96
51.74
48.49
51.35
57.50
63.42
64.45
58.37
45.95
30.67
16.90
8.05
5.70
9.62
18.10
27.32
33.54
33.87
27.49
15.70
1.33
-12.05
-21.15
-22.07
-13.75
3.79
24.25
38.05
38.35
24.97
3.24
-20.07
-39.99
-54.83
-64.83
-70.88
-72.67
-69.18
-60.28
-47.88
-35.46
-26.33
-22.17
-22.21
-24.32
-25.69
-24.31
-20.07
-14.64
-10.19
-8.44
-9.14
-11.02
-12.88
-13.42
-11.35
-5.66
4.07
17.49
33.31
49.48
63.73
73.64
78.02
77.07
71.95
63.91
53.75
41.70
26.61
9.71
-7.54
-23.47
-36.70
-46.48
-52.91
-56.68
-58.72
-60.52
-61.75
-62.18
-61.64
-60.06
-57.60
-54.70
-51.80
-49.23
-46.94
-44.09
-40.16
-34.83
-28.05
-19.97
-11.27
-2.81
4.74
10.93
16.07
20.27
23.63
26.37
28.74
30.98
33.01
34.67
35.74
36.77
38.17
40.19
42.97
46.26
49.55
52.04
53.30
53.27
52.72
51.85
49.91
45.75
38.27
27.29
13.56
-1.00
-18.00
-36.58
-54.62
-70.03
-81.52
-88.82
-90.51
-87.25
-79.98
-70.01
-58.01
-44.33
-31.13
-19.32
-8.99
1.07
11.60
22.87
34.33
45.74
56.80
67.23
77.16
86.71
96.90
107.65
117.83
125.51
129.53
129.86
127.63
124.75
122.92
124.25
128.81
134.85
139.58
141.01
138.49
132.32
123.10
102.27
67.67
23.97
-19.92
-57.19
-85.54
-106.12
-121.37
-133.45
-143.37
-149.40
-151.20
-147.95
-140.26
-129.62
-117.71
-105.93
-95.32
-86.32
-77.72
-68.41
-57.67
-45.56
-32.85
-20.31
-8.60
1.34
8.14
10.98
9.02
2.14
-8.86
-21.78
-33.18
-39.36
-38.09
-29.61
-16.16
-1.37
11.62
21.15
27.61
31.09
32.60
33.16
33.10
32.20
30.12
27.41
24.97
23.31
22.18
20.75
18.10
13.88
9.49
5.59
3.13
2.62
3.74
5.63
7.35
8.08
7.42
5.60
3.19
1.08
0.03
-0.26
0.08
0.98
2.30
4.00
6.16
8.68
11.44
14.24
16.99
20.01
24.00
29.42
36.52
44.89
52.92
58.22
58.31
51.79
39.21
22.97
6.01
-8.73
-19.30
-25.49
-28.50
-30.15
-32.08
-35.34
-40.55
-48.56
-59.15
-70.73
-80.71
-86.44
-86.33
-80.37
-70.18
-54.76
-36.60
-19.56
-6.02
4.37
13.40
22.17
30.41
36.85
39.84
37.66
30.06
18.48
5.31
-7.19
-17.92
-26.82
-34.46
-41.19
-47.11
-51.28
-52.57
-51.62
-49.10
-46.55
-45.10
-44.57
-43.52
-40.34
-33.69
-23.16
-9.49
5.76
20.37
32.03
38.63
38.37
30.26
14.91
-5.42
-27.47
-47.86
-64.27
-75.65
-81.23
-80.98
-75.38
-65.40
-52.44
-38.45
-25.45
-15.21
-8.58
-5.24
-4.13
-3.81
-3.07
-1.28
1.65
5.53
10.14
15.22
20.49
25.39
29.45
32.15
32.99
31.64
28.18
23.16
17.45
11.85
6.84
3.05
0.66
-0.66
-1.43
-1.96
-2.19
-1.88
-0.91
0.67
3.98
9.96
18.84
29.98
42.30
54.73
66.26
76.03
83.47
90.39
98.55
108.53
119.57
130.27
139.55
146.62
150.93
152.35
153.71
157.66
165.25
175.72
187.48
199.29
210.47
220.60
213.87
181.92
127.52
62.86
0.23
-53.64
-96.19
-126.59
-144.71
-151.61
-147.42
-134.21
-116.25
-97.52
-81.06
-68.09
-59.06
-54.03
-52.78
-52.64
-50.92
-46.00
-37.83
-27.44
-16.41
-7.23
-1.99
-1.42
-3.34
-5.03
-4.63
-1.75
2.89
8.04
10.89
9.09
1.70
-9.97
-24.14
-39.37
-54.56
-68.88
-81.61
-94.07
-107.50
-122.05
-136.52
-150.16
-162.96
-175.43
-187.72
-187.66
-167.90
-130.63
-86.59
-47.01
-18.88
-3.75
1.18
1.45
2.94
8.06
16.48
25.07
32.77
38.86
43.40
47.13
50.92
54.88
57.33
56.89
53.83
50.25
48.56
50.49
55.91
62.43
64.95
58.06
40.37
15.83
-9.10
-30.75
-47.39
-59.27
-65.84
-67.71
-65.74
-60.46
-52.19
-41.53
-29.67
-17.85
-7.19
1.53
7.85
11.86
14.06
14.82
14.11
11.55
7.11
0.95
-6.58
-15.23
-24.63
-34.36
-44.16
-53.92
-63.47
-71.91
-78.26
-81.61
-81.33
-76.97
-68.09
-54.83
-38.15
-19.55
-0.08
19.08
36.81
52.33
65.29
76.17
85.42
93.03
98.79
103.37
107.09
109.78
111.17
110.98
110.03
109.09
108.47
108.03
108.32
108.86
108.13
104.49
96.66
85.42
72.15
58.29
37.28
8.31
-24.04
-53.20
-72.29
-83.66
-89.78
-92.17
-92.43
-91.19
-87.60
-81.43
-73.46
-65.02
-57.54
-50.89
-44.56
-38.10
-31.35
-23.49
-14.30
-4.07
6.82
18.03
30.08
43.09
56.43
68.81
79.67
88.90
96.74
103.60
109.59
115.04
119.91
123.94
126.19
126.21
123.86
118.96
111.15
99.97
85.87
70.23
55.12
41.23
29.12
19.30
12.03
6.89
2.78
-1.03
-4.46
-6.76
-9.30
-13.18
-18.41
-24.29
-30.61
-38.42
-49.19
-64.05
-83.30
-109.33
-142.83
-181.56
-221.14
-257.24
-287.40
-310.59
-326.73
-318.25
-278.26
-216.09
-151.38
-99.37
-64.49
-44.05
-32.68
-25.50
-19.39
-15.84
-16.04
-18.61
-21.80
-21.49
-16.24
-7.12
3.61
13.98
21.09
24.12
24.82
26.11
30.04
36.41
44.22
51.99
59.01
64.13
67.18
68.85
69.99
70.70
69.82
65.96
58.40
47.71
34.82
21.83
10.73
2.36
-3.97
-9.97
-16.75
-23.73
-28.79
-29.89
-25.61
-16.89
-6.35
3.69
12.94
23.36
37.36
55.69
76.13
95.57
110.18
117.27
116.63
110.93
104.57
101.77
105.12
114.75
129.92
147.36
162.43
171.16
172.19
166.73
156.80
143.21
115.33
69.81
13.04
-42.05
-84.29
-109.13
-118.49
-118.33
-115.39
-114.28
-114.62
-113.97
-110.32
-103.46
-94.70
-85.84
-78.29
-73.00
-69.32
-65.26
-59.62
-52.77
-46.46
-42.62
-42.11
-44.13
-46.68
-47.62
-45.30
-40.12
-34.46
-31.31
-32.36
-37.04
-42.51
-45.00
-41.61
-31.44
-16.20
0.83
16.53
29.64
39.23
46.12
52.34
59.41
66.88
72.42
73.45
68.89
59.83
48.56
37.56
28.07
19.79
11.54
2.62
-6.42
-13.98
-18.28
-18.36
-14.30
-7.34
0.65
7.97
13.82
18.28
21.81
24.59
26.15
25.82
23.07
17.97
11.33
4.54
-0.93
-4.02
-4.39
-2.49
0.79
4.49
7.72
9.84
10.58
9.94
8.10
5.42
2.57
0.00
-1.71
-2.19
-1.44
0.12
1.82
2.86
2.81
1.69
-0.10
-2.05
-3.77
-5.20
-6.54
-8.06
-10.12
-12.50
-14.52
-15.28
-13.95
-10.16
-4.13
3.28
10.81
16.64
19.47
18.71
14.49
7.73
-0.22
-7.86
-14.05
-18.24
-21.22
-23.96
-27.30
-31.85
-37.55
-43.91
-50.19
-55.82
-57.07
-54.11
-48.76
-43.56
-40.76
-41.09
-43.37
-44.84
-42.25
-33.34
-18.55
-0.29
17.55
30.81
37.62
37.73
32.39
23.89
14.95
7.95
5.42
9.95
22.20
40.63
61.51
79.97
91.48
93.27
84.73
67.54
44.35
17.94
-10.11
-37.17
-59.40
-72.29
-72.00
-57.20
-29.73
6.79
43.80
74.25
94.20
102.21
97.92
81.20
52.47
14.07
-29.18
-71.04
-105.01
-128.40
-140.03
-140.94
-133.40
-119.71
-101.69
-81.19
-60.70
-42.50
-26.87
-14.78
-4.64
6.30
20.05
36.48
53.17
66.33
73.33
73.79
69.61
64.14
60.43
60.08
62.87
67.80
72.24
74.38
73.11
68.03
59.44
47.97
34.53
19.85
5.89
-6.19
-15.48
-21.55
-24.52
-24.85
-23.47
-21.57
-20.23
-19.99
-21.12
-23.22
-25.66
-27.97
-29.95
-31.76
-33.70
-35.89
-38.02
-39.76
-40.61
-40.25
-38.74
-36.50
-34.08
-31.97
-30.63
-29.41
-27.74
-24.95
-20.62
-14.89
-8.36
-1.92
3.70
8.16
11.62
14.24
16.12
17.03
16.57
14.52
11.10
7.01
3.17
0.38
-1.08
-1.24
-0.38
1.20
3.17
5.14
6.49
6.59
4.96
1.43
-3.68
-9.66
-15.61
-20.69
-24.20
-25.72
-25.24
-23.15
-20.32
-17.72
-16.07
-15.53
-15.64
-15.48
-14.08
-10.74
-5.18
2.14
10.42
18.69
26.14
32.21
36.55
38.92
39.11
36.99
32.54
26.02
17.97
9.11
0.23
-8.06
-15.34
-21.45
-26.36
-30.08
-32.56
-33.74
-33.64
-32.44
-30.47
-28.14
-25.84
-23.84
-22.27
-21.07
-20.01
-18.75
-16.87
-13.91
-9.47
-3.31
4.50
13.54
23.12
32.46
40.85
47.79
53.00
56.39
57.89
57.46
55.04
50.67
44.49
36.85
28.20
19.08
10.07
1.79
-5.28
-10.75
-14.45
-16.37
-16.57
-15.15
-12.19
-7.72
-1.78
5.30
12.93
20.31
26.75
31.81
35.41
37.70
39.20
40.49
41.92
43.40
44.53
44.90
44.20
42.16
38.63
33.79
27.93
21.05
12.74
2.34
-10.47
-25.39
-41.52
-57.23
-70.22
-78.07
-79.09
-72.88
-60.19
-42.30
-20.55
3.78
26.95
44.64
54.59
58.41
59.70
60.99
62.75
64.08
63.69
61.13
57.03
52.43
47.79
42.46
35.05
24.21
10.65
-6.35
-25.76
-45.13
-61.44
-72.15
-76.21
-73.96
-67.18
-58.46
-50.74
-45.90
-44.50
-45.82
-48.48
-51.10
-51.93
-49.87
-44.84
-37.96
-30.57
-23.70
-17.75
-12.36
-6.75
0.18
8.60
17.52
25.24
30.67
33.93
36.00
38.34
42.12
48.33
56.71
65.93
74.29
80.57
84.18
84.55
80.92
69.03
47.98
21.14
-5.77
-28.28
-44.43
-54.04
-58.35
-58.98
-57.50
-54.43
-50.23
-45.49
-40.81
-37.60
-35.19
-32.97
-30.44
-27.28
-22.91
-17.32
-11.08
-5.15
-0.25
3.56
6.38
8.48
10.09
11.99
14.18
16.08
16.95
16.35
14.48
11.72
8.57
5.38
2.41
-0.40
-3.29
-6.47
-9.94
-13.37
-16.52
-19.17
-21.27
-22.79
-23.90
-24.73
-25.38
-25.86
-26.05
-25.92
-25.50
-24.87
-24.14
-23.46
-22.89
-22.47
-22.22
-22.07
-21.92
-21.50
-20.41
-18.19
-14.52
-9.35
-2.98
4.00
10.83
16.83
21.54
24.78
26.58
27.05
26.35
24.61
22.05
18.92
15.57
12.35
9.48
7.06
5.00
3.18
1.52
0.02
-1.16
-1.86
-1.94
-1.39
-0.36
0.91
2.13
3.05
3.49
3.38
2.77
1.83
0.81
0.05
-0.11
0.64
2.49
5.41
9.15
13.26
17.18
20.39
22.54
23.43
23.01
21.31
18.37
14.29
9.28
3.71
-1.88
-6.96
-11.06
-14.00
-15.86
-16.89
-17.35
-17.48
-17.41
-17.25
-17.08
-17.02
-17.18
-17.61
-18.25
-18.95
-19.57
-20.02
-20.28
-20.33
-20.13
-19.47
-18.09
-15.75
-12.31
-7.85
-2.67
2.74
7.84
12.12
15.26
17.12
17.77
17.34
16.02
13.98
11.41
8.54
5.65
2.99
0.73
-1.07
-2.47
-3.54
-4.36
-4.89
-5.12
-5.05
-4.76
-4.33
-3.84
-3.30
-2.71
-2.14
-1.74
-1.74
-2.32
-3.53
-5.17
-6.87
-8.22
-8.82
-8.46
-7.07
-4.76
-1.72
1.77
5.39
8.82
11.74
13.91
15.19
15.57
15.10
13.93
12.21
10.14
7.91
5.71
3.68
1.93
0.48
-0.72
-1.74
-2.66
-3.51
-4.23
-4.77
-5.06
-5.08
-4.79
-4.20
-3.35
-2.27
-1.05
0.27
1.74
3.54
5.97
9.35
13.78
19.04
24.58
29.73
33.90
36.68
37.89
37.70
36.38
34.12
30.96
26.84
21.74
15.74
8.98
1.71
-5.44
-11.71
-16.53
-19.73
-21.60
-22.63
-23.44
-24.54
-26.31
-28.29
-29.70
-29.86
-28.62
-26.40
-23.83
-21.56
-20.03
-19.33
-18.43
-15.79
-10.06
-0.64
12.24
27.88
45.45
64.32
79.70
87.17
84.74
74.28
59.92
45.62
34.19
27.41
26.04
29.44
36.08
43.53
49.09
50.58
46.96
38.29
25.19
8.16
-12.44
-35.40
-58.49
-78.81
-93.47
-100.38
-98.74
-89.12
-73.27
-53.67
-32.73
-12.65
4.57
17.47
25.20
27.81
26.12
21.45
15.18
8.69
3.12
-0.76
-2.39
-1.65
1.17
5.10
8.81
10.86
10.40
7.48
2.50
-3.71
-10.56
-17.75
-25.11
-32.02
-37.35
-39.76
-38.22
-33.42
-26.97
-21.10
-16.92
-14.67
-13.68
-12.92
-11.74
-10.02
-7.98
-5.65
-2.94
0.17
3.25
5.62
6.70
6.62
6.30
7.07
10.05
15.16
21.19
26.28
29.09
29.30
27.53
24.74
21.07
16.44
10.80
4.72
-0.84
-4.37
-4.77
-2.14
2.23
6.49
9.33
10.66
11.56
12.98
15.62
19.22
22.72
24.92
25.16
23.44
20.19
15.80
9.84
2.28
-6.49
-15.64
-24.24
-31.44
-37.08
-41.63
-42.18
-39.33
-34.67
-29.80
-25.86
-23.41
-22.51
-23.23
-25.37
-28.51
-32.56
-36.82
-40.22
-41.77
-42.08
-40.40
-36.94
-32.37
-27.35
-22.68
-18.44
-14.35
-10.16
-5.90
-1.69
1.97
4.86
7.26
9.51
12.34
16.54
22.33
29.39
37.01
44.10
49.66
53.10
54.10
52.77
49.50
44.88
39.55
34.11
28.84
23.84
19.15
14.59
9.84
4.54
-1.39
-7.47
-12.76
-16.16
-16.75
-14.25
-9.44
-3.62
0.46
0.23
-4.73
-12.72
-21.55
-29.69
-36.62
-42.36
-47.93
-52.81
-55.81
-55.67
-51.89
-44.92
-35.90
-26.22
-16.98
-8.43
-0.92
5.49
11.02
15.84
20.02
23.54
26.35
28.49
29.98
30.93
31.45
31.64
31.41
30.42
28.31
24.82
19.93
13.86
7.09
0.19
-6.29
-11.99
-16.76
-20.58
-23.52
-25.69
-27.26
-28.46
-29.57
-30.80
-32.22
-33.64
-34.60
-34.46
-32.57
-28.53
-22.36
-14.55
-5.98
2.32
9.44
14.87
18.56
20.86
22.26
23.15
23.64
23.62
22.94
21.58
19.82
18.11
16.87
16.31
16.30
16.57
16.77
16.70
16.30
15.54
14.38
12.75
10.61
8.04
5.33
2.81
0.75
-0.81
-2.10
-3.47
-5.24
-7.46
-9.83
-11.78
-12.61
-11.74
-8.93
-4.34
1.49
7.82
13.92
19.19
23.25
25.83
26.84
26.33
24.48
21.63
18.22
14.68
11.36
8.54
6.39
5.01
4.39
4.36
4.60
4.75
4.50
3.73
2.50
1.01
-0.57
-2.18
-3.86
-5.70
-7.75
-10.02
-12.45
-14.97
-17.53
-19.96
-22.03
-23.33
-23.40
-21.81
-18.36
-13.25
-6.96
-0.25
6.10
11.49
15.60
18.36
19.87
20.24
19.60
18.04
15.72
12.93
10.05
7.43
5.32
3.80
2.75
1.97
1.26
0.52
-0.27
-1.05
-1.76
-2.42
-3.07
-3.83
-4.77
-5.91
-7.19
-8.42
-9.38
-9.94
-10.09
-10.02
-10.04
-10.52
-11.71
-13.65
-16.10
-18.62
-20.67
-21.72
-21.43
-19.67
-16.58
-12.51
-7.89
-3.19
1.21
4.99
7.92
9.88
10.85
10.92
10.22
8.98
7.43
5.78
4.27
3.09
2.34
2.06
2.13
2.37
2.63
2.84
3.04
3.34
3.84
4.50
5.20
5.76
6.01
5.83
5.20
4.17
2.88
1.52
0.31
-0.66
-1.38
-2.03
-2.77
-3.78
-5.11
-6.72
-8.50
-10.28
-11.80
-12.70
-12.56
-11.04
-8.02
-3.74
1.24
6.18
10.43
13.57
15.52
16.47
16.69
16.46
15.89
15.03
13.87
12.46
10.89
9.32
7.87
6.59
5.46
4.46
3.61
2.98
2.60
2.39
2.17
1.69
0.75
-0.68
-2.44
-4.32
-6.10
-7.64
-8.93
-10.02
-11.00
-11.97
-13.10
-14.50
-16.21
-18.09
-19.79
-20.83
-20.74
-19.25
-16.35
-12.35
-7.77
-3.11
1.17
4.80
7.66
9.72
11.00
11.52
11.37
10.71
9.81
8.96
8.39
8.22
8.41
8.89
9.53
10.23
10.88
11.37
11.55
11.35
10.72
9.71
8.40
6.91
5.26
3.49
1.60
-0.37
-2.37
-4.37
-6.42
-8.54
-10.80
-13.10
-15.21
-16.74
-17.29
-16.55
-14.40
-11.04
-6.89
-2.53
1.52
4.91
7.49
9.32
10.51
11.17
11.31
10.91
9.95
8.53
6.81
5.01
3.34
1.89
0.77
-0.01
-0.42
-0.43
-0.08
0.46
1.00
1.33
1.32
0.99
0.45
-0.15
-0.72
-1.28
-1.89
-2.65
-3.55
-4.56
-5.55
-6.42
-7.12
-7.71
-8.36
-9.26
-10.56
-12.23
-14.02
-15.52
-16.24
-15.78
-13.97
-10.90
-6.88
-2.42
1.95
5.72
8.50
10.06
10.36
9.56
7.91
5.73
3.28
0.75
-1.74
-4.09
-6.19
-7.88
-8.97
-9.33
-8.92
-7.82
-6.20
-4.27
-2.17
0.04
2.33
4.64
6.77
8.47
9.48
9.65
9.07
8.02
6.89
5.99
5.46
5.24
5.12
4.82
4.11
2.89
1.21
-0.71
-2.50
-3.78
-4.26
-3.79
-2.43
-0.39
2.05
4.59
6.98
9.02
10.60
11.64
12.13
12.09
11.56
10.57
9.13
7.27
5.06
2.65
0.26
-1.89
-3.66
-5.06
-6.21
-7.28
-8.38
-9.55
-10.77
-12.01
-13.31
-14.80
-16.62
-18.84
-21.43
-24.23
-27.00
-29.58
-31.93
-34.21
-36.67
-39.58
-43.04
-46.90
-50.74
-54.00
-56.13
-56.78
-55.94
-53.85
-50.96
-47.71
-44.44
-41.39
-38.70
-36.47
-34.72
-33.41
-32.39
-31.40
-30.21
-28.73
-27.03
-25.33
-23.81
-22.44
-20.93
-18.84
-15.72
-11.33
-5.67
1.15
8.92
17.32
26.05
34.86
43.53
51.88
59.77
67.15
74.14
80.84
87.10
92.51
96.65
99.17
100.04
99.37
97.43
94.64
91.17
86.83
81.34
74.67
67.15
59.15
50.89
42.33
34.17
26.95
20.76
15.26
10.22
5.68
1.92
-0.67
-1.61
1.20
8.97
21.02
35.07
48.86
61.05
71.14
79.09
84.93
91.37
100.17
110.85
121.12
129.04
133.86
135.68
134.87
131.81
130.46
133.68
141.50
151.72
162.52
173.58
185.28
197.76
188.16
145.24
76.45
2.34
-60.29
-105.10
-132.88
-147.34
-152.80
-153.37
-148.85
-139.26
-126.66
-114.81
-106.46
-102.08
-100.26
-98.50
-94.25
-82.99
-62.53
-34.45
-3.31
26.32
51.69
70.88
83.43
89.99
93.58
96.90
101.13
106.11
111.52
117.14
122.26
125.27
123.64
115.67
100.60
78.98
52.72
24.37
-4.20
-32.74
-62.13
-93.21
-125.15
-155.61
-181.80
-201.52
-213.38
-216.15
-208.21
-187.65
-153.78
-108.76
-58.25
-10.21
27.79
51.21
59.66
55.93
43.81
25.99
3.39
-24.18
-56.90
-93.93
-133.18
-171.82
-207.18
-237.90
-264.53
-289.52
-316.30
-347.51
-383.43
-421.21
-455.54
-480.63
-492.36
-489.47
-473.39
-446.72
-411.77
-369.92
-321.61
-267.20
-207.76
-145.45
-82.91
-22.04
36.87
94.76
151.87
206.71
255.72
294.14
317.86
325.94
322.06
313.73
309.20
313.03
324.66
339.58
351.83
356.56
351.61
337.32
315.04
285.46
247.22
199.23
143.05
83.49
26.87
-21.23
-57.74
-82.85
-92.80
-86.91
-70.48
-51.84
-36.53
-25.99
-19.73
-16.83
-16.38
-17.16
-18.91
-21.50
-24.37
-27.24
-29.50
-30.77
-30.52
-28.06
-22.58
-14.56
-5.16
4.78
15.26
25.33
34.19
41.56
47.40
51.83
54.03
52.97
48.16
40.15
29.63
17.65
6.13
-4.31
-12.28
-16.17
-14.66
-7.21
5.52
20.79
35.06
44.92
48.44
46.22
40.65
34.75
29.20
25.27
21.46
16.85
10.82
3.73
-2.88
-7.43
-9.28
-8.74
-6.36
-2.85
1.67
6.94
12.47
17.56
21.86
24.54
25.19
24.16
21.75
18.42
14.14
8.92
3.04
-2.99
-8.76
-14.05
-18.99
-24.42
-29.75
-34.91
-39.70
-43.77
-46.79
-48.66
-49.40
-49.13
-47.96
-45.81
-42.70
-38.46
-32.97
-26.35
-19.05
-11.68
-4.89
0.86
5.50
9.09
11.94
14.38
16.56
18.36
19.48
19.62
18.67
16.70
13.97
11.05
8.51
6.69
5.67
5.34
5.54
6.12
6.89
7.58
7.95
7.66
6.32
3.61
-0.39
-5.18
-9.79
-13.47
-15.60
-15.85
-14.45
-12.18
-10.05
-8.71
-8.13
-7.57
-6.81
-5.36
-2.37
2.71
9.61
17.26
24.44
30.40
35.58
39.98
45.43
55.42
72.91
97.94
126.95
154.01
172.58
177.71
164.74
133.99
91.38
45.60
3.93
-29.83
-55.49
-75.67
-93.95
-116.73
-146.50
-180.09
-211.57
-236.74
-254.65
-266.53
-274.15
-255.94
-204.58
-132.95
-62.42
-6.51
30.87
50.98
57.93
56.37
52.07
45.38
36.37
26.70
18.54
12.57
7.88
5.08
3.87
4.10
2.70
-2.16
-9.75
-17.90
-24.97
-30.16
-32.93
-32.99
-30.01
-25.74
-21.47
-17.10
-11.88
-5.53
1.66
9.32
17.13
25.29
33.39
41.52
50.29
60.27
71.31
82.58
93.12
102.02
108.87
113.24
115.17
115.25
114.56
114.22
115.15
117.79
121.79
126.08
129.04
129.09
125.04
116.58
104.46
90.50
77.19
66.77
60.31
57.08
54.58
49.72
40.31
26.34
10.08
-4.95
-15.60
-20.48
-20.19
-16.46
-10.93
-4.38
3.11
11.33
19.17
24.68
25.84
21.55
12.20
-0.50
-14.41
-27.87
-40.12
-51.24
-61.59
-71.52
-81.29
-91.39
-102.62
-116.06
-132.52
-151.97
