1697360469.00
64.000000
-0.00
-0.00
-0.00
-0.00
-0.00
-0.00
-0.00
-0.00
-0.00
-0.00
0.00
0.01
0.01
-0.00
-0.03
-0.05
-0.05
0.00
0.13
0.36
0.66
1.01
1.37
1.72
2.06
2.40
2.79
3.24
3.80
4.42
5.06
5.66
6.20
6.68
7.15
7.68
8.31
9.14
10.09
11.04
11.88
12.56
13.14
13.76
14.65
15.96
17.91
20.32
22.90
25.38
27.58
29.57
31.68
34.32
37.81
42.54
48.15
54.10
59.83
64.97
69.58
74.14
79.34
85.71
93.76
103.00
112.62
121.73
129.77
136.75
143.30
150.75
157.78
166.65
177.95
191.78
206.96
220.56
228.26
225.40
208.59
176.91
132.74
79.91
22.77
-35.40
-93.01
-149.79
-205.85
-260.95
-314.28
-364.43
-410.48
-451.69
-487.43
-516.78
-538.29
-550.23
-550.90
-539.29
-515.23
-479.96
-435.53
-384.47
-329.29
-272.14
-214.79
-158.61
-104.87
-54.60
-8.85
31.62
66.44
95.65
119.59
138.72
153.44
163.99
170.61
173.56
173.37
170.81
166.77
162.00
156.83
151.13
144.46
136.38
126.79
116.13
105.28
95.16
86.42
79.12
72.74
66.51
59.65
51.59
41.95
30.75
18.71
7.65
0.39
-0.10
8.00
24.05
44.80
65.33
80.89
88.65
88.45
82.27
72.87
62.62
52.89
44.29
37.22
32.08
29.13
28.15
28.22
28.08
26.63
23.37
18.69
13.52
8.96
5.68
3.92
3.26
2.92
2.11
0.28
-2.68
-6.30
-9.50
-10.69
-8.36
-1.89
7.77
18.08
25.70
27.96
24.11
15.70
5.84
-2.26
-6.69
-7.36
-5.53
-2.80
-0.23
1.94
3.94
5.91
7.61
8.49
8.07
6.31
3.49
0.38
-2.28
-4.04
-4.95
-5.50
-6.38
-8.08
-10.57
-13.22
-15.00
-15.01
-12.87
-9.00
-4.48
-0.54
1.87
2.54
1.89
0.75
-0.14
-0.47
-0.39
-0.29
-0.48
-0.95
-1.33
-1.17
-0.20
1.45
3.31
4.86
5.74
5.97
5.79
5.60
5.56
5.58
5.39
4.50
2.59
-0.30
-3.86
-7.49
-10.51
-12.35
-12.57
-11.01
-7.85
-3.51
1.28
5.69
8.96
10.56
10.43
8.82
6.26
3.28
0.26
-2.54
-5.04
-7.21
-9.00
-10.34
-11.22
-11.68
-11.84
-11.83
-11.70
-11.45
-10.99
-10.29
-9.40
-8.53
-8.02
-8.23
-9.31
-11.14
-13.21
-14.75
-14.98
-13.40
-9.98
-5.24
-0.14
4.20
6.81
7.12
5.08
1.18
-3.85
-9.19
-14.23
-18.62
-22.22
-25.01
-26.93
-27.94
-28.09
-27.56
-26.74
-26.08
-25.96
-26.52
-27.54
-28.45
-28.54
-27.33
-24.85
-21.68
-18.73
-16.71
-15.72
-15.06
-13.45
-9.63
-2.96
6.25
16.81
27.17
36.02
42.68
47.27
50.37
52.67
54.58
56.15
57.22
57.61
57.26
56.21
54.53
52.16
48.96
44.77
39.56
33.55
27.13
20.71
14.50
8.49
2.43
-3.92
-10.59
-17.17
-22.82
-26.43
-26.99
-23.88
-17.22
-7.86
2.79
13.09
21.59
27.27
29.70
28.96
25.55
20.21
13.79
7.12
0.87
-4.53
-8.89
-12.28
-14.87
-16.79
-18.11
-18.77
-18.72
-18.00
-16.81
-15.61
-15.03
-15.81
-18.48
-23.14
-29.26
-35.62
-40.61
-42.59
-40.49
-34.14
-24.33
-12.58
-0.65
9.95
18.21
23.70
26.37
26.42
24.15
20.03
14.65
8.74
2.99
-2.07
-6.26
-9.69
-12.66
-15.38
-17.87
-19.90
-21.14
-21.37
-20.69
-19.54
-18.56
-18.41
-19.40
-21.30
-23.31
-24.21
-22.72
-17.92
-9.59
1.69
14.63
27.60
38.98
47.56
52.68
54.35
53.01
49.39
44.22
38.13
31.58
24.87
18.21
11.77
5.70
0.17
-4.69
-8.73
-11.92
-14.25
-15.90
-17.11
-18.30
-19.87
-22.11
-24.98
-27.90
-29.85
-29.54
-25.89
-18.39
-7.43
5.80
19.61
32.27
42.47
49.49
53.17
53.76
51.71
47.53
41.82
35.22
28.35
21.76
15.77
10.48
5.81
1.62
-2.09
-5.26
-7.83
-9.96
-12.06
-14.66
-18.19
-22.79
-28.25
-34.15
-39.94
-45.02
-48.68
-50.03
-48.19
-42.60
-33.33
-21.27
-7.93
5.01
16.22
25.03
31.34
35.40
37.45
37.65
36.06
32.77
27.99
22.01
15.17
7.76
0.08
-7.53
-14.63
-20.80
-25.76
-29.51
-32.38
-34.93
-37.77
-41.32
-45.74
-50.83
-56.05
-60.52
-63.13
-62.68
-58.18
-49.18
-36.00
-19.84
-2.52
13.95
27.86
38.14
44.49
47.21
47.02
44.76
41.19
36.94
32.42
27.88
23.47
19.31
15.53
12.23
9.51
7.35
5.59
3.91
1.92
-0.82
-4.66
-9.82
-16.16
-23.08
-29.45
-33.70
-34.30
-30.18
-21.28
-8.65
5.79
19.89
31.85
40.68
46.22
48.82
49.01
47.19
43.70
38.87
33.20
27.32
21.82
17.04
12.91
9.12
5.28
1.29
-2.59
-5.81
-7.84
-8.47
-8.02
-7.27
-7.28
-9.00
-12.91
-18.75
-25.49
-31.50
-35.02
-34.78
-30.47
-22.87
-13.63
-4.72
2.21
6.23
7.26
5.84
2.83
-0.95
-4.82
-8.38
-11.42
-13.93
-16.08
-18.11
-20.21
-22.42
-24.57
-26.32
-27.35
-27.52
-26.94
-25.99
-25.15
-24.92
-25.65
-27.51
-30.39
-33.81
-36.87
-38.31
-36.83
-31.45
-22.02
-9.40
4.77
18.48
30.03
38.46
43.60
45.89
46.00
44.59
42.17
39.14
35.84
32.60
29.66
27.15
25.10
23.51
22.52
22.36
23.32
25.53
28.79
32.46
35.59
37.17
36.55
33.63
28.99
23.80
19.45
17.20
17.84
21.40
27.25
34.22
40.98
46.29
49.33
49.77
47.73
43.65
38.09
31.56
24.42
16.92
9.18
1.32
-6.54
-14.33
-21.97
-29.48
-36.79
-43.78
-50.22
-55.80
-60.24
-63.46
-65.60
-67.06
-68.28
-69.56
-70.79
-71.40
-70.45
-67.00
-60.42
-50.78
-38.85
-25.88
-13.24
-2.02
7.21
14.30
19.35
22.50
23.88
23.64
22.02
19.45
16.43
13.39
10.51
7.70
4.69
1.20
-2.88
-7.33
-11.68
-15.37
-18.00
-19.52
-20.26
-20.81
-21.73
-23.23
-25.07
-26.58
-26.86
-25.04
-20.49
-13.02
-2.93
9.03
21.76
33.98
44.51
52.48
57.49
59.59
59.21
56.94
53.45
49.31
44.94
40.57
36.18
31.57
26.42
20.60
14.20
7.64
1.48
-3.82
-8.12
-11.68
-15.07
-18.94
-23.72
-29.46
-35.67
-41.36
-45.23
-46.04
-42.95
-35.92
-25.76
-13.97
-2.37
7.48
14.58
18.67
20.15
19.74
18.23
16.24
14.08
11.78
9.21
6.19
2.62
-1.40
-5.62
-9.66
-13.08
-15.48
-16.59
-16.39
-15.07
-13.08
-10.93
-9.10
-7.86
-7.24
-6.98
-6.58
-5.35
-2.47
2.76
10.73
21.26
33.53
46.24
57.99
67.66
74.77
79.51
82.55
84.69
86.58
88.46
90.11
90.95
90.19
87.06
81.07
72.18
60.81
47.80
34.10
20.59
7.88
-3.73
-14.22
-23.77
-32.68
-41.27
-49.83
-58.45
-66.84
-74.37
-80.02
-82.72
-81.66
-76.63
-68.16
-57.48
-46.09
-35.41
-26.38
-19.34
-14.14
-10.38
-7.64
-5.72
-4.57
-4.26
-4.82
-6.20
-8.23
-10.74
-13.63
-16.83
-20.31
-23.99
-27.65
-30.99
-33.73
-35.79
-37.38
-39.03
-41.30
-44.51
-48.35
-51.84
-53.50
-51.87
-46.02
-36.02
-22.86
-8.22
6.08
18.55
28.30
34.99
38.72
39.74
38.47
35.41
31.20
26.54
22.08
18.18
14.87
11.88
8.82
5.44
1.74
-2.05
-5.62
-8.73
-11.40
-13.88
-16.60
-19.98
-24.25
-29.28
-34.51
-38.95
-41.39
-40.68
-36.15
-27.80
-16.43
-3.48
9.42
20.77
29.50
35.03
37.29
36.53
33.27
28.27
22.39
16.50
11.21
6.80
3.16
-0.03
-3.12
-6.19
-9.13
-11.62
-13.42
-14.49
-15.03
-15.48
-16.35
-18.11
-21.07
-25.24
-30.27
-35.35
-39.34
-40.96
-39.18
-33.54
-24.43
-12.96
-0.76
10.50
19.53
25.62
28.73
29.31
28.03
25.51
22.24
18.54
14.62
10.66
6.86
3.36
0.25
-2.42
-4.62
-6.25
-7.17
-7.26
-6.58
-5.46
-4.53
-4.47
-5.78
-8.48
-11.99
-15.15
-16.58
-15.08
-10.07
-1.80
8.68
19.86
30.16
38.44
44.19
47.46
48.66
48.21
46.39
43.27
38.86
33.31
26.89
20.01
13.08
6.39
0.06
-5.84
-11.21
-15.86
-19.53
-22.07
-23.59
-24.57
-25.70
-27.65
-30.62
-34.15
-37.19
-38.36
-36.49
-31.06
-22.40
-11.55
0.05
11.01
20.24
27.16
31.56
33.54
33.32
31.18
27.48
22.70
17.39
12.11
7.23
2.83
-1.30
-5.53
-10.10
-14.97
-19.71
-23.77
-26.68
-28.35
-29.12
-29.58
-30.35
-31.78
-33.89
-36.27
-38.28
-39.07
-37.81
-33.78
-26.64
-16.50
-4.05
9.59
23.09
35.23
45.03
51.93
55.75
56.62
54.96
51.43
46.76
41.69
36.73
32.09
27.77
23.63
19.59
15.65
11.88
8.30
4.79
1.17
-2.75
-7.07
-11.75
-16.73
-21.91
-27.15
-32.19
-36.56
-39.59
-40.51
-38.67
-33.82
-26.23
-16.73
-6.59
2.81
10.26
14.99
16.74
15.75
12.54
7.80
2.18
-3.66
-9.10
-13.48
-16.30
-17.25
-16.42
-14.29
-11.56
-8.91
-6.77
-5.22
-4.05
-3.02
-2.01
-1.18
-0.96
-1.77
-3.82
-6.80
-9.86
-11.80
-11.40
-7.91
-1.24
7.98
18.65
29.60
39.83
48.64
55.52
60.17
62.39
62.19
59.90
56.04
51.27
46.10
40.76
35.25
29.43
23.20
16.60
9.83
3.13
-3.25
-9.14
-14.53
-19.59
-24.74
-30.50
-37.36
-45.42
-54.22
-62.74
-69.62
-73.65
-74.12
-71.05
-65.16
-57.53
-49.20
-40.96
-33.19
-26.04
-19.53
-13.71
-8.70
-4.60
-1.47
0.68
1.89
2.19
1.65
0.42
-1.25
-3.00
-4.51
-5.65
-6.52
-7.44
-8.85
-11.11
-14.37
-18.52
-23.28
-28.21
-32.77
-36.33
-38.21
-37.80
-34.70
-28.90
-20.79
-11.14
-0.90
9.05
18.03
25.74
32.19
37.66
42.51
47.04
51.40
55.47
58.97
61.58
63.00
63.10
61.93
59.67
56.56
52.80
48.53
43.79
38.53
32.67
26.09
18.73
10.58
1.70
-7.68
-17.14
-25.92
-33.06
-37.52
-38.56
-36.02
-30.58
-23.49
-16.28
-10.21
-5.90
-3.32
-1.95
-1.14
-0.40
0.51
1.64
2.99
4.61
6.55
8.83
11.40
14.06
16.60
18.86
20.78
22.42
23.76
24.68
24.84
23.76
21.02
16.40
10.15
2.94
-4.19
-10.09
-13.70
-14.34
-11.83
-6.55
0.66
8.66
16.28
22.49
26.56
28.19
27.45
24.78
20.77
16.12
11.43
7.06
3.13
-0.47
-3.91
-7.25
-10.38
-13.00
-14.84
-15.77
-15.96
-15.85
-15.98
-16.78
-18.41
-20.71
-23.14
-25.02
-25.57
-24.17
-20.53
-14.68
-7.08
1.55
10.39
18.59
25.48
30.54
33.45
34.08
32.52
29.06
24.22
18.61
12.91
7.57
2.80
-1.42
-5.28
-8.95
-12.42
-15.53
-18.05
-19.85
-21.03
-21.98
-23.23
-25.23
-28.24
-32.18
-36.62
-40.88
-44.06
-45.19
-43.41
-38.19
-29.56
-18.21
-5.42
7.25
18.29
26.64
31.86
34.17
34.22
32.87
30.89
28.80
26.84
25.01
23.18
21.22
19.02
16.41
13.22
9.16
4.05
-2.07
-8.84
-15.70
-22.15
-28.00
-33.44
-38.88
-44.47
-49.79
-53.83
-55.25
-52.96
-46.65
-36.96
-25.31
-13.37
-2.54
6.33
13.03
17.75
20.80
22.47
22.93
22.31
20.77
18.53
15.82
12.83
9.70
6.53
3.40
0.43
-2.33
-4.90
-7.39
-10.02
-13.07
-16.73
-21.11
-26.08
-31.25
-35.83
-38.70
-38.63
-34.63
-26.34
-14.35
-0.12
14.38
27.23
37.11
43.48
46.57
46.94
45.19
41.80
37.10
31.45
25.28
19.03
13.00
7.27
1.67
-4.00
-9.84
-15.64
-20.95
-25.29
-28.28
-29.93
-30.62
-31.01
-31.78
-33.30
-35.47
-37.58
-38.51
-37.07
-32.40
-24.35
-13.51
-1.05
11.58
23.02
32.28
38.86
42.67
43.95
43.10
40.63
37.03
32.80
28.37
24.12
20.26
16.82
13.71
10.76
7.84
4.95
2.22
-0.14
-2.00
-3.46
-4.82
-6.55
-9.08
-12.57
-16.78
-21.04
-24.39
-25.79
-24.38
-19.74
-11.96
-1.73
9.84
21.45
31.81
39.91
45.19
47.49
47.07
44.43
40.16
34.88
29.14
23.41
18.01
13.06
8.53
4.30
0.28
-3.53
-7.02
-10.04
-12.55
-14.66
-16.67
-18.98
-22.03
-26.09
-31.15
-36.81
-42.21
-46.18
-47.41
-44.89
-38.18
-27.66
-14.53
-0.50
12.63
23.41
30.97
35.11
36.09
34.47
30.86
25.88
20.05
13.87
7.80
2.17
-2.81
-7.06
-10.61
-13.48
-15.62
-16.91
-17.27
-16.77
-15.72
-14.72
-14.45
-15.47
-17.88
-21.16
-24.20
-25.59
-24.05
-18.87
-10.20
1.03
13.38
25.32
35.60
43.46
48.57
50.99
50.94
48.78
44.98
40.06
34.51
28.76
22.98
17.20
11.29
5.21
-0.90
-6.69
-11.71
-15.58
-18.15
-19.67
-20.71
-22.00
-24.21
-27.65
-32.11
-36.75
-40.29
-41.31
-38.71
-32.05
-21.81
-9.19
4.11
16.36
26.22
32.84
35.98
35.81
32.85
27.83
21.58
14.90
8.45
2.64
-2.49
-7.15
-11.61
-16.05
-20.45
-24.56
-28.05
-30.65
-32.31
-33.22
-33.80
-34.57
-35.98
-38.18
-40.82
-43.06
-43.66
-41.34
-35.21
-25.14
-11.88
3.13
18.16
31.66
42.57
50.41
55.18
57.12
56.62
54.12
50.17
45.37
40.30
35.32
30.57
25.92
21.18
16.27
11.27
6.42
2.00
-1.85
-5.20
-8.36
-11.81
-16.05
-21.40
-27.78
-34.60
-40.70
-44.52
-44.51
-39.59
-29.52
-15.16
1.78
19.05
34.47
46.39
53.95
57.15
56.60
53.21
47.98
41.77
35.26
28.91
22.97
17.42
12.13
6.87
1.48
-4.03
-9.48
-14.58
-19.11
-23.00
-26.48
-29.95
-33.89
-38.69
-44.41
-50.65
-56.52
-60.73
-61.90
-58.93
-51.39
-39.77
-25.29
-9.63
5.57
19.09
30.29
39.00
45.32
49.42
51.52
51.83
50.69
48.42
45.31
41.50
36.98
31.70
25.67
19.10
12.38
6.04
0.58
-3.67
-6.64
-8.56
-9.92
-11.39
-13.60
-17.01
-21.65
-26.97
-31.90
-35.05
-35.07
-31.14
-23.26
-12.33
0.08
12.21
22.62
30.44
35.44
37.85
38.08
36.52
33.51
29.33
24.28
18.67
12.82
6.97
1.24
-4.25
-9.37
-13.87
-17.43
-19.80
-20.95
-21.22
-21.26
-21.81
-23.40
-26.20
-29.90
-33.86
-37.24
-39.20
-38.97
-35.99
-30.03
-21.34
-10.74
0.50
10.97
19.54
25.59
29.17
30.74
30.91
30.14
28.63
26.36
23.26
19.26
14.45
9.02
3.27
-2.44
-7.79
-12.48
-16.39
-19.51
-22.01
-24.19
-26.41
-29.08
-32.53
-36.85
-41.76
-46.46
-49.70
-50.15
-46.79
-39.30
-28.28
-15.00
-0.99
12.42
24.34
34.28
42.00
47.33
50.16
50.54
48.87
45.81
42.15
38.52
35.18
32.04
28.79
25.12
20.93
16.35
11.74
7.47
3.78
0.59
-2.51
-6.17
-10.96
-17.00
-23.73
-29.92
-34.03
-34.70
-31.32
-24.20
-14.59
-4.17
5.38
12.78
17.40
19.20
18.63
16.44
13.59
10.99
9.42
9.25
10.34
12.00
13.23
13.10
11.07
7.24
2.28
-2.86
-7.28
-10.47
-12.41
-13.48
-14.32
-15.52
-17.48
-20.34
-23.89
-27.61
-30.71
-32.31
-31.61
-28.21
-22.22
-14.35
-5.71
2.46
9.13
13.70
16.14
16.78
16.16
14.69
12.56
9.74
6.13
1.80
-2.89
-7.32
-10.83
-13.01
-13.96
-14.20
-14.51
-15.48
-17.32
-19.79
-22.42
-24.77
-26.58
-27.70
-27.92
-26.80
-23.73
-18.26
-10.34
-0.53
10.17
20.64
29.97
37.54
42.91
45.61
45.07
40.86
32.97
22.10
9.64
-2.76
-13.71
-22.43
-28.91
-33.61
-37.08
-39.69
-41.57
-42.76
-43.35
-43.67
-44.17
-45.24
-47.09
-49.56
-52.19
-54.27
-54.99
-53.63
-49.69
-43.11
-34.24
-23.85
-12.95
-2.53
6.63
14.03
19.54
23.28
25.51
26.57
26.73
26.23
25.21
23.75
21.96
19.92
17.76
15.61
13.57
11.72
10.11
8.74
7.56
6.38
4.91
2.76
-0.39
-4.58
-9.37
-13.81
-16.63
-16.58
-12.88
-5.51
4.71
16.34
27.75
37.52
44.76
49.18
50.96
50.53
48.36
44.85
40.35
35.15
29.55
23.79
18.07
12.44
6.86
1.23
-4.54
-10.40
-16.17
-21.60
-26.52
-30.92
-35.00
-39.10
-43.43
-47.81
-51.55
-53.51
-52.44
-47.40
-38.25
-25.71
-11.23
3.45
16.83
27.97
36.51
42.54
46.26
47.82
47.34
44.98
41.03
36.00
30.43
24.81
19.37
14.13
8.98
3.84
-1.23
-6.05
-10.47
-14.49
-18.38
-22.58
-27.45
-32.96
-38.45
-42.66
-44.08
-41.42
-34.16
-22.81
-8.81
5.90
19.41
30.32
37.99
42.43
44.09
43.54
41.38
38.15
34.38
30.53
26.98
23.91
21.26
18.87
16.53
14.17
11.86
9.79
8.04
6.53
4.95
2.89
-0.01
-3.86
-8.35
-12.80
-16.19
-17.43
-15.69
-10.69
-2.79
7.02
17.48
27.34
35.67
41.98
46.09
48.00
47.86
45.86
42.38
37.93
33.08
28.28
23.76
19.51
15.44
11.56
8.04
5.15
3.07
1.79
1.00
0.31
-0.65
-2.04
-3.82
-5.79
-7.69
-9.21
-10.00
-9.59
-7.50
-3.35
2.90
10.82
19.58
28.13
35.58
41.43
45.59
48.30
49.85
50.43
50.00
48.51
45.87
42.16
37.56
32.30
26.62
20.72
14.82
9.12
3.83
-0.97
-5.32
-9.49
-13.87
-18.87
-24.69
-31.12
-37.53
-42.87
-46.01
-46.07
-42.72
-36.34
-27.96
-18.94
-10.62
-4.04
0.31
2.39
2.61
1.56
-0.11
-1.95
-3.70
-5.41
-7.25
-9.42
-12.04
-15.09
-18.46
-22.03
-25.69
-29.35
-32.91
-36.23
-39.21
-41.82
-44.18
-46.46
-48.84
-51.25
-53.20
-53.87
-52.24
-47.47
-39.33
-28.33
-15.68
-2.96
8.43
17.56
24.17
28.57
31.29
32.86
33.53
33.31
32.02
29.47
25.58
20.44
14.30
7.59
0.83
-5.42
-10.65
-14.50
-16.86
-18.00
-18.45
-18.96
-20.21
-22.62
-26.19
-30.49
-34.76
-38.09
-39.60
-38.69
-35.08
-28.93
-20.76
-11.38
-1.72
7.26
14.71
19.90
22.31
21.75
18.47
13.27
7.38
2.25
-0.80
-0.94
1.98
7.35
13.93
20.08
24.15
24.93
22.05
16.03
8.16
-0.06
-7.46
-13.59
-18.69
-23.30
-27.72
-31.56
-33.81
-33.26
-29.09
-21.29
-10.72
1.21
12.97
23.37
31.60
37.22
40.00
39.81
36.80
31.46
24.66
17.50
10.89
5.33
0.76
-3.37
-7.72
-12.79
-18.74
-25.33
-32.08
-38.49
-44.24
-49.28
-53.86
-58.37
-63.15
-68.28
-73.44
-77.89
-80.59
-80.48
-76.81
-69.43
-58.86
-46.24
-32.99
-20.45
-9.56
-0.75
5.94
10.69
13.69
15.09
15.05
13.88
12.09
10.32
9.13
8.90
9.68
11.22
13.11
14.93
16.34
17.20
17.46
17.10
15.94
13.73
10.21
5.39
-0.23
-5.60
-9.30
-10.02
-6.92
-0.04
9.76
21.00
32.07
41.60
48.76
53.20
55.00
54.51
52.14
48.33
43.57
38.32
33.04
28.09
23.65
19.68
15.99
12.34
8.62
4.93
1.57
-1.12
-2.93
-3.90
-4.40
-5.06
-6.61
-9.58
-14.14
-19.92
-26.05
-31.27
-34.30
-34.14
-30.37
-23.25
-13.54
-2.34
9.18
19.93
29.00
35.69
39.57
40.51
38.70
34.63
28.95
22.38
15.49
8.72
2.38
-3.34
-8.29
-12.33
-15.37
-17.37
-18.42
-18.72
-18.67
-18.84
-19.91
-22.48
-26.83
-32.73
-39.28
-45.05
-48.32
-47.57
-41.90
-31.32
-16.83
-0.16
16.63
31.64
43.43
51.34
55.43
56.34
54.99
52.30
48.91
45.12
40.98
36.40
31.38
26.05
20.64
15.41
10.58
6.26
2.54
-0.53
-3.05
-5.25
-7.59
-10.63
-14.85
-20.37
-26.77
-33.06
-37.87
-39.76
-37.64
-31.07
-20.46
-6.97
7.74
21.87
33.96
43.07
48.82
51.30
50.80
47.73
42.54
35.78
28.16
20.42
13.20
6.85
1.34
-3.62
-8.35
-13.04
-17.61
-21.80
-25.41
-28.46
-31.27
-34.40
-38.38
-43.46
-49.40
-55.41
-60.30
-62.67
-61.38
-55.81
-46.12
-33.28
-18.80
-4.36
8.61
19.15
26.85
31.74
34.07
34.17
32.46
29.42
25.62
21.72
18.22
15.41
13.18
11.21
9.11
6.70
4.09
1.66
-0.18
-1.21
-1.56
-1.63
-2.05
-3.44
-6.23
-10.49
-15.81
-21.23
-25.40
-26.79
-24.16
-16.98
-5.66
8.47
23.56
37.68
49.30
57.54
62.14
63.30
61.50
57.38
51.64
45.01
38.19
31.71
25.90
20.76
16.16
11.83
7.61
3.45
-0.54
-4.19
-7.41
-10.26
-13.02
-16.09
-19.90
-24.66
-30.20
-35.78
-40.12
-41.68
-39.07
-31.60
-19.67
-4.75
10.99
25.32
36.54
43.81
47.14
47.08
44.41
39.84
33.99
27.40
20.47
13.51
6.69
0.02
-6.47
-12.70
-18.45
-23.39
-27.17
-29.60
-30.77
-31.07
-31.21
-32.03
-34.17
-37.89
-42.77
-47.75
-51.35
-52.06
-48.85
-41.45
-30.44
-17.07
-2.90
10.55
22.09
30.96
36.74
39.28
38.67
35.25
29.69
22.92
16.01
9.92
5.27
2.20
0.40
-0.62
-1.37
-2.18
-3.18
-4.35
-5.69
-7.27
-9.28
-12.00
-15.65
-20.32
-25.83
-31.70
-37.15
-41.20
-42.80
-41.01
-35.29
-25.71
-12.99
1.47
15.89
28.47
37.74
42.92
43.99
41.56
36.65
30.34
23.51
16.73
10.30
4.33
-1.13
-6.04
-10.35
-13.98
-16.90
-19.14
-20.82
-22.15
-23.43
-25.11
-27.67
-31.50
-36.68
-42.76
-48.66
-52.90
-53.95
-50.72
-42.98
-31.47
-17.75
-3.69
8.98
19.14
26.36
30.90
33.43
34.69
35.23
35.20
34.32
32.07
27.93
21.73
13.74
4.76
-4.21
-12.17
-18.38
-22.47
-24.40
-24.41
-23.00
-20.86
-18.91
-18.02
-18.76
-21.00
-23.75
-25.33
-23.87
-18.02
-7.57
6.39
21.82
36.26
47.71
55.05
58.15
57.65
54.49
49.54
43.39
36.47
29.09
21.62
14.48
7.97
2.21
-2.93
-7.67
-12.20
-16.51
-20.38
-23.62
-26.23
-28.56
-31.20
-34.74
-39.42
-44.82
-49.82
-52.85
-52.30
-47.07
-37.04
-23.04
-6.73
9.93
25.10
37.48
46.32
51.34
52.67
50.74
46.34
40.59
34.74
29.83
26.43
24.42
23.17
21.90
20.03
17.47
14.56
11.83
9.64
7.96
6.30
3.95
0.24
-5.14
-11.96
-19.41
-26.23
-30.93
-32.16
-29.02
-21.26
-9.42
5.32
21.36
37.04
50.89
61.92
69.55
73.65
74.40
72.19
67.57
61.21
53.79
45.96
38.22
30.96
24.36
18.53
13.45
9.02
5.05
1.32
-2.46
-6.55
-11.22
-16.74
-23.37
-31.25
-40.34
-50.14
-59.70
-67.54
-71.95
-71.41
-65.07
-53.19
-37.18
-19.37
-2.35
11.68
21.46
26.78
28.20
26.70
23.22
18.48
12.99
7.21
1.55
-3.61
-7.98
-11.50
-14.37
-16.89
-19.36
-21.92
-24.49
-26.90
-28.99
-30.80
-32.64
-34.91
-37.88
-41.31
-44.27
-45.34
-43.01
-36.34
-25.36
-11.17
4.35
19.13
31.44
40.26
45.29
46.79
45.26
41.33
35.62
28.75
21.36
14.02
7.16
0.98
-4.53
-9.49
-13.98
-17.93
-21.11
-23.29
-24.40
-24.69
-24.77
-25.41
-27.32
-30.75
-35.33
-39.95
-42.95
-42.55
-37.42
-27.16
-12.53
4.64
22.05
37.41
49.02
55.98
58.20
56.23
51.05
43.88
35.95
28.30
21.55
15.85
10.97
6.57
2.49
-1.15
-4.02
-5.84
-6.57
-6.60
-6.59
-7.36
-9.63
-13.78
-19.65
-26.50
-32.96
-37.32
-37.96
-33.81
-24.74
-11.69
3.60
19.00
32.50
42.68
48.82
50.89
49.42
45.17
39.04
31.79
24.02
16.16
8.44
1.01
-6.01
-12.49
-18.21
-22.92
-26.43
-28.62
-29.58
-29.61
-29.17
-28.80
-28.99
-29.98
-31.63
-33.32
-34.04
-32.71
-28.46
-20.97
-10.60
1.72
14.69
27.03
37.62
45.69
50.84
53.07
52.72
50.41
46.88
42.79
38.51
34.04
29.13
23.51
17.10
10.14
3.22
-2.98
-7.93
-11.52
-14.06
-16.19
-18.61
-21.81
-26.01
-31.08
-36.62
-41.94
-46.05
-47.74
-45.82
-39.59
-29.24
-15.95
-1.63
11.66
22.37
29.82
34.13
35.87
35.66
33.92
30.88
26.83
22.18
17.51
13.36
10.06
7.66
5.98
4.74
3.70
2.69
1.55
0.14
-1.76
-4.32
-7.73
-12.05
-17.21
-22.82
-28.11
-31.93
-32.96
-30.14
-23.15
-12.68
-0.29
12.04
22.61
30.37
35.07
36.99
36.58
34.23
30.23
24.91
18.72
12.23
6.00
0.38
-4.50
-8.69
-12.26
-15.23
-17.58
-19.29
-20.47
-21.39
-22.47
-24.18
-26.88
-30.62
-34.99
-39.05
-41.54
-41.23
-37.36
-29.92
-19.77
-8.36
2.68
12.02
18.87
23.05
24.80
24.60
22.95
20.34
17.20
13.92
10.87
8.33
6.38
4.93
3.75
2.54
1.08
-0.65
-2.53
-4.37
-6.02
-7.59
-9.37
-11.72
-14.84
-18.53
-22.10
-24.51
-24.68
-21.84
-15.84
-7.19
3.03
13.49
22.93
30.37
35.25
37.35
36.78
33.85
29.00
22.82
15.98
9.21
3.22
-1.49
-4.77
-6.83
-8.14
-9.14
-10.08
-10.85
-11.24
-11.09
-10.58
-10.18
-10.51
-12.06
-14.93
-18.73
-22.62
-25.55
-26.48
-24.64
-19.77
-12.21
-2.92
6.77
15.47
22.08
25.98
27.12
25.84
22.73
18.42
13.54
8.68
4.26
0.57
-2.37
-4.76
-6.89
-8.99
-11.10
-13.07
-14.69
-15.85
-16.64
-17.32
-18.26
-19.74
-21.91
-24.71
-27.84
-30.75
-32.65
-32.61
-29.81
-23.79
-14.74
-3.49
8.57
19.91
29.24
35.80
39.46
40.65
40.07
38.44
36.27
33.81
31.09
28.03
24.61
20.88
17.03
13.29
9.83
6.68
3.79
1.01
-1.81
-4.86
-8.31
-12.43
-17.55
-23.91
-31.46
-39.66
-47.33
-52.94
-55.03
-52.71
-46.13
-36.48
-25.60
-15.46
-7.54
-2.59
-0.60
-1.12
-3.58
-7.46
-12.31
-17.73
-23.29
-28.58
-33.25
-37.12
-40.15
-42.38
-43.79
-44.32
-43.83
-42.27
-39.79
-36.82
-34.05
-32.18
-31.75
-32.77
-34.58
-35.93
-35.27
-31.24
-23.14
-11.18
3.57
19.44
34.70
47.91
58.07
64.70
67.67
67.21
63.88
58.56
52.32
46.16
40.68
35.94
31.54
26.99
22.02
16.83
12.01
8.24
5.93
4.99
4.84
4.60
3.35
0.46
-4.26
-10.43
-17.12
-22.92
-26.28
-25.81
-20.73
-11.13
1.96
16.86
31.62
44.52
54.37
60.66
63.44
63.15
60.45
56.09
50.86
45.48
40.47
36.07
32.18
28.49
24.66
20.51
16.13
11.81
7.89
4.55
1.69
-1.08
-4.40
-8.90
-15.05
-22.87
-31.83
-40.79
-48.26
-52.64
-52.68
-47.89
-38.63
-26.06
-11.91
2.01
14.13
23.35
29.16
31.55
30.89
27.80
22.97
17.07
10.70
4.34
-1.71
-7.25
-12.13
-16.20
-19.26
-21.12
-21.63
-20.79
-18.82
-16.15
-13.44
-11.49
-11.11
-12.90
-16.91
-22.47
-28.09
-31.84
-31.84
-26.92
-17.07
-3.41
12.07
27.22
40.27
50.25
56.94
60.64
61.83
60.91
58.19
53.93
48.42
41.98
34.94
27.56
19.96
12.24
4.54
-2.77
-9.24
-14.35
-17.86
-19.96
-21.33
-22.93
-25.76
-30.33
-36.47
-43.12
-48.63
-51.19
-49.40
-42.72
-31.67
-17.58
-2.27
12.43
25.04
34.56
40.45
42.65
41.41
37.35
31.35
24.37
17.28
10.64
4.63
-0.87
-6.09
-11.12
-15.87
-20.08
-23.59
-26.42
-28.95
-31.73
-35.33
-40.09
-46.05
-52.83
-59.69
-65.52
-68.98
-68.66
-63.46
-52.99
-37.80
-19.48
-0.21
17.72
32.51
43.14
49.46
51.89
51.21
48.31
44.02
39.12
34.24
29.79
25.92
22.50
19.26
15.93
12.41
8.79
5.29
2.13
-0.59
-2.98
-5.32
-8.01
-11.41
-15.56
-20.15
-24.34
-26.95
-26.69
-22.61
-14.43
-2.75
11.06
25.26
38.15
48.47
55.55
59.22
59.59
56.92
51.58
44.10
35.24
25.91
17.00
9.12
2.50
-3.06
-7.93
-12.49
-16.97
-21.38
-25.59
-29.49
-33.04
-36.33
-39.65
-43.40
-48.02
-53.80
-60.57
-67.50
-73.16
-75.79
-73.89
-66.77
-54.88
-39.72
-23.38
-7.91
5.18
15.12
21.81
25.49
26.57
25.53
22.94
19.52
16.06
13.21
11.28
10.15
9.39
8.50
7.17
5.42
3.54
1.91
0.79
0.11
-0.48
-1.52
-3.56
-6.91
-11.38
-16.22
-20.14
-21.69
-19.65
-13.47
-3.49
9.13
22.75
35.71
46.72
54.97
60.16
62.33
61.71
58.70
53.83
47.77
41.26
34.91
29.13
24.03
19.54
15.52
11.88
8.67
5.96
3.79
2.04
0.47
-1.32
-3.75
-7.18
-11.82
-17.58
-23.97
-30.01
-34.39
-35.77
-33.16
-26.34
-15.95
-3.35
9.74
21.73
31.44
38.24
42.00
42.90
41.33
37.76
32.73
26.79
20.46
14.16
8.15
2.52
-2.82
-7.99
-13.05
-17.90
-22.29
-25.87
-28.41
-29.92
-30.74
-31.48
-32.83
-35.14
-38.23
-41.24
-42.76
-41.29
-35.72
-25.78
-12.25
3.32
19.06
33.22
44.61
52.63
57.20
58.48
56.75
52.35
45.77
37.66
28.83
20.06
11.86
4.40
-2.52
-9.29
-16.25
-23.46
-30.68
-37.40
-43.06
-47.23
-49.81
-51.03
-51.41
-51.57
-51.99
-52.75
-53.39
-52.88
-50.01
-43.80
-33.90
-20.82
-5.76
9.67
23.91
35.64
43.90
48.13
48.17
44.31
37.33
28.45
19.01
10.17
2.61
-3.57
-8.63
-12.89
-16.49
-19.31
-21.08
-21.72
-21.43
-20.82
-20.71
-21.89
-24.85
-29.65
-35.88
-42.63
-48.60
-52.22
-51.95
-46.69
-36.15
-21.16
-3.45
14.72
31.17
44.29
53.38
58.48
60.13
59.05
55.85
51.08
45.23
38.87
32.60
26.93
22.17
18.24
14.80
11.33
7.40
2.86
-2.18
-7.48
-12.85
-18.31
-24.11
-30.64
-38.29
-47.14
-56.84
-66.45
-74.53
-79.38
-79.53
-74.15
-63.35
-48.19
-30.39
-11.83
5.78
21.20
33.67
42.91
49.02
52.51
54.14
54.71
54.79
54.51
53.59
51.57
48.12
43.30
37.58
31.60
25.87
20.47
15.07
9.12
2.08
-6.34
-15.91
-25.93
-35.25
-42.39
-45.91
-44.75
-38.58
-27.95
-14.15
1.16
16.36
30.16
41.63
50.10
54.96
55.73
52.17
44.60
33.97
21.79
9.68
-0.97
-9.41
-15.53
-19.77
-22.80
-25.30
-27.73
-30.33
-33.13
-36.07
-39.10
-42.31
-45.96
-50.44
-56.12
-63.23
-71.66
-80.89
-89.97
-97.55
-102.13
-102.34
-97.30
-87.03
-72.48
-55.42
-37.97
-22.06
-9.01
0.60
6.87
10.28
11.40
10.82
9.03
6.49
3.65
0.88
-1.56
-3.61
-5.33
-6.83
-8.25
-9.62
-10.88
-11.97
-12.92
-13.92
-15.38
-17.74
-21.22
-25.41
-29.16
-30.71
-28.17
-20.19
-6.52
11.79
32.61
53.40
71.88
86.57
96.93
103.11
105.68
105.27
102.57
98.33
93.47
88.94
85.54
83.67
83.20
83.53
83.87
83.52
82.08
79.46
75.79
71.20
65.68
59.10
51.28
42.22
32.32
22.54
14.26
8.96
7.71
10.70
17.08
25.16
32.91
38.57
41.10
40.23
36.28
29.82
21.50
11.97
1.95
-7.76
-16.43
-23.59
-29.20
-33.55
-37.04
-39.92
-42.14
-43.46
-43.73
-43.09
-42.02
-41.09
-40.69
-40.90
-41.56
-42.53
-43.83
-45.54
-47.42
-48.58
-47.41
-42.14
-31.53
-15.60
4.19
25.42
45.56
62.75
76.09
85.53
91.34
93.74
92.80
88.60
81.43
71.95
60.94
49.09
36.74
23.87
10.26
-4.21
-19.42
-34.89
-49.87
-63.44
-74.65
-82.75
-87.32
-88.43
-86.59
-82.62
-77.26
-70.82
-63.04
-53.18
-40.51
-24.86
-7.10
10.97
26.96
38.68
44.74
44.92
40.06
31.70
21.60
11.26
1.70
-6.57
-13.42
-18.94
-23.26
-26.56
-29.05
-30.97
-32.59
-34.07
-35.45
-36.64
-37.59
-38.47
-39.77
-42.18
-46.29
-52.17
-59.07
-65.44
-69.27
-68.70
-62.57
-50.89
-34.78
-16.26
2.39
19.12
32.52
41.98
47.60
49.85
49.44
47.04
43.28
38.72
33.87
29.19
24.99
21.44
18.53
16.21
14.39
13.05
12.10
11.38
10.47
8.73
5.48
0.28
-6.76
-14.77
-22.18
-27.03
-27.57
-22.84
-13.03
0.48
15.52
29.72
41.19
48.89
52.67
52.93
50.31
45.37
38.55
30.32
21.30
12.19
3.66
-3.95
-10.66
-16.77
-22.66
-28.52
-34.29
-39.62
-44.17
-47.74
-50.45
-52.70
-55.07
-58.06
-61.85
-66.15
-70.10
-72.47
-71.90
-67.29
-58.23
-45.15
-29.34
-12.63
3.01
15.93
25.18
30.60
32.69
32.36
30.64
28.42
26.38
24.91
24.23
24.40
25.38
27.04
29.15
31.39
33.40
34.84
35.41
34.87
33.00
29.64
24.71
18.34
11.01
3.65
-2.42
-5.72
-4.98
0.44
10.20
22.99
36.76
49.24
58.53
63.60
64.33
61.44
56.04
49.26
41.94
34.56
27.28
20.14
13.17
6.53
0.54
-4.44
-8.07
-10.29
-11.35
-11.86
-12.66
-14.62
-18.36
-24.00
-31.04
-38.30
-44.18
-46.96
-45.24
-38.38
-26.77
-11.86
4.23
19.14
30.94
38.52
41.69
41.08
37.77
32.82
27.08
21.02
14.81
8.49
2.13
-4.10
-9.93
-15.06
-19.19
-22.10
-23.73
-24.15
-23.63
-22.64
-21.81
-21.82
-23.10
-25.61
-28.59
-30.58
-29.79
-24.68
-14.62
-0.22
16.82
34.08
49.20
60.49
67.22
69.52
68.10
63.88
57.65
50.01
41.41
32.19
22.70
13.29
4.25
-4.15
-11.71
-18.27
-23.70
-27.92
-30.96
-33.01
-34.47
-35.96
-38.16
-41.59
-46.32
-51.67
-56.19
-57.97
-55.22
-46.94
-33.41
-16.19
2.26
19.34
32.93
41.79
45.62
44.80
40.13
32.63
23.37
13.36
3.46
-5.71
-13.81
-20.73
-26.53
-31.30
-35.11
-37.96
-39.87
-40.88
-41.17
-41.05
-41.00
-41.62
-43.38
-46.45
-50.41
-54.18
-56.10
-54.35
-47.48
-35.07
-17.90
2.02
22.08
39.73
53.21
61.79
65.75
65.96
63.52
59.39
54.37
49.07
43.94
39.32
35.29
31.77
28.54
25.39
22.29
19.47
17.25
15.92
15.45
15.39
14.89
12.92
8.64
1.80
-6.99
-16.22
-23.70
-27.20
-25.08
-16.88
-3.52
12.97
30.02
45.30
57.16
64.85
68.31
67.87
64.09
57.60
49.20
39.77
30.21
21.22
13.13
5.94
-0.53
-6.45
-11.81
-16.43
-20.09
-22.65
-24.25
-25.29
-26.45
-28.52
-32.27
-38.06
-45.59
-53.70
-60.51
-63.97
-62.46
-55.37
-43.39
-28.28
-12.38
2.08
13.42
20.77
23.99
23.48
19.89
14.04
6.78
-1.06
-8.75
-15.74
-21.74
-26.64
-30.47
-33.20
-34.74
-34.97
-33.90
-31.81
-29.27
-27.08
-26.02
-26.61
-28.95
-32.60
-36.55
-39.40
-39.56
-35.64
-26.90
-13.55
3.13
21.04
37.84
51.55
61.01
66.04
67.23
65.53
61.85
56.85
50.99
44.57
37.91
31.29
24.92
18.80
12.79
6.66
0.29
-6.26
-12.73
-18.76
-24.12
-28.85
-33.23
-37.66
-42.27
-46.66
-49.82
-50.32
-46.84
-38.68
-26.20
-10.72
5.74
21.13
33.79
42.72
47.59
48.62
46.34
41.50
34.91
27.38
19.57
11.94
4.67
-2.23
-8.86
-15.29
-21.51
-27.35
-32.55
-36.84
-40.06
-42.34
-44.14
-46.21
-49.49
-54.73
-62.12
-70.96
-79.57
-85.55
-86.44
-80.55
-67.61
-48.95
-27.11
-4.99
14.95
31.25
43.44
51.73
56.54
58.29
57.39
54.45
50.34
46.03
42.37
39.86
38.60
38.45
39.16
40.41
41.67
42.09
40.63
36.37
28.97
18.93
7.51
-3.70
-13.32
-20.48
-24.80
-26.13
-24.26
-18.90
-10.00
1.95
15.70
29.40
41.08
49.13
52.76
52.10
48.01
41.73
34.46
27.14
20.31
14.16
8.68
3.78
-0.63
-4.63
-8.30
-11.76
-15.17
-18.71
-22.45
-26.34
-30.30
-34.22
-38.18
-42.40
-47.16
-52.50
-57.96
-62.46
-64.49
-62.64
-56.13
-45.19
-31.09
-15.79
-1.35
10.58
19.09
23.96
25.52
24.35
21.08
16.32
10.64
4.57
-1.41
-6.87
-11.54
-15.29
-18.11
-20.13
-21.46
-22.20
-22.44
-22.25
-21.81
-21.41
-21.46
-22.31
-24.04
-26.20
-27.77
-27.31
-23.46
-15.42
-3.37
11.43
27.09
41.61
53.47
61.93
67.04
69.28
69.24
67.40
64.05
59.46
53.84
47.43
40.43
32.98
25.15
17.08
9.12
1.76
-4.39
-8.88
-11.59
-12.84
-13.33
-13.94
-15.36
-17.82
-20.97
-23.86
-25.32
-24.29
-20.25
-13.47
-4.94
3.93
11.74
17.48
20.74
21.62
20.57
18.07
14.54
10.26
5.47
0.40
-4.67
-9.46
-13.76
-17.50
-20.70
-23.43
-25.74
-27.64
-29.09
-30.17
-31.12
-32.35
-34.34
-37.45
-41.67
-46.46
-50.75
-53.19
-52.49
-47.90
-39.44
-27.96
-14.88
-1.77
10.04
19.64
26.63
30.91
32.67
32.27
30.24
27.22
23.90
20.79
18.20
16.20
14.68
13.51
12.60
11.95
11.51
11.18
10.72
9.76
7.92
4.88
0.55
-4.79
-10.45
-15.32
-18.06
-17.49
-12.88
-4.31
7.31
20.46
33.33
44.33
52.27
56.49
56.84
53.56
47.23
38.66
28.84
18.73
9.11
0.47
-7.01
-13.36
-18.68
-23.01
-26.38
-28.82
-30.45
-31.57
-32.54
-33.78
-35.64
-38.31
-41.75
-45.54
-48.90
-50.76
-49.96
-45.63
-37.55
-26.28
-13.15
0.06
11.55
19.92
24.48
25.28
23.05
18.87
13.91
9.13
5.16
2.22
0.24
-1.02
-1.79
-2.24
-2.36
-2.07
-1.28
0.06
1.87
3.86
5.60
6.54
6.18
4.29
1.06
-2.83
-6.26
-7.94
-6.67
-1.75
6.82
18.31
31.32
44.13
55.09
62.94
67.07
67.50
64.72
59.49
52.56
44.54
35.95
27.22
18.78
11.00
4.18
-1.53
-6.18
-9.99
-13.30
-16.53
-20.11
-24.40
-29.61
-35.62
-42.01
-48.00
-52.60
-54.78
-53.72
-49.00
-40.76
-29.76
-17.24
-4.71
6.43
15.22
21.31
24.93
26.72
27.39
27.43
27.00
25.95
23.96
20.76
16.30
10.77
4.56
-1.81
-7.92
-13.42
-18.10
-21.88
-24.75
-26.83
-28.36
-29.64
-30.85
-31.80
-31.86
-30.09
-25.56
-17.76
-6.93
5.92
19.24
31.39
41.05
47.40
50.25
49.84
46.80
42.02
36.45
31.06
26.60
23.47
21.73
21.12
21.25
21.73
22.25
22.59
22.57
22.04
20.78
18.57
15.16
10.38
4.23
-2.96
-10.40
-16.94
-21.28
-22.29
-19.46
-13.10
-4.31
5.37
14.37
21.53
26.31
28.71
29.05
27.74
25.08
21.33
16.78
11.80
6.87
2.33
-1.65
-5.17
-8.48
-11.78
-15.13
-18.41
-21.47
-24.18
-26.58
-28.88
-31.38
-34.36
-37.98
-42.10
-46.24
-49.54
-50.96
-49.63
-45.17
-37.95
-29.00
-19.70
-11.29
-4.56
0.26
3.37
5.10
5.77
5.53
4.48
2.72
0.39
-2.28
-5.08
-7.83
-10.41
-12.73
-14.68
-16.12
-16.92
-17.06
-16.70
-16.24
-16.17
-16.88
-18.41
-20.29
-21.55
-21.04
-17.79
-11.39
-2.18
8.85
20.34
30.93
39.48
45.23
47.78
47.04
43.27
37.11
29.62
22.10
15.76
11.34
8.81
7.53
6.51
4.92
2.45
-0.71
-4.08
-7.30
-10.35
-13.64
-17.78
-23.25
-30.10
-37.87
-45.61
-52.09
-56.12
-56.84
-53.89
-47.47
-38.34
-27.60
-16.50
-6.27
2.10
7.95
11.05
11.67
10.53
8.68
7.26
7.19
8.88
12.07
15.93
19.36
21.37
21.50
19.82
16.82
13.09
8.95
4.37
-1.02
-7.62
-15.61
-24.76
-34.39
-43.45
-50.71
-54.95
-55.22
-51.03
-42.54
-30.60
-16.67
-2.48
10.25
20.20
26.66
29.58
29.41
26.89
22.87
18.13
13.30
8.84
5.06
2.08
-0.08
-1.52
-2.35
-2.69
-2.64
-2.39
-2.22
-2.57
-3.98
-6.90
-11.42
-17.16
-23.17
-28.18
-30.85
-30.28
-26.15
-18.94
-9.64
0.45
10.10
18.39
24.79
29.12
31.51
32.19
31.42
29.42
26.26
21.94
16.40
9.77
2.44
-4.87
-11.21
-15.80
-18.26
-18.87
-18.43
-18.01
-18.50
-20.35
-23.53
-27.71
-32.48
-37.46
-42.19
-45.89
-47.49
-45.78
-39.93
-29.94
-16.84
-2.50
10.96
21.88
29.43
33.73
35.44
35.38
34.13
31.98
29.05
25.42
21.19
16.47
11.33
5.81
-0.03
-5.94
-11.51
-16.23
-19.73
-21.95
-23.21
-24.10
-25.20
-26.77
-28.49
-29.43
-28.22
-23.48
-14.33
-0.79
16.01
34.10
51.16
65.18
74.90
80.01
80.90
78.32
73.04
65.68
56.76
46.88
36.74
27.15
18.84
12.36
7.94
5.50
4.62
4.64
4.70
3.92
1.55
-2.83
-9.29
-17.47
-26.62
-35.64
-43.06
-47.27
-46.77
-40.70
-29.18
-13.47
4.23
21.38
35.75
45.92
51.44
52.71
50.53
45.89
39.66
32.57
25.20
17.92
10.95
4.29
-2.19
-8.58
-14.87
-20.81
-25.98
-29.99
-32.66
-34.20
-35.22
-36.58
-39.08
-43.07
-48.15
-53.18
-56.43
-56.12
-50.89
-40.25
-24.73
-5.77
14.73
34.85
53.04
68.32
80.26
88.85
94.25
96.67
96.28
93.27
87.91
80.52
71.47
61.15
49.98
38.42
27.08
16.63
7.69
0.55
-4.92
-9.30
-13.41
-18.08
-23.97
-31.45
-40.50
-50.62
-60.77
-69.37
-74.62
-75.03
-69.98
-59.94
-46.39
-31.26
-16.42
-3.21
7.59
15.67
20.98
23.68
24.16
23.00
20.88
18.37
15.78
13.12
10.28
7.22
4.02
0.88
-2.04
-4.71
-7.22
-9.74
-12.48
-15.62
-19.43
-24.12
-29.79
-36.13
-42.22
-46.62
-47.61
-43.72
-34.32
-19.93
-2.24
16.37
33.45
47.07
56.23
60.83
61.40
58.78
53.83
47.30
39.84
32.04
24.33
16.96
9.88
2.85
-4.47
-12.21
-20.16
-27.78
-34.35
-39.27
-42.28
-43.62
-43.92
-43.98
-44.44
-45.45
-46.55
-46.74
-44.78
-39.57
-30.64
-18.35
-3.83
11.30
25.36
37.04
45.59
50.80
52.85
52.11
49.00
44.04
37.81
30.98
24.20
17.92
12.32
7.28
2.56
-2.03
-6.47
-10.55
-14.02
-16.75
-18.94
-21.01
-23.54
-26.95
-31.31
-36.13
-40.43
-42.97
-42.55
-38.37
-30.26
-18.84
-5.31
8.78
21.89
32.78
40.66
45.22
46.53
44.90
40.86
35.10
28.40
21.53
15.12
9.50
4.68
0.40
-3.64
-7.65
-11.61
-15.31
-18.50
-21.02
-22.89
-24.34
-25.74
-27.50
-29.88
-32.86
-35.99
-38.46
-39.24
-37.36
-32.24
-23.89
-12.93
-0.48
12.08
23.34
32.07
37.43
39.05
37.09
32.19
25.26
17.25
9.03
1.25
-5.62
-11.26
-15.54
-18.55
-20.58
-22.10
-23.47
-24.86
-26.11
-26.90
-27.00
-26.51
-25.89
-25.79
-26.61
-28.20
-29.64
-29.58
-26.63
-19.95
-9.58
3.40
17.30
30.25
40.76
47.99
51.77
52.43
50.37
46.01
39.66
31.76
22.94
14.02
5.84
-1.03
-6.41
-10.59
-14.04
-17.17
-20.13
-22.71
-24.62
-25.65
-25.98
-26.17
-26.99
-29.21
-33.17
-38.59
-44.48
-49.37
-51.59
-49.86
-43.64
-33.32
-20.13
-5.77
7.96
19.65
28.44
34.07
36.76
37.03
35.49
32.78
29.50
26.11
22.92
20.02
17.34
14.77
12.31
10.16
8.65
8.05
8.27
8.80
8.72
7.00
2.88
-3.93
-13.06
-23.62
-34.27
-43.43
-49.51
-51.23
-47.98
-40.03
-28.56
-15.39
-2.44
8.73
17.20
22.77
25.70
26.46
25.58
23.51
20.70
17.51
14.25
11.03
7.80
4.33
0.38
-4.22
-9.34
-14.63
-19.55
-23.59
-26.52
-28.47
-30.01
-31.94
-35.09
-40.01
-46.72
-54.57
-62.19
-67.74
-69.26
-65.26
-55.26
-40.04
-21.50
-2.14
15.66
30.20
40.70
47.15
49.98
49.76
47.09
42.65
37.24
31.74
26.83
22.78
19.31
15.79
11.52
6.20
0.06
-6.20
-11.76
-16.06
-19.11
-21.50
-24.18
-28.10
-33.86
-41.39
-49.85
-57.67
-62.87
-63.48
-58.13
-46.46
-29.36
-8.76
12.78
32.79
49.36
61.43
68.74
71.61
70.66
66.69
60.63
53.52
46.39
40.04
34.91
30.92
27.66
24.62
21.49
18.30
15.39
13.13
11.75
11.12
10.71
9.71
7.22
2.56
-4.54
-13.64
-23.51
-32.26
-37.69
-37.94
-32.02
-20.18
-3.95
14.33
32.08
47.19
58.29
64.84
66.91
64.99
59.69
51.80
42.22
32.00
22.16
13.45
6.23
0.38
-4.50
-8.90
-13.14
-17.27
-21.10
-24.36
-26.87
-28.65
-30.04
-31.67
-34.27
-38.45
-44.33
-51.29
-57.94
-62.37
-62.62
-57.34
-46.21
-30.16
-11.06
8.71
26.89
41.71
52.13
57.77
58.79
55.75
49.52
41.15
31.87
22.81
14.87
8.55
3.93
0.78
-1.27
-2.49
-3.06
-3.07
-2.68
-2.26
-2.33
-3.48
-6.22
-10.74
-16.82
-23.72
-30.16
-34.49
-34.97
-30.29
-20.04
-4.95
13.13
31.78
48.54
61.56
69.79
73.00
71.50
65.97
57.28
46.50
34.82
23.39
13.13
4.50
-2.57
-8.47
-13.69
-18.52
-22.93
-26.62
-29.28
-30.75
-31.23
-31.30
-31.74
-33.27
-36.25
-40.44
-44.93
-48.19
-48.46
-44.17
-34.43
-19.43
-0.47
20.28
40.30
57.35
69.94
77.51
80.30
79.00
74.51
67.62
59.10
49.66
40.05
30.92
22.68
15.41
8.89
2.76
-3.22
-9.01
-14.23
-18.37
-21.02
-22.20
-22.48
-22.91
-24.68
-28.63
-34.85
-42.37
-49.30
-53.37
-52.57
-45.86
-33.48
-16.88
1.72
20.02
36.15
48.94
57.94
63.16
64.88
63.51
59.62
53.93
47.24
40.33
33.72
27.57
21.70
15.80
9.65
3.39
-2.63
-7.92
-12.18
-15.47
-18.25
-21.20
-25.01
-30.22
-36.92
-44.71
-52.60
-59.14
-62.65
-61.64
-55.27
-43.71
-28.20
-10.77
6.27
20.92
31.91
38.77
41.73
41.38
38.51
33.79
27.85
21.17
14.19
7.24
0.56
-5.71
-11.51
-16.78
-21.43
-25.32
-28.36
-30.50
-31.90
-32.94
-34.17
-36.27
-39.75
-44.74
-50.78
-56.72
-60.86
-61.40
-56.97
-47.14
-32.62
-15.15
3.06
19.98
34.11
44.76
51.83
55.55
56.26
54.36
50.41
45.15
39.45
34.15
29.75
26.23
23.19
20.02
16.31
12.06
7.72
3.91
1.08
-0.73
-2.01
-3.60
-6.38
-11.01
-17.71
-26.09
-35.17
-43.46
-49.09
-50.41
-46.33
-36.89
-23.29
-7.56
8.03
21.56
31.88
38.54
41.55
41.17
37.81
32.07
24.82
17.11
9.90
3.82
-1.02
-4.97
-8.57
-12.21
-15.98
-19.61
-22.69
-24.88
-26.17
-26.93
-27.76
-29.39
-32.35
-36.88
-42.71
-49.06
-54.62
-57.86
-57.37
-52.25
-42.48
-29.01
-13.52
2.00
15.78
26.59
33.91
37.79
38.65
37.14
33.92
29.62
24.75
19.63
14.46
9.39
4.56
0.24
-3.26
-5.70
-7.00
-7.31
-7.01
-6.59
-6.61
-7.63
-10.12
-14.41
-20.42
-27.47
-34.13
-38.50
-38.71
-33.55
-22.99
-8.32
8.28
24.38
38.06
48.25
54.72
57.82
58.06
55.98
52.06
46.82
40.88
34.81
29.00
23.52
18.16
12.55
6.46
-0.04
-6.53
-12.42
-17.18
-20.66
-23.19
-25.56
-28.78
-33.73
-40.75
-49.38
-58.24
-65.35
-68.56
-66.20
-57.57
-43.15
-24.56
-4.07
15.89
33.30
46.84
55.93
60.61
61.38
58.96
54.21
47.96
40.98
33.81
26.75
19.78
12.77
5.56
-1.79
-8.96
-15.37
-20.46
-23.94
-25.98
-27.29
-28.90
-31.88
-36.90
-43.96
-52.21
-60.11
-65.65
-66.93
-62.58
-52.21
-36.57
-17.31
3.37
23.25
40.57
54.21
63.75
69.25
71.12
69.97
66.52
61.59
55.93
50.17
44.67
39.49
34.49
29.45
24.27
19.05
14.02
9.43
5.39
1.83
-1.54
-5.13
-9.36
-14.64
-21.27
-29.31
-38.38
-47.54
-55.26
-59.70
-59.19
-52.86
-40.96
-24.90
-6.89
10.70
25.92
37.56
45.19
48.97
49.29
46.71
41.78
35.19
27.66
19.87
12.37
5.38
-1.17
-7.49
-13.73
-19.81
-25.37
-29.93
-33.15
-35.12
-36.39
-37.88
-40.48
-44.70
-50.41
-56.69
-62.05
-64.75
-63.26
-56.67
-44.97
-29.16
-10.99
7.40
24.00
37.29
46.46
51.36
52.40
50.34
46.13
40.76
35.12
29.85
25.22
21.16
17.35
13.55
9.67
5.90
2.52
-0.27
-2.53
-4.63
-7.12
-10.58
-15.42
-21.66
-28.87
-36.02
-41.61
-43.97
-41.62
-33.75
-20.54
-3.24
16.05
34.90
51.10
63.08
70.19
72.61
71.07
66.59
60.19
52.69
44.68
36.54
28.45
20.52
12.85
5.54
-1.25
-7.31
-12.47
-16.62
-19.73
-21.97
-23.73
-25.58
-28.29
-32.59
-38.80
-46.55
-54.58
-60.94
-63.48
-60.54
-51.60
-37.48
-20.10
-1.95
14.66
28.07
37.48
42.85
44.62
43.43
39.97
34.87
28.71
21.93
14.88
7.71
0.48
-6.73
-13.80
-20.40
-26.14
-30.72
-34.03
-36.30
-38.03
-39.89
-42.52
-46.26
-51.00
-56.05
-60.14
-61.67
-59.07
-51.33
-38.34
-21.07
-1.31
18.73
36.97
51.86
62.55
68.86
71.08
69.85
65.95
60.25
53.58
46.56
39.57
32.65
25.68
18.55
11.28
4.09
-2.65
-8.62
-13.67
-17.97
-21.97
-26.30
-31.59
-38.15
-45.75
-53.41
-59.51
-62.06
-59.29
-50.23
-35.12
-15.41
6.58
28.32
47.61
62.95
73.65
79.68
81.45
79.63
75.06
68.61
61.02
52.86
44.36
35.57
26.48
17.20
8.07
-0.43
-7.85
-14.03
-19.21
-24.04
-29.43
-36.30
-45.25
-56.35
-68.93
-81.51
-92.01
-98.09
-97.77
-90.03
-75.17
-54.82
-31.54
-8.19
12.77
29.70
41.88
49.37
52.71
52.69
50.19
46.06
41.09
35.93
30.96
26.33
21.96
17.68
13.40
9.19
5.25
1.83
-1.00
-3.47
-6.12
-9.73
-15.04
-22.42
-31.59
-41.40
-49.95
-54.90
-54.12
-46.35
-31.72
-11.81
10.71
32.81
51.87
66.20
75.16
78.97
78.38
74.25
67.47
58.84
49.12
39.00
29.06
19.71
11.19
3.60
-3.01
-8.67
-13.40
-17.29
-20.59
-23.73
-27.42
-32.42
-39.31
-48.06
-57.73
-66.44
-71.73
-71.26
-63.63
-48.96
-28.98
-6.54
15.19
33.52
46.80
54.47
56.90
54.89
49.47
41.60
32.21
22.20
12.35
3.34
-4.41
-10.73
-15.72
-19.53
-22.33
-24.19
-25.15
-25.37
-25.32
-25.80
-27.80
-32.07
-38.60
-46.32
-53.16
-56.45
-53.82
-43.97
-27.20
-5.34
18.78
42.17
62.42
78.06
88.58
94.12
95.20
92.49
86.80
79.01
70.04
60.67
51.34
42.14
32.87
23.33
13.53
3.82
-5.21
-12.96
-19.03
-23.42
-26.58
-29.38
-32.81
-37.70
-44.30
-51.98
-59.22
-63.85
-63.73
-57.42
-44.67
-26.66
-5.61
15.79
35.02
50.27
60.58
65.81
66.38
63.08
56.83
48.63
39.41
29.96
20.78
12.10
3.85
-4.11
-11.85
-19.22
-25.94
-31.74
-36.53
-40.51
-44.09
-47.80
-52.06
-57.01
-62.28
-66.95
-69.51
-68.21
-61.56
-48.89
-30.82
-9.18
13.37
34.12
50.99
62.89
69.69
71.95
70.53
66.36
60.34
53.29
45.90
38.64
31.70
25.03
18.50
12.05
5.80
-0.02
-5.17
-9.53
-13.16
-16.36
-19.59
-23.43
-28.42
-34.87
-42.52
-50.39
-56.77
-59.56
-56.92
-47.94
-33.05
-14.07
6.34
25.41
41.00
51.97
58.17
60.14
58.72
54.76
49.04
42.23
34.97
27.78
21.01
14.74
8.80
2.92
-3.07
-9.09
-14.82
-19.86
-23.96
-27.27
-30.31
-33.89
-38.73
-45.09
-52.48
-59.67
-64.83
-66.11
-62.22
-52.83
-38.83
-22.03
-4.67
11.22
24.19
33.56
39.26
41.57
40.96
37.96
33.20
27.44
21.44
15.87
11.07
7.06
3.61
0.42
-2.72
-5.81
-8.71
-11.26
-13.39
-15.23
-17.17
-19.72
-23.29
-27.92
-33.09
-37.66
-40.12
-38.98
-33.31
-23.09
-9.32
6.28
21.64
34.98
45.09
51.51
54.42
54.36
52.01
48.01
42.93
37.24
31.31
25.44
19.79
14.40
9.29
4.49
0.16
-3.49
-6.30
-8.27
-9.71
-11.21
-13.49
-17.19
-22.60
-29.47
-36.95
-43.68
-48.05
-48.61
-44.53
-35.90
-23.76
-9.85
3.84
15.55
24.13
29.10
30.57
29.07
25.28
19.96
13.82
7.46
1.32
-4.38
-9.59
-14.36
-18.70
-22.52
-25.58
-27.67
-28.69
-28.83
-28.52
-28.40
-29.12
-31.12
-34.47
-38.77
-43.11
-46.19
-46.61
-43.24
-35.57
-23.99
-9.71
5.54
19.96
32.13
41.26
47.18
50.14
50.60
49.11
46.21
42.46
38.35
34.28
30.43
26.77
23.09
19.19
14.91
10.26
5.40
0.58
-3.97
-8.20
-12.27
-16.59
-21.72
-28.07
-35.61
-43.61
-50.63
-54.86
-54.70
-49.29
-38.91
-24.95
-9.46
5.41
18.00
27.33
33.14
35.59
35.07
32.09
27.26
21.29
14.98
9.00
3.80
-0.53
-4.19
-7.44
-10.46
-13.22
-15.57
-17.43
-18.98
-20.70
-23.26
-27.30
-33.22
-40.93
-49.81
-58.71
-66.12
-70.40
-70.15
-64.55
-53.67
-38.49
-20.72
-2.46
14.29
28.04
37.96
43.96
46.48
46.28
44.21
41.02
37.31
33.46
29.72
26.15
22.76
19.51
16.37
13.43
10.89
8.95
7.74
7.12
6.68
5.77
3.73
0.15
-4.84
-10.48
-15.45
-18.17
-17.29
-12.08
-2.73
9.69
23.50
36.85
48.14
56.35
61.01
62.24
60.49
56.39
50.64
43.91
36.77
29.64
22.77
16.21
9.86
3.51
-3.05
-9.92
-16.99
-23.90
-30.13
-35.19
-38.84
-41.20
-42.84
-44.43
-46.54
-49.17
-51.66
-52.77
-51.06
-45.45
-35.67
-22.53
-7.72
6.67
18.72
27.25
31.96
33.27
32.00
29.01
24.99
20.49
16.05
12.23
9.49
8.08
7.79
8.07
8.16
7.49
5.89
3.66
1.40
-0.37
-1.41
-1.94
-2.52
-3.76
-6.08
-9.44
-13.32
-16.75
-18.57
-17.75
-13.76
-6.67
2.72
13.22
23.51
32.51
39.52
44.30
46.84
47.25
45.72
42.49
37.94
32.62
27.12
21.91
17.23
13.04
9.12
5.21
1.28
-2.51
-5.83
-8.40
-10.15
-11.31
-12.32
-13.71
-15.86
-18.94
-22.81
-27.10
-31.24
-34.52
-36.18
-35.56
-32.32
-26.59
-19.03
-10.65
-2.64
4.06
8.89
11.72
12.76
12.43
11.17
9.38
7.37
5.36
3.52
1.90
0.49
-0.80
-2.12
-3.57
-5.17
-6.79
-8.24
-9.30
-9.88
-10.06
-10.15
-10.60
-11.87
-14.17
-17.34
-20.78
-23.50
-24.45
-22.80
-18.26
-11.27
-2.81
5.80
13.35
19.01
22.46
23.83
23.49
21.87
19.39
16.37
13.15
10.07
7.39
5.20
3.42
1.76
-0.08
-2.30
-4.89
-7.63
-10.26
-12.65
-14.92
-17.39
-20.52
-24.62
-29.67
-35.18
-40.26
-43.74
-44.55
-42.03
-36.11
-27.44
-17.15
-6.60
2.99
10.75
16.18
19.20
19.94
18.74
16.09
12.56
8.72
5.00
1.67
-1.30
-4.04
-6.69
-9.31
-11.79
-13.96
-15.66
-16.89
-17.78
-18.63
-19.81
-21.64
-24.33
-27.81
-31.71
-35.29
-37.64
-37.78
-35.00
-29.05
-20.20
-9.27
2.63
14.29
24.60
32.73
38.26
41.15
41.72
40.47
37.97
34.66
30.78
26.45
21.77
16.90
12.08
7.59
3.60
0.15
-2.86
-5.58
-8.22
-10.99
-14.17
-18.08
-22.97
-28.73
-34.78
-40.03
-43.11
-42.79
-38.40
-30.16
-19.07
-6.71
5.22
15.32
22.72
27.15
28.75
27.97
25.32
21.36
16.63
11.70
7.07
3.11
-0.10
-2.73
-5.14
-7.70
-10.58
-13.73
-16.91
-19.89
-22.59
-25.22
-28.13
-31.71
-36.15
-41.17
-46.00
-49.33
-49.70
-45.78
-36.97
-23.51
-6.64
11.81
29.80
45.56
57.83
65.98
69.89
69.87
66.54
60.76
53.52
45.78
38.26
31.30
24.89
18.76
12.59
6.29
0.03
-5.76
-10.66
-14.40
-17.11
-19.25
-21.53
-24.59
-28.69
-33.51
-38.07
-40.94
-40.63
-36.04
-26.85
-13.70
2.06
18.69
34.49
48.18
58.93
66.30
70.14
70.51
67.74
62.51
55.76
48.53
41.72
35.76
30.64
25.96
21.28
16.37
11.40
6.77
2.91
0.03
-2.10
-4.04
-6.53
-10.22
-15.51
-22.36
-30.27
-38.31
-45.19
-49.47
-49.92
-45.82
-37.28
-25.25
-11.40
2.38
14.35
23.36
28.91
31.07
30.28
27.16
22.39
16.66
10.61
4.81
-0.33
-4.64
-8.16
-11.06
-13.50
-15.52
-17.07
-18.05
-18.43
-18.37
-18.24
-18.57
-19.86
-22.45
-26.30
-30.85
-34.96
-37.15
-35.90
-30.16
-19.76
-5.53
10.84
27.28
41.89
53.36
61.11
65.13
65.80
63.63
59.15
52.91
45.54
37.67
29.90
22.61
16.01
10.17
5.08
0.79
-2.57
-4.90
-6.25
-6.87
-7.28
-8.15
-10.15
-13.67
-18.65
-24.33
-29.38
-32.12
-31.00
-25.12
-14.58
-0.53
15.10
30.19
42.90
52.09
57.35
58.84
57.10
52.79
46.67
39.51
32.08
25.03
18.76
13.36
8.57
4.02
-0.58
-5.29
-9.88
-13.99
-17.34
-19.95
-22.22
-24.79
-28.35
-33.35
-39.76
-47.07
-54.23
-59.88
-62.61
-61.28
-55.35
-45.13
-31.77
-16.94
-2.48
10.18
20.20
27.35
31.86
34.07
34.30
32.86
30.09
26.46
22.51
18.67
15.12
11.85
8.70
5.61
2.74
0.37
-1.24
-2.08
-2.42
-2.82
-3.94
-6.38
-10.58
-16.62
-24.21
-32.54
-40.23
-45.63
-47.13
-43.71
-35.31
-22.90
-8.20
6.84
20.56
31.92
40.50
46.34
49.68
50.82
50.05
47.78
44.55
40.98
37.68
35.06
33.23
31.97
30.86
29.47
27.58
25.17
22.40
19.44
16.30
12.80
8.57
3.22
-3.50
-11.56
-20.54
-29.62
-37.65
-43.38
-45.78
-44.31
-39.17
-31.23
-21.80
-12.27
-3.80
2.87
7.44
9.87
10.31
9.03
6.42
3.01
-0.56
-3.68
-5.95
-7.26
-7.77
-7.76
-7.40
-6.64
-5.26
-3.08
-0.22
2.77
5.07
5.78
4.27
0.44
-5.27
-11.98
-18.60
-23.93
-26.95
-26.91
-23.47
-16.88
-7.90
2.24
12.12
20.45
26.36
29.42
29.71
27.56
23.46
17.96
11.59
4.91
-1.53
-7.23
-11.85
-15.23
-17.48
-18.83
-19.58
-19.97
-20.13
-20.09
-19.83
-19.38
-18.85
-18.48
-18.64
-19.62
-21.46
-23.74
-25.54
-25.72
-23.27
-17.78
-9.64
0.09
10.00
18.87
25.93
30.94
33.96
35.06
34.17
31.13
25.94
18.90
10.70
2.19
-5.95
-13.42
-20.35
-27.07
-33.79
-40.35
-46.18
-50.60
-53.15
-53.84
-53.23
-52.25
-51.83
-52.63
-54.71
-57.54
-60.05
-60.94
-59.07
-53.82
-45.28
-34.24
-21.95
-9.74
1.29
10.45
17.44
22.25
25.11
26.38
26.54
26.07
25.30
24.36
23.08
21.11
18.15
14.13
9.34
4.35
-0.23
-3.97
-6.81
-9.05
-11.19
-13.74
-16.99
-20.99
-25.43
-29.73
-33.04
-34.37
-32.76
-27.54
-18.64
-6.69
7.05
20.93
33.38
43.24
49.96
53.54
54.38
53.00
49.95
45.68
40.59
35.00
29.18
23.29
17.43
11.62
5.85
0.17
-5.40
-10.76
-15.90
-20.84
-25.74
-30.84
-36.49
-42.94
-50.28
-58.11
-65.52
-71.14
-73.50
-71.42
-64.46
-53.15
-38.83
-23.28
-8.22
5.03
15.74
23.64
28.75
31.26
31.45
29.77
26.75
22.98
18.94
14.86
10.69
6.25
1.37
-3.91
-9.31
-14.34
-18.53
-21.61
-23.74
-25.46
-27.60
-30.99
-36.09
-42.67
-49.64
-55.14
-57.06
-53.61
-43.96
-28.59
-9.17
11.87
32.04
49.32
62.51
71.19
75.53
76.05
73.48
68.66
62.54
56.03
49.81
44.23
39.21
34.41
29.49
24.31
19.07
14.16
9.94
6.51
3.54
0.34
-3.91
-9.80
-17.41
-26.00
-34.17
-40.04
-41.82
-38.27
-29.13
-15.24
1.68
19.40
35.74
49.00
58.15
62.92
63.63
61.05
56.09
49.70
42.64
35.40
28.19
21.02
13.84
6.64
-0.42
-7.04
-12.86
-17.61
-21.23
-23.99
-26.44
-29.38
-33.53
-39.28
-46.29
-53.39
-58.69
-60.03
-55.63
-44.74
-27.93
-7.05
15.27
36.32
53.88
66.65
74.22
76.93
75.54
70.98
64.20
56.02
47.12
37.97
28.92
20.21
12.03
4.64
-1.70
-6.72
-10.24
-12.28
-13.10
-13.21
-13.36
-14.43
-17.16
-21.93
-28.35
-35.21
-40.53
-42.11
-38.22
-28.17
-12.68
6.35
26.32
44.64
59.33
69.25
74.11
74.25
70.41
63.51
54.51
44.33
33.76
23.32
13.29
3.72
-5.50
-14.41
-22.90
-30.69
-37.42
-42.77
-46.66
-49.32
-51.30
-53.33
-56.10
-59.86
-64.17
-67.75
-68.82
-65.50
-56.60
-42.03
-23.03
-1.78
19.11
37.34
51.41
60.74
65.52
66.37
64.02
59.11
52.23
43.93
34.79
25.31
15.90
6.78
-1.96
-10.27
-18.03
-25.05
-31.11
-36.19
-40.53
-44.66
-49.17
-54.39
-60.12
-65.41
-68.69
-68.17
-62.31
-50.46
-33.11
-11.91
10.76
32.38
50.92
65.20
74.90
80.36
82.24
81.31
78.24
73.66
68.09
61.94
55.40
48.42
40.84
32.57
23.74
14.87
6.66
-0.21
-5.48
-9.46
-13.07
-17.54
-24.00
-32.98
-44.07
-55.82
-66.04
-72.27
-72.50
-65.74
-52.33
-33.83
-12.63
8.67
27.76
42.97
53.41
58.89
59.77
56.89
51.34
44.31
36.86
29.75
23.28
17.35
11.58
5.63
-0.65
-7.07
-13.22
-18.67
-23.25
-27.13
-30.81
-34.96
-40.11
-46.47
-53.74
-61.05
-67.08
-70.19
-68.85
-62.02
-49.53
-32.26
-12.01
8.91
28.15
43.84
54.82
60.71
61.76
58.71
52.62
44.72
36.22
28.13
21.10
15.37
10.82
7.12
3.95
1.06
-1.68
-4.39
-7.21
-10.45
-14.52
-19.85
-26.79
-35.34
-44.96
-54.42
-61.88
-65.25
-62.79
-53.69
-38.45
-18.90
2.35
22.48
39.22
51.19
58.06
60.22
58.56
54.08
47.72
40.31
32.50
24.75
17.36
10.48
4.14
-1.64
-6.84
-11.38
-15.17
-18.13
-20.31
-21.98
-23.65
-25.97
-29.49
-34.28
-39.75
-44.56
-46.86
-44.87
-37.44
-24.48
-7.15
12.48
31.93
48.92
61.87
70.05
73.51
72.89
69.04
62.85
55.13
46.56
37.68
28.92
20.54
12.65
5.24
-1.72
-8.18
-13.97
-18.80
-22.47
-25.00
-26.76
-28.45
-30.87
-34.56
-39.46
-44.67
-48.58
-49.25
-45.08
-35.40
-20.79
-2.96
15.74
32.97
46.92
56.62
61.85
62.90
60.37
55.02
47.70
39.31
30.60
22.08
13.85
5.71
-2.64
-11.28
-19.93
-28.01
-34.84
-40.00
-43.48
-45.76
-47.65
-50.08
-53.75
-58.87
-64.98
-70.89
-74.91
-75.19
-70.24
-59.45
-43.35
-23.57
-2.46
17.52
34.37
46.87
54.73
58.33
58.50
56.17
52.21
47.28
41.84
36.09
30.04
23.59
16.65
9.29
1.82
-5.30
-11.60
-16.83
-21.10
-24.89
-28.90
-33.81
-39.99
-47.27
-54.87
-61.40
-65.13
-64.37
-58.02
-45.91
-29.03
-9.31
10.84
29.12
43.84
54.14
59.94
61.68
60.12
56.05
50.29
43.56
36.50
29.60
23.14
17.25
11.89
6.99
2.48
-1.66
-5.43
-8.85
-12.07
-15.41
-19.33
-24.36
-30.88
-38.85
-47.51
-55.43
-60.73
-61.52
-56.61
-45.87
-30.36
-12.08
6.62
23.61
37.43
47.35
53.33
55.67
54.88
51.51
46.13
39.36
31.81
24.02
16.34
8.99
2.06
-4.38
-10.15
-15.03
-18.85
-21.60
-23.52
-25.15
-27.19
-30.37
-35.14
-41.46
-48.60
-55.18
-59.41
-59.53
-54.30
-43.49
-27.97
-9.56
9.42
26.77
40.80
50.57
55.83
56.87
54.29
48.87
41.46
32.96
24.22
15.89
8.43
2.01
-3.39
-7.82
-11.31
-13.83
-15.38
-16.10
-16.38
-16.88
-18.48
-21.93
-27.58
-35.02
-42.90
-49.13
-51.44
-48.07
-38.44
-23.40
-5.00
14.11
31.44
45.16
54.28
58.59
58.41
54.43
47.64
39.17
30.21
21.72
14.24
7.83
2.21
-3.04
-8.20
-13.23
-17.84
-21.63
-24.34
-26.05
-27.27
-28.83
-31.58
-36.03
-41.91
-48.07
-52.57
-53.24
-48.37
-37.33
-20.87
-0.98
19.73
38.66
53.85
64.24
69.65
70.52
67.66
62.00
54.44
45.86
36.96
28.31
20.23
12.80
5.93
-0.51
-6.59
-12.27
-17.45
-22.05
-26.18
-30.17
-34.51
-39.59
-45.48
-51.68
-57.01
-59.85
-58.50
-51.70
-39.07
-21.37
-0.35
21.64
42.14
59.15
71.38
78.40
80.51
78.52
73.48
66.40
58.18
49.43
40.58
31.80
23.16
14.63
6.22
-1.97
-9.75
-16.88
-23.20
-28.69
-33.62
-38.50
-43.94
-50.44
-58.07
-66.27
-73.67
-78.38
-78.41
-72.31
-59.72
-41.68
-20.44
1.12
20.27
35.07
44.72
49.45
50.16
47.93
43.73
38.22
31.85
24.91
17.68
10.45
3.48
-3.02
-8.92
-14.14
-18.68
-22.49
-25.61
-28.16
-30.49
-33.14
-36.70
-41.52
-47.31
-52.93
-56.50
-55.88
-49.39
-36.49
-18.15
3.35
25.06
44.16
58.70
67.87
71.94
71.83
68.70
63.57
57.23
50.18
42.85
35.59
28.69
22.34
16.59
11.33
6.37
1.52
-3.33
-8.21
-13.15
-18.34
-24.08
-30.78
-38.61
-47.18
-55.38
-61.44
-63.41
-59.80
-50.15
-35.32
-17.24
1.57
18.82
32.88
42.95
49.02
51.52
51.08
48.38
44.03
38.65
32.80
26.92
21.31
16.05
11.12
6.45
2.11
-1.75
-4.91
-7.26
-8.98
-10.59
-12.86
-16.59
-22.14
-29.22
-36.66
-42.64
-45.12
-42.48
-34.07
-20.52
-3.59
14.34
30.89
44.28
53.58
58.68
59.94
57.99
53.46
47.03
39.42
31.37
23.57
16.43
10.07
4.35
-0.91
-5.78
-10.11
-13.62
-16.07
-17.52
-18.38
-19.39
-21.35
-24.75
-29.53
-34.89
-39.40
-41.41
-39.53
-33.10
-22.48
-8.94
5.65
19.31
30.42
38.01
41.83
42.20
39.76
35.27
29.37
22.60
15.38
8.09
1.13
-5.14
-10.41
-14.50
-17.36
-19.06
-19.80
-19.85
-19.58
-19.48
-20.09
-21.84
-24.89
-28.94
-33.13
-36.16
-36.62
-33.40
-26.10
-15.20
-2.00
11.72
24.17
34.03
40.64
44.02
44.64
43.16
40.22
36.31
31.80
26.92
21.79
16.48
11.04
5.58
0.26
-4.66
-8.96
-12.49
-15.36
-17.93
-20.74
-24.37
-29.14
-34.87
-40.75
-45.42
-47.35
-45.25
-38.55
-27.62
-13.62
1.74
16.66
29.65
39.63
46.11
49.08
48.99
46.60
42.79
38.39
34.00
29.86
25.89
21.81
17.31
12.27
6.79
1.21
-4.05
-8.64
-12.50
-15.88
-19.29
-23.32
-28.39
-34.53
-41.28
-47.80
-52.93
-55.54
-54.72
-50.07
-41.85
-31.02
-19.01
-7.40
2.44
9.68
14.09
15.94
15.80
14.30
11.93
9.06
5.90
2.61
-0.76
-4.15
-7.56
-10.96
-14.31
-17.60
-20.79
-23.86
-26.88
-29.95
-33.31
-37.23
-41.90
-47.21
-52.56
-56.80
-58.50
-56.41
-49.94
-39.40
-26.04
-11.65
2.00
13.50
22.10
27.57
30.14
30.27
28.52
25.46
21.65
17.54
13.45
9.57
5.94
2.54
-0.64
-3.59
-6.19
-8.32
-9.89
-11.01
-12.04
-13.48
-15.86
-19.41
-23.80
-28.02
-30.57
-29.85
-24.75
-15.06
-1.71
13.52
28.51
41.40
51.00
56.88
59.18
58.36
54.96
49.52
42.63
34.93
27.03
19.45
12.46
6.17
0.55
-4.43
-8.76
-12.42
-15.47
-18.12
-20.75
-23.90
-28.10
-33.65
-40.34
-47.24
-52.73
-54.87
-51.97
-43.24
-29.19
-11.49
7.45
25.19
39.85
50.40
56.66
58.99
58.05
54.57
49.19
42.48
34.92
26.92
18.80
10.77
3.02
-4.34
-11.22
-17.52
-23.18
-28.13
-32.44
-36.36
-40.37
-45.07
-50.86
-57.59
-64.28
-69.13
-69.96
-64.88
-53.01
-34.99
-12.84
10.62
32.52
50.68
63.99
72.26
75.93
75.68
72.23
66.30
58.68
50.18
41.55
33.26
25.48
18.11
11.03
4.27
-1.87
-6.98
-10.82
-13.51
-15.68
-18.34
-22.61
-29.23
-38.12
-48.17
-57.27
-62.81
-62.41
-54.77
-40.10
-20.23
1.95
23.30
41.23
54.19
61.74
64.34
62.92
58.54
52.16
44.52
36.17
27.48
18.71
10.09
1.78
-6.03
-13.15
-19.43
-24.75
-29.14
-32.84
-36.34
-40.32
-45.43
-51.91
-59.37
-66.56
-71.59
-72.29
-66.93
-54.77
-36.41
-13.74
10.56
33.64
53.16
67.64
76.54
80.13
79.22
74.89
68.36
60.78
53.07
45.86
39.40
33.61
28.27
23.19
18.29
13.68
9.52
5.90
2.71
-0.42
-4.10
-9.02
-15.58
-23.63
-32.16
-39.42
-43.27
-41.81
-34.10
-20.52
-2.76
16.69
35.20
50.62
61.67
67.90
69.53
67.19
61.68
53.91
44.73
34.92
25.08
15.56
6.55
-1.89
-9.68
-16.63
-22.51
-27.16
-30.59
-33.12
-35.27
-37.73
-41.18
-46.00
-52.12
-58.69
-64.21
-66.67
-64.11
-55.26
-40.10
-20.05
2.35
24.06
42.41
55.66
63.28
65.74
64.07
59.43
52.76
44.74
35.85
26.47
16.98
7.75
-0.89
-8.60
-15.12
-20.24
-23.89
-26.21
-27.59
-28.64
-30.10
-32.54
-36.12
-40.30
-43.88
-45.13
-42.26
-34.04
-20.24
-1.90
18.90
39.54
57.54
71.13
79.52
82.81
81.79
77.49
70.95
63.05
54.40
45.38
36.15
26.70
16.97
6.96
-3.15
-13.00
-22.15
-30.19
-36.91
-42.42
-47.16
-51.75
-56.80
-62.45
-68.23
-72.88
-74.60
-71.58
-62.58
-47.53
-27.66
-5.25
16.98
36.55
51.76
61.85
66.91
67.61
64.83
59.55
52.62
44.77
36.43
27.76
18.71
9.17
-0.81
-10.91
-20.50
-28.86
-35.44
-40.11
-43.22
-45.58
-48.23
-52.11
-57.76
-64.95
-72.61
-78.89
-81.57
-78.65
-69.05
-53.00
-32.14
-9.06
13.34
32.59
47.08
56.27
60.42
60.39
57.27
52.21
46.26
40.24
34.69
29.79
25.43
21.30
17.10
12.64
7.98
3.38
-0.87
-4.56
-7.76
-10.87
-14.55
-19.50
-26.14
-34.22
-42.67
-49.69
-53.10
-51.13
-42.98
-29.22
-11.68
7.08
24.48
38.56
48.29
53.50
54.63
52.38
47.44
40.54
32.38
23.67
15.06
6.98
-0.38
-7.11
-13.36
-19.20
-24.50
-29.02
-32.59
-35.34
-37.85
-41.01
-45.68
-52.24
-60.17
-68.00
-73.50
-74.38
-68.91
-56.62
-38.47
-16.68
5.91
26.50
43.00
54.30
60.31
61.68
59.49
54.89
48.93
42.41
35.85
29.47
23.29
17.24
11.29
5.54
0.26
-4.18
-7.54
-9.80
-11.32
-12.80
-15.07
-18.85
-24.40
-31.30
-38.41
-43.97
-45.98
-42.76
-33.47
-18.49
0.57
21.21
40.70
56.74
67.91
73.79
74.81
71.88
66.05
58.34
49.57
40.29
30.81
21.16
11.26
1.08
-9.20
-19.09
-27.95
-35.21
-40.62
-44.42
-47.28
-50.17
-53.91
-58.92
-64.89
-70.72
-74.74
-75.08
-70.25
-59.61
-43.70
-24.11
-3.14
16.79
33.65
46.14
53.76
56.71
55.67
51.55
45.31
37.79
29.64
21.24
12.83
4.53
-3.50
-11.04
-17.81
-23.54
-28.06
-31.43
-33.98
-36.28
-39.11
-43.16
-48.70
-55.26
-61.46
-65.17
-64.10
-56.52
-41.92
-21.31
2.97
27.92
50.60
68.86
81.57
88.65
90.74
88.81
83.94
77.10
69.08
60.54
52.00
43.79
36.12
29.00
22.29
15.82
9.47
3.29
-2.60
-8.15
-13.56
-19.41
-26.49
-35.45
-46.30
-58.04
-68.66
-75.53
-76.22
-69.30
-54.90
-34.78
-11.84
10.67
30.00
44.41
53.38
57.32
57.17
53.98
48.62
41.76
33.87
25.41
16.82
8.53
0.89
-5.88
-11.73
-16.74
-21.06
-24.86
-28.35
-31.85
-35.78
-40.68
-46.90
-54.29
-61.79
-67.51
-69.07
-64.39
-52.52
-34.12
-11.43
12.33
33.94
50.90
61.97
67.07
66.97
62.82
55.78
46.92
37.20
27.46
18.51
10.96
5.22
1.36
-0.82
-1.74
-1.87
-1.71
-1.74
-2.39
-4.20
-7.65
-13.06
-20.24
-28.24
-35.32
-39.17
-37.59
-29.21
-14.07
6.17
28.65
50.06
67.55
79.34
84.97
85.11
80.98
73.93
65.02
54.99
44.31
33.32
22.39
11.87
2.08
-6.79
-14.67
-21.58
-27.57
-32.76
-37.28
-41.47
-45.84
-50.98
-57.27
-64.53
-71.62
-76.54
-76.82
-70.28
-55.93
-34.50
-8.43
18.71
43.26
62.37
74.55
79.67
78.61
72.65
63.17
51.47
38.73
25.96
13.87
2.79
-7.34
-16.81
-25.82
-34.23
-41.53
-47.09
-50.51
-51.97
-52.34
-52.95
-55.03
-59.09
-64.47
-69.29
-70.93
-66.83
-55.41
-36.73
-12.56
14.15
40.05
62.30
79.06
89.57
93.96
92.95
87.56
79.02
68.61
57.54
46.74
36.70
27.49
18.87
10.63
2.77
-4.39
-10.41
-14.97
-18.17
-20.65
-23.45
-27.70
-34.21
-43.08
-53.40
-63.31
-70.33
-72.00
-66.66
-53.93
-35.00
-12.36
10.91
31.85
48.30
59.16
64.32
64.37
60.28
53.14
44.05
34.06
24.09
14.80
6.55
-0.64
-6.99
-12.76
-18.11
-22.96
-27.11
-30.37
-32.85
-35.03
-37.74
-41.87
-47.94
-55.68
-63.86
-70.36
-72.70
-68.76
-57.56
-39.67
-17.10
7.19
30.09
49.06
62.50
69.82
71.25
67.61
60.09
50.08
38.97
27.95
17.78
8.72
0.72
-6.38
-12.58
-17.66
-21.27
-23.23
-23.69
-23.13
-22.33
-22.04
-22.89
-25.19
-28.82
-33.16
-36.98
-38.65
-36.40
-28.95
-16.01
1.46
21.37
41.03
57.88
70.11
76.90
78.43
75.56
69.45
61.24
51.95
42.29
32.73
23.51
14.62
6.01
-2.42
-10.63
-18.43
-25.54
-31.65
-36.61
-40.54
-43.92
-47.49
-52.02
-57.87
-64.69
-71.20
-75.29
-74.63
-67.42
-53.12
-32.78
-8.90
15.23
36.51
52.68
62.71
66.75
65.71
60.84
53.38
44.35
34.52
24.45
14.46
4.83
-4.28
-12.70
-20.25
-26.85
-32.46
-37.19
-41.18
-44.65
-47.91
-51.27
-55.08
-59.40
-63.73
-66.76
-66.53
-60.91
-48.50
-29.26
-4.87
21.71
47.05
68.29
83.73
93.00
96.67
95.80
91.50
84.79
76.65
68.07
59.94
52.88
47.04
42.07
37.25
31.85
25.39
17.92
9.85
1.81
-5.79
-13.04
-20.55
-29.22
-39.77
-52.17
-65.31
-77.01
-84.50
-85.20
-77.60
-61.84
-39.79
-14.55
10.41
32.06
48.44
58.79
63.32
62.80
58.25
50.69
41.11
30.37
19.24
8.29
-2.20
-12.11
-21.44
-30.08
-37.81
-44.28
-49.23
-52.65
-55.01
-57.22
-60.46
-65.75
-73.43
-82.74
-91.65
-97.32
-96.81
-88.13
-71.00
-47.07
-19.48
8.02
32.12
50.66
62.86
69.10
70.47
68.30
63.90
58.29
52.25
46.22
40.34
34.52
28.62
22.60
16.59
10.94
5.95
1.79
-1.73
-5.16
-9.32
-15.11
-23.15
-33.40
-44.89
-55.65
-63.05
-64.44
-58.01
-43.49
-22.42
2.24
26.92
48.42
64.57
74.51
78.38
77.01
71.51
63.11
53.11
42.70
32.84
24.00
16.15
8.90
1.84
-5.12
-11.65
-17.20
-21.29
-23.89
-25.52
-27.16
-29.90
-34.59
-41.46
-49.88
-58.32
-64.62
-66.38
-61.70
-49.78
-31.31
-8.38
15.94
38.45
56.53
68.67
74.60
75.01
71.16
64.45
56.11
47.02
37.71
28.39
19.16
10.06
1.27
-6.95
-14.26
-20.38
-25.24
-28.97
-31.97
-34.82
-38.15
-42.50
-48.09
-54.59
-60.98
-65.56
-66.28
-61.32
-49.76
-31.96
-9.71
14.29
37.04
56.01
69.62
77.40
79.76
77.68
72.37
64.99
56.49
47.61
38.78
30.21
21.95
13.97
6.35
-0.73
-6.94
-11.93
-15.53
-17.84
-19.37
-20.92
-23.45
-27.80
-34.43
-43.09
-52.62
-61.03
-65.85
-64.75
-56.29
-40.51
-19.00
5.44
29.62
50.72
66.90
77.43
82.40
82.44
78.36
71.06
61.47
50.58
39.29
28.27
17.86
8.10
-1.11
-9.78
-17.71
-24.54
-29.90
-33.69
-36.20
-38.21
-40.79
-45.06
-51.73
-60.72
-70.92
-80.26
-86.13
-86.09
-78.64
-63.74
-42.89
-18.68
5.87
28.15
46.32
59.50
67.55
70.85
70.00
65.79
59.17
51.18
42.88
35.12
28.39
22.76
17.95
13.61
9.51
5.67
2.30
-0.38
-2.37
-4.05
-6.10
-9.39
-14.61
-22.02
-31.15
-40.82
-49.20
-54.23
-54.07
-47.74
-35.41
-18.49
0.70
19.49
35.47
46.97
53.19
54.23
50.76
43.81
34.55
24.12
13.46
3.30
-5.98
-14.33
-21.87
-28.82
-35.33
-41.33
-46.67
-51.13
-54.57
-57.17
-59.44
-62.19
-66.28
-72.16
-79.50
-86.85
-91.86
-91.76
-84.27
-68.48
-45.28
-17.32
11.77
38.40
59.91
74.98
83.55
86.30
84.15
77.99
68.56
56.62
43.04
28.77
14.73
1.68
-9.80
-19.32
-26.64
-31.68
-34.55
-35.62
-35.53
-35.15
-35.50
-37.45
-41.47
-47.22
-53.34
-57.52
-57.12
-49.95
-35.18
-13.80
11.54
37.34
60.18
77.66
88.70
93.44
92.77
87.85
79.82
69.70
58.46
46.97
35.97
25.87
16.73
8.34
0.38
-7.29
-14.55
-21.02
-26.33
-30.41
-33.66
-36.94
-41.29
-47.45
-55.44
-64.21
-71.66
-75.13
-72.09
-61.06
-42.25
-17.72
9.12
34.47
55.11
69.19
76.32
77.31
73.56
66.52
57.45
47.37
37.07
27.17
18.07
9.99
2.99
-2.97
-7.89
-11.73
-14.46
-16.15
-17.10
-17.84
-19.17
-21.88
-26.48
-32.77
-39.62
-44.94
-46.20
-41.20
-28.96
-10.21
12.66
36.32
57.47
73.69
83.94
88.45
88.29
84.79
79.18
72.37
64.98
57.49
50.26
43.55
37.55
32.29
27.70
23.66
20.09
16.91
14.02
11.20
8.04
3.83
-2.15
-10.39
-20.69
-31.90
-41.93
-48.23
-48.54
-41.70
-28.16
-9.92
10.01
28.48
43.01
52.28
56.10
55.15
50.49
43.26
34.48
25.04
15.71
7.07
-0.57
-7.15
-12.90
-18.05
-22.75
-26.91
-30.33
-32.85
-34.52
-35.82
-37.51
-40.48
-45.44
-52.45
-60.73
-68.49
-73.32
-72.75
-65.12
-50.16
-29.31
-5.34
18.40
38.89
54.08
63.12
66.22
64.20
58.18
49.39
38.99
28.08
17.46
7.61
-1.37
-9.57
-17.01
-23.50
-28.61
-31.89
-33.21
-32.92
-31.87
-31.17
-31.84
-34.49
-39.09
-44.87
-50.34
-53.45
-51.99
-44.15
-29.20
-7.95
17.22
42.89
65.52
82.32
91.90
94.25
90.39
81.82
70.08
56.55
42.44
28.81
16.48
5.96
-2.71
-9.82
-15.82
-21.08
-25.75
-29.71
-32.79
-34.89
-36.18
-37.10
-38.29
-40.39
-43.82
-48.40
-53.21
-56.56
-56.34
-50.66
-38.51
-20.34
1.95
25.42
46.96
64.03
75.25
80.40
80.20
75.82
68.52
59.41
49.42
39.31
29.68
20.97
13.36
6.78
0.95
-4.48
-9.75
-14.90
-19.74
-24.06
-27.87
-31.57
-35.92
-41.73
-49.30
-57.97
-65.96
-70.70
-69.67
-61.29
-45.66
-24.57
-1.03
21.70
41.00
55.38
64.49
68.74
68.80
65.34
59.09
50.92
41.93
33.23
25.70
19.68
14.87
10.63
6.30
1.55
-3.44
-8.15
-12.07
-15.05
-17.47
-20.21
-24.35
-30.72
-39.45
-49.78
-60.04
-68.01
-71.52
-69.03
-60.13
-45.65
-27.47
-8.02
10.22
25.27
35.84
41.52
42.56
39.77
34.22
27.03
19.18
11.44
4.29
-2.06
-7.56
-12.38
-16.74
-20.82
-24.71
-28.33
-31.53
-34.16
-36.26
-38.16
-40.42
-43.61
-48.02
-53.30
-58.39
-61.68
-61.47
-56.56
-46.72
-32.86
-16.81
-0.85
12.97
23.23
29.43
31.83
31.23
28.61
24.86
20.67
16.52
12.70
9.44
6.88
5.13
4.20
4.03
4.46
5.28
6.24
7.04
7.31
6.62
4.57
0.99
-3.80
-8.94
-13.02
-14.44
-11.89
-4.75
6.57
20.72
35.76
49.67
60.84
68.40
72.25
72.86
70.99
67.44
62.80
57.50
51.75
45.71
39.50
33.27
27.18
21.47
16.34
11.95
8.33
5.36
2.74
0.05
-3.22
-7.51
-13.07
-19.72
-26.73
-32.83
-36.39
-35.93
-30.67
-20.84
-7.85
6.21
19.09
29.01
35.02
37.01
35.45
31.09
24.73
17.08
8.76
0.29
-7.91
-15.59
-22.71
-29.40
-35.85
-42.19
-48.37
-54.17
-59.28
-63.53
-67.09
-70.40
-74.10
-78.69
-84.17
-89.87
-94.46
-96.27
-93.75
-85.99
-73.05
-56.11
-37.11
-18.32
-1.75
11.24
20.13
25.08
26.71
25.75
22.96
18.94
14.28
9.44
4.80
0.60
-3.13
-6.51
-9.74
-13.00
-16.38
-19.89
-23.52
-27.33
-31.54
-36.44
-42.29
-49.05
-56.11
-62.24
-65.66
-64.57
-57.66
-44.70
-26.73
-5.79
15.57
35.01
50.92
62.50
69.66
72.76
72.31
68.97
63.50
56.77
49.69
42.91
36.78
31.25
26.04
20.94
15.91
11.15
7.01
3.73
1.31
-0.62
-2.75
-5.91
-10.79
-17.60
-25.77
-33.89
-39.90
-41.62
-37.42
-26.81
-10.64
9.06
29.67
48.62
63.96
74.52
79.91
80.39
76.60
69.49
60.23
50.04
40.01
30.94
23.17
16.65
11.14
6.39
2.29
-1.13
-3.89
-6.15
-8.29
-10.91
-14.60
-19.80
-26.56
-34.37
-42.14
-48.19
-50.67
-47.96
-39.30
-25.14
-7.15
12.22
30.36
45.20
55.54
61.13
62.36
59.93
54.61
47.16
38.34
28.89
19.50
10.70
2.79
-4.16
-10.23
-15.49
-19.88
-23.25
-25.37
-26.20
-25.95
-25.19
-24.75
-25.54
-28.22
-32.97
-39.26
-45.81
-50.81
-52.30
-48.75
-39.56
-25.39
-8.03
10.06
26.47
39.40
48.02
52.38
53.10
50.94
46.58
40.55
33.36
25.58
17.86
10.85
5.04
0.64
-2.40
-4.26
-5.19
-5.42
-5.19
-4.81
-4.74
-5.61
-8.07
-12.53
-18.86
-26.15
-32.71
-36.44
-35.48
-28.83
-16.80
-1.02
16.12
32.14
45.16
54.17
59.02
60.11
58.04
53.45
46.98
39.34
31.27
23.50
16.56
10.67
5.71
1.37
-2.66
-6.55
-10.25
-13.55
-16.30
-18.57
-20.72
-23.40
-27.24
-32.66
-39.47
-46.82
-53.22
-56.93
-56.38
-50.70
-40.07
-25.68
-9.48
6.36
19.99
30.20
36.53
39.15
38.56
35.46
30.53
24.40
17.64
10.71
3.91
-2.62
-8.86
-14.83
-20.43
-25.44
-29.48
-32.27
-33.80
-34.40
-34.72
-35.55
-37.53
-40.92
-45.42
-50.10
-53.53
-54.04
-50.21
-41.30
-27.61
-10.49
8.00
25.66
40.73
52.20
59.81
63.80
64.69
63.03
59.47
54.70
49.35
43.91
38.57
33.25
27.69
21.69
15.25
8.58
1.88
-4.68
-11.18
-17.83
-24.93
-32.67
-41.04
-49.66
-57.74
-64.03
-67.00
-65.12
-57.39
-43.71
-25.18
-3.93
17.36
36.15
50.61
59.98
64.49
64.97
62.52
58.20
52.86
47.19
41.66
36.57
31.89
27.30
22.27
16.22
8.83
0.22
-9.07
-18.25
-26.62
-33.88
-40.33
-46.71
-54.02
-62.96
-73.57
-84.98
-95.41
-102.48
-103.86
-97.85
-84.00
-63.25
-37.88
-10.93
14.48
35.74
51.21
60.25
63.15
60.77
54.33
45.18
34.61
23.76
13.47
4.23
-3.75
-10.45
-15.88
-19.98
-22.64
-23.85
-23.80
-23.04
-22.50
-23.38
-26.92
-34.02
-44.75
-58.05
-71.58
-82.10
-86.31
-81.86
-68.13
-46.61
-20.48
6.31
30.06
48.17
59.49
64.16
63.16
57.92
49.91
40.51
30.81
21.60
13.31
6.10
-0.02
-5.03
-8.83
-11.32
-12.55
-12.85
-12.84
-13.40
-15.39
-19.50
-25.93
-34.29
-43.42
-51.52
-56.38
-55.89
-48.65
-34.51
-14.75
8.15
31.12
51.24
66.35
75.38
78.31
75.93
69.55
60.66
50.68
40.78
31.67
23.64
16.68
10.63
5.45
1.24
-1.83
-3.70
-4.57
-4.98
-5.69
-7.56
-11.30
-17.25
-25.14
-33.84
-41.44
-45.46
-43.50
-34.01
-16.92
6.12
32.12
57.55
79.19
94.87
103.73
105.97
102.56
94.73
83.72
70.70
56.71
42.62
29.08
16.48
4.90
-5.72
-15.43
-24.11
-31.44
-37.04
-40.72
-42.68
-43.63
-44.62
-46.81
-50.97
-57.10
-64.25
-70.55
-73.62
-71.18
-61.80
-45.42
-23.52
1.14
25.23
45.66
60.31
68.41
70.40
67.54
61.38
53.28
44.24
34.88
25.59
16.63
8.23
0.60
-6.13
-11.88
-16.63
-20.43
-23.35
-25.58
-27.43
-29.40
-32.06
-35.85
-40.80
-46.18
-50.52
-51.82
-48.21
-38.62
-23.36
-4.16
16.33
35.31
50.63
61.20
66.99
68.63
66.94
62.65
56.38
48.76
40.48
32.27
24.68
17.92
11.87
6.21
0.78
-4.31
-8.65
-11.82
-13.66
-14.48
-15.06
-16.43
-19.54
-24.90
-32.26
-40.51
-47.70
-51.42
-49.35
-40.11
-23.73
-1.85
22.60
46.26
66.15
80.36
88.23
90.11
86.95
79.93
70.23
59.00
47.35
36.24
26.34
17.90
10.73
4.40
-1.51
-7.17
-12.44
-16.97
-20.42
-22.71
-24.15
-25.41
-27.32
-30.61
-35.50
-41.45
-47.11
-50.52
-49.71
-43.31
-31.17
-14.55
4.17
22.19
37.02
47.09
51.91
51.87
47.92
41.18
32.78
23.74
14.99
7.25
0.97
-3.77
-7.21
-9.73
-11.72
-13.39
-14.81
-15.94
-16.80
-17.54
-18.45
-19.93
-22.35
-25.85
-30.13
-34.33
-37.04
-36.65
-31.86
-22.18
-8.29
8.09
24.56
38.77
48.98
54.40
55.15
51.97
45.88
37.80
28.59
18.87
9.25
0.22
-7.82
-14.64
-20.23
-24.75
-28.41
-31.33
-33.47
-34.72
-35.01
-34.55
-33.86
-33.66
-34.59
-36.82
-39.85
-42.47
-43.11
-40.31
-33.29
-22.36
-8.86
5.15
17.53
26.59
31.52
32.37
29.80
24.67
17.81
9.80
1.11
-7.80
-16.44
-24.21
-30.60
-35.24
-38.02
-39.07
-38.67
-37.23
-35.18
-33.00
-31.17
-30.19
-30.36
-31.63
-33.43
-34.64
-33.86
-29.80
-21.84
-10.32
3.44
17.56
30.12
39.74
45.83
48.56
48.58
46.68
43.55
39.70
35.46
31.05
26.62
22.24
17.97
13.79
9.68
5.59
1.47
-2.74
-7.13
-11.88
-17.21
-23.42
-30.72
-38.98
-47.57
-55.23
-60.22
-60.82
-55.86
-45.27
-30.22
-12.89
4.17
18.68
29.23
35.38
37.53
36.58
33.47
29.01
23.78
18.24
12.72
7.53
2.90
-1.07
-4.44
-7.40
-10.13
-12.77
-15.34
-17.89
-20.59
-23.84
-28.18
-34.00
-41.16
-48.68
-54.78
-57.26
-54.20
-44.65
-29.13
-9.61
11.02
29.72
44.10
52.93
56.21
54.85
50.18
43.52
35.86
27.94
20.22
13.10
6.89
1.76
-2.29
-5.46
-7.99
-10.10
-11.89
-13.41
-14.82
-16.49
-18.98
-22.85
-28.35
-35.03
-41.63
-46.21
-46.68
-41.51
-30.28
-14.04
4.99
24.00
40.42
52.55
59.77
62.44
61.42
57.66
51.99
45.10
37.61
30.03
22.74
15.81
9.02
1.96
-5.65
-13.70
-21.61
-28.55
-33.77
-36.99
-38.60
-39.51
-40.88
-43.61
-47.94
-53.17
-57.70
-59.39
-56.19
-46.86
-31.48
-11.56
10.28
31.02
48.04
59.60
65.15
65.08
60.46
52.59
42.72
31.90
20.88
10.16
0.05
-9.25
-17.56
-24.72
-30.61
-35.17
-38.45
-40.66
-42.18
-43.58
-45.50
-48.43
-52.46
-56.94
-60.38
-60.69
-55.82
-44.49
-26.84
-4.56
19.57
42.50
61.73
75.85
84.61
88.49
88.34
85.00
79.20
71.65
63.08
54.21
45.58
37.43
29.69
22.16
14.71
7.52
1.02
-4.32
-8.27
-11.14
-13.80
-17.44
-23.16
-31.42
-41.57
-51.85
-59.64
-62.23
-57.64
-45.36
-26.57
-3.86
19.47
40.33
56.43
66.63
70.90
69.97
65.03
57.39
48.37
39.01
30.03
21.68
13.86
6.30
-1.16
-8.42
-15.11
-20.85
-25.47
-29.19
-32.57
-36.36
-41.27
-47.79
-55.98
-65.29
-74.46
-81.45
-83.85
-79.47
-67.21
-47.71
-23.38
2.23
25.46
43.62
55.54
61.52
62.71
60.54
56.20
50.56
44.32
38.12
32.54
28.07
24.91
22.97
21.96
21.53
21.38
21.32
21.16
20.63
19.30
16.57
11.94
5.19
-3.23
-12.13
-19.63
-23.66
-22.51
-15.49
-3.24
12.36
28.68
43.12
53.74
59.65
60.93
58.32
52.82
45.34
36.65
27.33
17.94
8.99
1.00
-5.71
-11.03
-15.13
-18.28
-20.83
-23.02
-24.99
-26.88
-28.92
-31.46
-34.92
-39.55
-45.20
-51.09
-55.83
-57.74
-55.40
-48.13
-36.42
-21.80
-6.45
7.47
18.38
25.64
29.36
30.14
28.66
25.51
21.16
16.11
11.00
6.55
3.43
2.05
2.45
4.34
7.17
10.33
13.32
15.76
17.40
18.02
17.41
15.36
11.89
7.48
3.13
0.28
0.38
4.36
12.21
22.85
34.41
44.87
52.64
56.85
57.43
54.78
49.49
42.12
33.19
23.23
12.93
2.96
-6.15
-14.22
-21.42
-28.09
-34.53
-40.77
-46.52
-51.16
-54.18
-55.55
-55.87
-56.23
-57.74
-61.19
-66.74
-73.85
-81.06
-86.47
-88.40
-85.79
-78.39
-66.67
-51.74
-35.21
-18.89
-4.01
8.64
18.42
24.75
27.28
26.23
22.38
16.96
11.55
8.53
10.19
17.75
30.83
47.62
65.58
82.09
95.05
100.06
94.46
79.40
59.78
40.73
24.81
11.98
1.27
-7.88
-15.64
-20.86
-22.37
-19.94
-14.69
-8.43
-2.83
1.20
3.06
2.57
0.44
-2.47
-5.62
-9.08
-13.18
-18.12
-23.57
-28.80
-32.69
-33.78
-31.09
-24.68
-15.90
-6.81
0.68
5.45
7.34
6.93
5.23
3.01
0.76
-1.13
-1.81
0.08
6.00
16.69
31.52
48.52
64.99
78.43
87.25
90.92
89.61
83.68
73.45
59.37
42.26
23.45
4.62
-12.80
-27.99
-40.95
-52.14
-61.87
-70.02
-76.00
-79.21
-79.28
-76.43
-71.51
-65.77
-60.68
-57.23
-56.03
-57.35
-61.07
-66.36
-71.75
-75.54
-76.38
-73.87
-68.12
-60.03
-51.13
-43.05
-36.72
-32.14
-28.90
-26.60
-25.26
-24.16
-22.32
-18.91
-13.43
-5.33
5.80
19.98
36.62
54.40
72.74
91.02
107.96
118.51
117.33
102.46
77.66
52.90
32.09
16.91
7.71
4.12
5.61
11.68
21.79
34.94
49.37
62.38
72.12
77.49
78.02
73.93
66.52
57.76
49.52
42.83
37.35
32.70
28.25
23.22
16.95
9.36
1.01
-7.20
-14.36
-20.04
-23.72
-25.33
-25.48
-25.39
-26.52
-30.09
-36.73
-46.29
-57.84
-69.51
-79.08
-84.60
-84.95
-80.09
-70.94
-59.13
-46.43
-34.39
-23.90
-15.24
-8.31
-2.79
1.76
5.83
9.93
14.43
19.36
24.39
28.79
31.74
32.56
30.92
26.99
21.28
14.62
7.92
1.99
-2.62
-5.84
-8.16
-10.50
-13.88
-18.94
-25.57
-32.82
-39.16
-42.97
-43.15
-39.39
-32.27
-22.91
-12.67
-2.77
5.87
12.66
17.33
19.91
20.71
20.25
19.18
18.12
17.46
17.34
17.56
17.68
17.13
15.37
12.08
7.26
1.32
-5.08
-11.24
-16.65
-21.21
-25.18
-29.02
-33.08
-37.34
-41.27
-44.01
-44.59
-42.32
-37.01
-29.07
-19.38
-9.05
0.92
9.79
17.12
22.64
26.15
27.43
26.30
22.84
17.47
10.99
4.38
-1.46
-5.97
-8.98
-10.70
-11.57
-12.02
-12.42
-12.99
-13.89
-15.23
-17.09
-19.47
-22.13
-24.55
-25.90
-25.24
-21.80
-15.33
-6.23
4.44
15.30
25.04
32.76
38.16
41.47
43.16
43.72
43.46
42.54
40.98
38.85
36.30
33.51
30.67
27.81
24.82
21.47
17.58
13.10
8.08
2.66
-3.01
-8.88
-15.01
-21.43
-28.00
-34.15
-38.90
-41.15
-40.08
-35.53
-28.16
-19.38
-10.92
-4.32
-0.44
0.48
-1.34
-5.52
-11.61
-19.10
-27.40
-35.89
-44.03
-51.09
-56.70
-60.96
-64.24
-66.77
-68.27
-68.13
-65.73
-60.86
-53.00
-42.28
-29.52
-15.89
-2.15
11.91
27.25
44.82
64.84
87.52
111.45
133.51
149.69
156.99
154.91
145.57
132.64
119.98
112.08
111.58
118.60
131.21
146.74
162.81
177.30
188.10
183.10
155.53
107.68
50.69
-3.11
-46.84
-79.65
-104.02
-123.01
-138.69
-150.03
-155.68
-155.27
-149.82
-140.42
-126.94
-108.23
-83.60
-54.63
-22.87
7.70
31.82
44.87
45.09
34.45
17.48
-0.94
-17.49
-29.90
-37.55
-40.87
-40.81
-38.33
-34.08
-28.70
-22.90
-17.80
-13.64
-9.95
-5.62
0.03
6.93
14.08
19.91
23.54
23.72
20.70
16.32
13.31
13.73
18.60
27.84
40.65
55.95
71.05
81.20
81.96
71.47
51.08
25.28
-0.25
-20.53
-32.65
-36.41
-33.43
-27.39
-19.37
-10.43
-1.76
5.32
9.56
10.27
7.48
2.17
-4.17
-8.75
-10.66
-10.54
-9.99
-10.57
-12.86
-16.16
-18.57
-17.80
-12.08
-1.67
11.54
24.63
34.69
39.73
39.11
33.56
24.81
14.96
5.42
-3.08
-10.41
-16.88
-22.92
-28.95
-35.24
-41.78
-48.18
-53.91
-58.15
-60.07
-59.13
-55.36
-49.49
-42.81
-36.71
-32.16
-29.51
-28.26
-27.36
-25.57
-21.86
-15.66
-6.98
3.63
15.23
26.64
36.76
44.80
50.44
53.75
55.10
54.84
53.24
50.44
46.59
42.00
37.14
32.55
28.63
25.47
22.83
20.30
17.50
14.30
10.90
7.61
4.67
2.00
-0.69
-3.72
-7.05
-10.11
-11.93
-11.43
-8.03
-1.90
5.90
13.83
20.34
24.44
25.90
25.23
23.35
21.12
19.13
17.53
16.05
14.33
11.99
8.73
4.25
-1.67
-8.95
-16.87
-24.06
-28.78
-29.66
-26.51
-20.56
-14.03
-9.15
-7.09
-7.43
-8.52
-8.40
-5.82
-0.83
5.49
11.69
16.65
19.97
21.79
22.46
22.17
20.90
18.40
14.61
9.69
4.03
-1.92
-7.91
-14.03
-20.64
-28.18
-36.95
-46.77
-57.01
-66.59
-74.33
-79.33
-81.35
-80.99
-79.52
-78.43
-78.75
-80.66
-83.31
-85.27
-85.07
-81.79
-75.46
-66.96
-57.67
-48.94
-41.74
-36.34
-32.42
-29.30
-26.24
-22.78
-18.97
-15.40
-13.00
-12.82
-15.58
-21.42
-29.81
-39.63
-49.52
-58.14
-64.63
-68.74
-70.92
-72.15
-73.67
-76.52
-81.23
-87.61
-94.74
-101.27
-105.67
-106.61
-103.16
-95.03
-82.63
-67.13
-50.30
-34.21
-20.71
-11.03
-5.46
-3.51
-4.29
-6.98
-11.15
-16.75
-23.83
-32.23
-41.42
-50.53
-58.60
-64.88
-68.96
-70.86
-70.93
-69.88
-68.64
-68.22
-69.35
-72.10
-75.52
-77.67
-76.06
-68.37
-53.23
-30.68
-2.19
29.75
62.31
92.91
119.63
141.30
157.36
167.76
172.79
173.01
169.20
162.34
153.48
143.65
133.65
124.01
114.89
106.17
97.58
88.84
79.72
70.04
59.57
48.16
35.85
23.13
11.10
1.50
-3.61
-2.40
6.13
21.74
42.91
67.20
91.86
114.55
133.73
148.88
160.30
168.56
174.38
178.38
180.93
182.09
181.82
180.07
177.04
173.18
169.00
165.01
161.50
158.23
154.44
149.01
140.81
129.22
114.21
96.04
75.69
54.94
35.86
20.43
10.04
5.00
4.80
7.98
11.64
13.23
11.54
6.32
-1.91
-12.30
-24.08
-36.04
-47.29
-59.37
-73.62
-89.98
-107.98
-126.77
-145.33
-162.79
-177.20
-186.74
-193.11
-197.76
-200.38
-200.83
-199.22
-195.73
-190.26
-180.29
-162.27
-136.55
-103.39
-61.80
-12.58
41.55
96.45
136.61
147.77
145.14
139.02
127.10
111.14
93.24
75.13
57.82
41.75
28.83
21.17
16.59
13.08
10.51
8.21
5.15
0.31
-6.97
-15.43
-23.19
-31.37
-40.88
-50.80
-60.00
-67.05
-70.35
-68.64
-60.64
-46.27
-28.54
-11.04
3.89
14.96
22.19
26.61
29.49
32.44
36.34
40.65
44.05
45.50
44.25
40.25
34.13
26.72
19.27
12.35
5.89
-1.09
-9.82
-21.33
-36.01
-53.64
-73.88
-95.81
-118.84
-137.36
-145.15
-139.39
-122.91
-101.47
-79.69
-62.43
-48.04
-35.05
-22.78
-12.05
-4.27
0.22
1.91
2.44
3.97
8.87
18.11
31.55
47.45
63.05
75.75
83.97
87.60
87.58
85.73
83.47
82.08
82.05
83.20
84.86
85.99
85.31
81.42
73.45
61.19
45.77
29.28
14.27
2.93
-3.45
-4.76
-1.93
3.56
9.91
15.56
19.30
20.45
18.92
15.16
10.06
4.62
-0.39
-4.76
-8.92
-13.78
-20.41
-29.72
-42.16
-57.54
-75.00
-93.14
-110.22
-124.65
-135.38
-142.19
-145.56
-146.24
-144.66
-140.61
-133.42
-122.55
-108.29
-92.07
-76.11
-62.52
-52.50
-45.89
-41.50
-37.81
-33.70
-28.83
-23.46
-18.04
-12.86
-7.92
-3.12
1.48
5.51
8.38
9.52
8.75
6.49
3.76
1.97
2.44
5.99
12.56
21.27
30.69
39.37
46.27
50.98
53.68
54.74
54.53
53.26
51.02
48.01
44.53
40.93
37.46
34.21
31.11
28.12
25.30
22.89
21.17
20.30
20.16
20.36
20.17
18.73
15.25
9.31
1.14
-8.14
-16.80
-22.93
-25.17
-23.25
-18.09
-11.38
-4.96
-0.10
2.77
3.88
3.74
2.71
0.83
-2.01
-5.84
-10.31
-14.73
-18.35
-20.65
-21.61
-21.63
-21.34
-21.21
-21.40
-21.78
-22.11
-22.32
-22.47
-22.61
-22.45
-21.29
-18.14
-12.12
-2.98
8.68
21.46
33.65
43.75
50.94
55.15
56.87
56.73
55.26
52.77
49.41
45.37
40.97
36.60
32.58
29.04
25.88
22.77
19.33
15.25
10.39
4.78
-1.45
-8.12
-15.09
-22.23
-29.26
-35.57
-40.14
-41.77
-39.54
-33.27
-23.86
-13.05
-2.90
4.96
9.82
11.93
12.17
11.43
10.21
8.50
6.05
2.72
-1.27
-5.27
-8.51
-10.34
-10.49
-9.15
-6.85
-4.28
-2.18
-1.25
-2.19
-5.60
-11.67
-19.91
-28.96
-36.73
-41.04
-40.34
-34.34
-24.18
-11.95
0.04
10.05
17.33
22.00
24.75
26.31
27.21
27.73
27.96
27.86
27.33
26.23
24.38
21.70
18.25
14.29
10.16
6.27
2.92
0.26
-1.74
-3.40
-5.25
-7.90
-11.76
-16.69
-21.79
-25.60
-26.58
-23.84
-17.52
-8.91
0.05
7.49
12.18
13.78
12.72
9.75
5.53
0.51
-5.12
-11.21
-17.53
-23.62
-28.93
-32.87
-35.01
-35.12
-33.27
-29.70
-24.75
-18.83
-12.46
-6.24
-0.81
3.35
6.14
8.01
9.82
12.55
16.86
22.81
29.82
37.00
43.47
48.64
52.19
53.97
53.86
51.78
47.83
42.39
36.09
29.73
23.90
18.87
14.56
10.69
7.05
3.55
0.31
-2.51
-4.88
-6.93
-8.88
-10.84
-12.69
-14.00
-14.22
-12.99
-10.35
-6.92
-3.71
-1.73
-1.65
-3.53
-6.95
-11.18
-15.61
-19.91
-24.05
-28.13
-32.13
-35.83
-38.86
-40.87
-41.72
-41.56
-40.73
-39.60
-38.41
-37.27
-36.23
-35.47
-35.33
-36.18
-38.15
-40.84
-43.29
-44.18
-42.35
-37.24
-29.06
-18.68
-7.25
4.18
14.93
24.60
32.93
39.60
44.24
46.54
46.41
44.12
40.22
35.44
30.48
25.89
22.04
19.10
17.14
16.09
15.78
15.89
15.97
15.51
14.09
11.67
8.73
6.29
5.61
7.73
12.92
20.42
28.66
35.74
40.13
41.08
38.78
34.01
27.72
20.63
13.19
5.70
-1.47
-7.79
-12.68
-15.69
-16.66
-15.77
-13.45
-10.23
-6.58
-2.89
0.55
3.41
5.24
5.64
4.37
1.69
-1.48
-3.83
-4.02
-1.36
3.85
10.33
16.35
20.40
21.80
20.78
18.22
15.08
11.98
9.03
6.02
2.78
-0.62
-3.78
-6.19
-7.49
-7.69
-7.25
-6.89
-7.31
-8.89
-11.54
-14.78
-18.01
-20.82
-23.06
-24.81
-26.03
-26.41
-25.29
-22.05
-16.45
-9.03
-1.00
6.11
11.06
13.38
13.39
11.97
10.04
8.19
6.51
4.75
2.56
-0.30
-3.87
-8.01
-12.48
-16.97
-21.11
-24.51
-26.76
-27.52
-26.60
-24.06
-20.14
-15.22
-9.65
-3.52
3.26
10.86
19.24
27.98
36.22
42.90
47.18
48.68
47.63
44.73
40.81
36.54
32.30
28.17
24.09
20.00
15.91
11.94
8.25
4.97
2.20
-0.00
-1.58
-2.45
-2.59
-2.09
-1.24
-0.42
-0.01
-0.05
-0.18
0.33
2.24
6.01
11.47
17.88
24.17
29.33
32.67
34.03
33.61
31.92
29.45
26.65
23.80
20.98
18.13
15.11
11.82
8.30
4.78
1.54
-1.15
-3.22
-4.80
-6.13
-7.50
-9.07
-10.81
-12.48
-13.69
-14.02
-13.15
-11.05
-7.97
-4.44
-1.07
1.63
3.36
4.09
3.98
3.29
2.34
1.45
0.86
0.74
1.12
1.85
2.73
3.52
4.15
4.64
5.10
5.64
6.32
7.16
8.10
9.03
9.72
9.87
9.27
7.96
6.34
5.08
4.85
5.98
8.25
10.99
13.38
14.79
15.08
14.46
13.35
12.02
10.54
8.83
6.80
4.47
1.98
-0.49
-2.76
-4.74
-6.41
-7.73
-8.75
-9.52
-10.10
-10.60
-11.11
-11.72
-12.48
-13.37
-14.22
-14.77
-14.66
-13.59
-11.45
-8.42
-4.97
-1.77
0.54
1.50
1.02
-0.64
-2.96
-5.30
-7.13
-8.21
-8.61
-8.60
-8.44
-8.26
-7.96
-7.36
-6.34
-4.96
-3.51
-2.27
-1.48
-1.16
-1.20
-1.46
-1.81
-2.13
-2.27
-2.00
-1.06
0.65
3.00
5.54
7.72
9.09
9.49
9.12
8.41
7.75
7.31
7.02
6.67
6.05
5.09
3.86
2.43
0.86
-0.87
-2.83
-5.05
-7.47
-9.94
-12.32
-14.53
-16.60
-18.64
-20.74
-22.84
-24.69
-25.81
-25.72
-24.11
-21.01
-16.89
-12.49
-8.57
-5.65
-3.91
-3.19
-3.14
-3.42
-3.79
-4.20
-4.67
-5.25
-5.94
-6.69
-7.47
-8.29
-9.24
-10.40
-11.78
-13.26
-14.60
-15.56
-16.10
-16.35
-16.57
-16.89
-17.17
-16.97
-15.68
-12.85
-8.39
-2.65
3.71
9.99
15.62
20.37
24.25
27.39
29.91
31.82
33.01
33.38
32.93
31.83
30.35
28.79
27.34
26.00
24.62
22.98
20.87
18.22
15.06
11.51
7.78
4.07
0.70
-1.95
-3.46
-3.52
-2.10
0.51
3.65
6.55
8.46
8.93
7.85
5.44
2.09
-1.74
-5.65
-9.33
-12.59
-15.35
-17.63
-19.49
-20.96
-22.06
-22.78
-23.10
-23.08
-22.77
-22.27
-21.69
-21.12
-20.68
-20.40
-20.26
-20.04
-19.38
-17.91
-15.40
-11.88
-7.70
-3.40
0.49
3.60
5.84
7.37
8.46
9.43
10.45
11.61
12.88
14.12
15.19
15.95
16.33
16.36
16.14
15.81
15.45
15.08
14.63
14.00
13.12
11.95
10.45
8.62
6.52
4.32
2.33
0.89
0.24
0.34
0.90
1.39
1.26
0.17
-1.94
-4.90
-8.34
-11.92
-15.31
-18.26
-20.58
-22.14
-22.86
-22.75
-21.92
-20.52
-18.75
-16.79
-14.78
-12.84
-11.07
-9.58
-8.48
-7.78
-7.40
-7.06
-6.43
-5.19
-3.20
-0.61
2.29
5.12
7.59
9.58
11.13
12.35
13.34
14.15
14.81
15.36
15.84
16.32
16.86
17.48
18.17
18.91
19.69
20.48
21.20
21.70
21.76
21.16
19.77
17.63
14.94
12.04
9.33
7.16
5.74
5.12
5.16
5.58
6.05
6.29
6.15
5.62
4.80
3.76
2.53
1.08
-0.61
-2.48
-4.37
-6.16
-7.77
-9.22
-10.59
-11.90
-13.13
-14.16
-14.91
-15.36
-15.62
-15.86
-16.19
-16.58
-16.84
-16.73
-16.02
-14.70
-12.93
-11.00
-9.21
-7.70
-6.43
-5.22
-3.92
-2.43
-0.78
0.92
2.62
4.32
6.03
7.70
9.19
10.31
10.88
10.84
10.27
9.29
8.02
6.53
4.87
3.08
1.17
-0.84
-2.96
-5.16
-7.35
-9.32
-10.81
-11.61
-11.70
-11.25
-10.60
-10.09
-9.92
-10.18
-10.77
-11.59
-12.52
-13.41
-14.14
-14.53
-14.41
-13.65
-12.26
-10.34
-8.15
-6.02
-4.32
-3.29
-3.03
-3.37
-4.03
-4.72
-5.28
-5.75
-6.20
-6.61
-6.74
-6.24
-4.78
-2.28
0.98
4.48
7.78
10.61
13.01
15.13
17.07
18.84
20.39
21.85
23.54
25.87
29.07
32.89
36.57
39.06
39.41
37.20
32.71
26.84
20.70
15.22
10.82
7.41
4.52
1.67
-1.37
-4.46
-7.19
-9.14
-10.19
-10.52
-10.59
-10.90
-11.70
-12.96
-14.43
-15.83
-17.00
-17.98
-18.95
-20.02
-21.21
-22.30
-23.01
-23.08
-22.41
-21.08
-19.30
-17.32
-15.32
-13.39
-11.57
-9.85
-8.29
-6.97
-6.00
-5.38
-4.94
-4.35
-3.23
-1.23
1.75
5.49
9.53
13.28
16.25
18.24
19.33
19.81
20.03
20.16
20.16
19.82
18.91
17.29
15.04
12.39
9.66
7.15
5.06
3.53
2.59
2.22
2.30
2.60
2.76
2.39
1.16
-1.01
-3.85
-6.83
-9.32
-10.81
-11.15
-10.56
-9.53
-8.60
-8.19
-8.41
-9.14
-10.14
-11.18
-12.15
-13.10
-14.08
-15.15
-16.21
-17.12
-17.68
-17.77
-17.38
-16.59
-15.55
-14.35
-13.08
-11.80
-10.61
-9.63
-9.02
-8.85
-9.03
-9.30
-9.23
-8.35
-6.35
-3.17
0.85
5.12
8.94
11.80
13.53
14.34
14.67
15.00
15.62
16.62
17.93
19.45
21.11
22.80
24.37
25.59
26.21
26.05
25.04
23.21
20.61
17.32
13.42
9.12
4.70
0.47
-3.32
-6.65
-9.63
-12.38
-14.92
-17.11
-18.72
-19.66
-20.05
-20.22
-20.56
-21.36
-22.62
-24.16
-25.65
-26.77
-27.30
-27.17
-26.39
-25.03
-23.23
-21.13
-18.88
-16.59
-14.26
-11.82
-9.12
-6.07
-2.74
0.65
3.72
6.11
7.57
8.13
8.07
7.87
8.05
9.03
11.03
13.99
17.65
21.58
25.29
28.34
30.40
31.34
31.13
29.90
27.80
25.01
21.75
18.27
14.83
11.65
8.90
6.62
4.76
3.19
1.79
0.51
-0.65
-1.72
-2.78
-4.04
-5.74
-8.01
-10.76
-13.57
-15.86
-17.01
-16.73
-15.11
-12.64
-9.98
-7.72
-6.13
-5.20
-4.67
-4.25
-3.75
-3.07
-2.20
-1.12
0.21
1.79
3.54
5.27
6.69
7.51
7.57
6.87
5.60
4.08
2.58
1.25
0.05
-1.19
-2.61
-4.17
-5.59
-6.44
-6.32
-5.06
-2.85
-0.14
2.50
4.56
5.80
6.17
5.78
4.77
3.19
1.09
-1.48
-4.31
-7.15
-9.69
-11.78
-13.39
-14.64
-15.67
-16.53
-17.15
-17.42
-17.26
-16.70
-15.93
-15.19
-14.66
-14.33
-14.00
-13.32
-11.93
-9.59
-6.34
-2.49
1.45
4.92
7.51
9.14
9.98
10.42
10.86
11.53
12.45
13.50
14.51
15.42
16.29
17.22
18.31
19.56
20.81
21.89
22.65
23.01
23.00
22.62
21.81
20.42
18.31
15.46
12.12
8.76
5.87
3.81
2.55
1.72
0.78
-0.72
-2.94
-5.70
-8.59
-11.18
-13.19
-14.61
-15.56
-16.24
-16.77
-17.13
-17.23
-16.96
-16.28
-15.26
-14.05
-12.79
-11.52
-10.20
-8.83
-7.59
-6.88
-7.14
-8.61
-11.05
-13.76
-15.79
-16.36
-15.23
-12.70
-9.50
-6.35
-3.67
-1.50
0.35
2.12
3.88
5.56
7.00
8.07
8.73
9.04
9.11
9.05
8.94
8.85
8.75
8.58
8.24
7.64
6.78
5.68
4.40
2.96
1.33
-0.57
-2.69
-4.85
-6.70
-7.83
-7.96
-7.02
-5.30
-3.25
-1.40
-0.17
0.25
-0.07
-0.86
-1.83
-2.76
-3.58
-4.39
-5.30
-6.35
-7.43
-8.33
-8.87
-9.01
-8.83
-8.51
-8.15
-7.74
-7.16
-6.29
-5.17
-3.98
-3.01
-2.43
-2.20
-2.01
-1.45
-0.19
1.82
4.29
6.70
8.54
9.52
9.67
9.28
8.73
8.26
7.97
7.82
7.78
7.91
8.34
9.19
10.48
12.05
13.64
14.96
15.77
15.90
15.30
14.01
12.14
9.89
7.45
4.94
2.42
-0.06
-2.40
-4.34
-5.58
-5.87
-5.21
-3.86
-2.30
-1.02
-0.32
-0.24
-0.64
-1.32
-2.12
-3.02
-3.99
-5.00
-5.90
-6.48
-6.50
-5.82
-4.52
-2.87
-1.29
-0.19
0.19
-0.15
-1.04
-2.27
-3.64
-5.01
-6.21
-6.90
-6.69
-5.23
-2.52
1.09
4.85
7.98
9.91
10.47
9.93
8.72
7.28
5.83
4.40
2.85
1.10
-0.82
-2.70
-4.25
-5.18
-5.33
-4.76
-3.68
-2.37
-1.13
-0.19
0.27
0.12
-0.78
-2.48
-4.87
-7.58
-10.04
-11.61
-11.85
-10.71
-8.54
-6.00
-3.75
-2.20
-1.41
-1.17
-1.19
-1.32
-1.60
-2.25
-3.43
-5.09
-6.99
-8.67
-9.66
-9.66
-8.56
-6.50
-3.80
-0.85
1.99
4.44
6.35
7.67
8.39
8.60
8.46
8.19
8.12
8.51
9.49
10.98
12.69
14.16
14.97
14.91
14.00
12.54
10.86
9.26
7.90
6.79
5.85
5.02
4.29
3.68
3.25
3.00
2.88
2.75
2.53
2.22
1.94
1.87
2.12
2.63
3.13
3.24
2.66
1.42
-0.11
-1.28
-1.45
-0.27
2.15
5.22
8.13
10.11
10.75
10.05
8.43
6.51
4.84
3.73
3.26
3.28
3.62
4.17
4.88
5.70
6.47
6.95
6.82
5.86
4.07
1.59
-1.29
-4.34
-7.43
-10.55
-13.74
-16.95
-19.90
-22.17
-23.28
-22.91
-21.07
-18.19
-15.04
-12.45
-11.02
-10.98
-12.11
-13.95
-15.99
-17.89
-19.55
-20.97
-22.19
-23.18
-23.86
-24.17
-24.07
-23.59
-22.75
-21.50
-19.76
-17.47
-14.66
-11.49
-8.25
-5.27
-2.85
-1.11
0.07
1.14
2.67
5.22
9.06
13.99
19.42
24.50
28.54
31.15
32.43
32.71
32.40
31.73
30.74
29.35
27.51
25.25
22.72
20.07
17.41
14.80
12.26
9.77
7.32
4.90
2.54
0.29
-1.78
-3.63
-5.33
-7.02
-8.84
-10.73
-12.42
-13.44
-13.33
-11.97
-9.66
-7.10
-5.08
-4.14
-4.38
-5.51
-7.06
-8.69
-10.30
-12.04
-14.08
-16.42
-18.85
-20.98
-22.42
-22.95
-22.62
-21.69
-20.46
-19.13
-17.74
-16.23
-14.60
-13.01
-11.79
-11.33
-11.78
-12.94
-14.17
-14.64
-13.65
-10.87
-6.53
-1.26
4.14
9.04
13.11
16.35
18.93
21.00
22.63
23.82
24.57
25.00
25.29
25.67
26.24
26.93
27.55
27.89
27.79
27.25
26.44
25.53
24.65
23.76
22.72
21.31
19.33
16.72
13.54
10.00
6.41
3.13
0.44
-1.51
-2.75
-3.46
-3.89
-4.24
-4.67
-5.20
-5.79
-6.42
-7.05
-7.68
-8.33
-9.02
-9.79
-10.71
-11.85
-13.24
-14.82
-16.46
-17.96
-19.19
-20.09
-20.70
-21.08
-21.32
-21.45
-21.51
-21.51
-21.45
-21.23
-20.66
-19.54
-17.67
-15.08
-11.97
-8.70
-5.61
-2.88
-0.51
1.61
3.62
5.61
7.57
9.47
11.23
12.76
13.94
14.62
14.72
14.28
13.51
12.77
12.43
12.71
13.56
14.69
15.63
15.95
15.43
14.11
12.29
10.43
8.97
8.25
8.34
9.08
10.09
10.94
11.20
10.63
9.12
6.75
3.72
0.36
-2.96
-5.85
-8.04
-9.42
-10.12
-10.39
-10.52
-10.72
-11.02
-11.35
-11.64
-11.88
-12.15
-12.64
-13.49
-14.80
-16.57
-18.70
-21.04
-23.34
-25.29
-26.55
-26.85
-26.01
-24.07
-21.22
-17.78
-14.12
-10.56
-7.32
-4.55
-2.26
-0.39
1.17
2.56
3.91
5.28
6.68
8.08
9.39
10.60
11.73
12.86
14.10
15.47
16.90
18.27
19.37
20.07
20.35
20.24
19.83
19.18
18.30
17.19
15.95
14.74
13.76
13.15
12.90
12.80
12.59
12.06
11.18
10.09
9.00
8.04
7.22
6.43
5.53
4.49
3.36
2.29
1.46
0.97
0.84
0.92
0.96
0.68
-0.16
-1.66
-3.78
-6.38
-9.31
-12.46
-15.73
-18.94
-21.74
-23.63
-24.09
-22.78
-19.68
-15.24
-10.17
-5.29
-1.27
1.50
2.98
3.37
2.98
2.13
1.03
-0.24
-1.68
-3.34
-5.20
-7.22
-9.27
-11.20
-12.88
-14.17
-15.01
-15.38
-15.33
-14.94
-14.35
-13.73
-13.31
-13.22
-13.42
-13.71
-13.65
-12.80
-10.87
-7.93
-4.37
-0.82
2.11
4.10
5.16
5.60
5.76
5.88
5.97
5.95
5.70
5.21
4.56
3.90
3.37
3.04
2.90
2.91
3.05
3.26
3.49
3.64
3.61
3.23
2.41
1.13
-0.45
-2.02
-3.21
-3.70
-3.43
-2.60
-1.55
-0.63
0.01
0.45
0.89
1.49
2.24
2.95
3.38
3.39
3.06
2.63
2.32
2.27
2.38
2.46
2.33
2.00
1.70
1.79
2.61
4.24
6.49
8.88
10.90
12.17
12.57
12.31
11.76
11.37
11.45
12.18
13.47
15.04
16.50
17.49
17.78
17.36
16.42
15.23
13.99
12.74
11.37
9.72
7.70
5.35
2.83
0.32
-2.07
-4.33
-6.45
-8.44
-10.22
-11.67
-12.65
-13.12
-13.15
-12.91
-12.59
-12.34
-12.15
-11.87
-11.30
-10.28
-8.86
-7.23
-5.74
-4.70
-4.32
-4.61
-5.45
-6.63
-7.93
-9.14
-10.11
-10.73
-10.95
-10.83
-10.50
-10.14
-9.87
-9.71
-9.50
-9.01
-8.05
-6.51
-4.51
-2.26
-0.04
1.88
3.36
4.37
5.01
5.45
5.93
6.62
7.64
8.94
10.36
11.67
12.62
13.07
12.92
12.14
10.71
8.65
5.96
2.77
-0.74
-4.28
-7.56
-10.38
-12.66
-14.40
-15.56
-16.04
-15.66
-14.30
-11.94
-8.84
-5.40
-2.08
0.79
3.09
4.91
6.47
7.92
9.30
10.52
11.42
11.82
11.58
10.63
8.94
6.57
3.60
0.22
-3.28
-6.57
-9.32
-11.25
-12.28
-12.47
-12.05
-11.26
-10.31
-9.31
-8.25
-7.10
-5.86
-4.55
-3.23
-1.96
-0.79
0.22
1.00
1.47
1.63
1.59
1.52
1.68
2.27
3.39
4.96
6.80
8.66
10.31
11.57
12.36
12.70
12.70
12.49
12.18
11.80
11.29
10.56
9.55
8.31
6.97
5.68
4.55
3.58
2.72
1.89
1.04
0.15
-0.78
-1.75
-2.70
-3.53
-4.02
-3.94
-3.11
-1.58
0.42
2.51
4.31
5.55
6.12
6.05
5.38
4.20
2.59
0.69
-1.24
-2.92
-4.12
-4.78
-5.04
-5.15
-5.32
-5.58
-5.79
-5.73
-5.24
-4.34
-3.24
-2.26
-1.66
-1.58
-1.96
-2.55
-2.97
-2.87
-1.99
-0.27
2.17
4.99
7.81
10.26
12.12
13.32
13.90
13.93
13.49
12.65
11.50
10.16
8.80
7.53
6.40
5.38
4.39
3.33
2.18
0.97
-0.17
-1.17
-2.02
-2.81
-3.70
-4.80
-6.06
-7.27
-8.06
-8.11
-7.24
-5.57
-3.43
-1.32
0.35
1.32
1.56
1.19
0.40
-0.61
-1.70
-2.74
-3.67
-4.42
-5.01
-5.48
-5.89
-6.26
-6.50
-6.47
-6.02
-5.09
-3.77
-2.29
-0.95
-0.03
0.31
0.07
-0.61
-1.44
-2.09
-2.28
-1.84
-0.70
1.05
3.25
5.73
8.28
10.67
12.68
14.06
14.63
14.27
13.05
11.14
8.82
6.42
4.23
2.45
1.15
0.25
-0.42
-1.09
-1.94
-2.97
-4.08
-5.06
-5.77
-6.18
-6.44
-6.74
-7.27
-8.05
-8.95
-9.74
-10.15
-10.00
-9.21
-7.85
-6.10
-4.27
-2.65
-1.50
-0.86
-0.62
-0.50
-0.23
0.33
1.11
1.88
2.37
2.41
1.97
1.07
-0.28
-2.10
-4.37
-6.98
-9.62
-11.89
-13.45
-14.08
-13.80
-12.79
-11.23
-9.31
-7.13
-4.80
-2.44
-0.19
1.87
3.79
5.72
7.85
10.27
12.87
15.36
17.39
18.66
19.11
18.88
18.23
17.38
16.38
15.16
13.55
11.48
8.93
6.04
3.01
0.08
-2.53
-4.66
-6.25
-7.35
-8.06
-8.46
-8.57
-8.26
-7.35
-5.72
-3.33
-0.37
2.86
5.93
8.43
9.99
10.39
9.65
7.98
5.81
3.59
1.60
-0.07
-1.58
-3.20
-5.17
-7.62
-10.57
-13.96
-17.66
-21.50
-25.14
-28.21
-30.32
-31.29
-31.15
-30.20
-28.80
-27.24
-25.61
-23.74
-21.40
-18.43
-14.78
-10.61
-6.12
-1.53
3.08
7.68
12.26
16.78
21.14
25.19
28.76
31.70
33.88
35.17
35.38
34.28
31.71
27.66
22.41
16.56
10.90
6.25
3.13
1.66
1.52
2.08
2.74
3.15
3.26
3.38
3.84
4.89
6.48
8.33
10.00
11.00
10.91
9.46
6.49
2.06
-3.53
-9.77
-15.97
-21.51
-25.93
-29.06
-30.95
-31.79
-31.76
-30.98
-29.50
-27.39
-24.77
-21.83
-18.82
-15.99
-13.47
-11.23
-9.01
-6.43
-3.09
1.32
6.83
13.17
19.80
26.01
31.12
34.57
36.05
35.45
32.91
28.69
23.19
16.95
10.59
4.81
0.24
-2.70
-3.94
-3.73
-2.56
-0.90
0.87
2.53
3.96
4.98
5.41
5.16
4.29
2.99
1.43
-0.37
-2.61
-5.47
-8.86
-12.29
-14.91
-15.91
-14.87
-11.94
-7.78
-3.17
1.26
5.18
8.40
10.69
11.70
11.06
8.63
4.76
0.23
-3.94
-6.84
-7.96
-7.35
-5.49
-3.08
-0.78
1.00
2.19
2.98
3.77
4.93
6.72
9.16
12.02
14.85
17.16
18.49
18.60
17.47
15.34
12.53
9.41
6.32
3.51
1.14
-0.80
-2.50
-4.25
-6.36
-8.90
-11.68
-14.24
-16.06
-16.84
-16.60
-15.69
-14.52
-13.45
-12.62
-12.03
-11.60
-11.29
-11.01
-10.62
-9.93
-8.67
-6.75
-4.25
-1.47
1.16
3.27
4.62
5.16
5.07
4.63
4.16
3.88
3.86
3.94
3.87
3.47
2.74
1.96
1.57
1.98
3.36
5.58
8.19
10.59
12.19
12.53
11.37
8.79
5.17
1.18
-2.34
-4.67
-5.43
-4.81
-3.49
-2.34
-1.93
-2.34
-3.15
-3.76
-3.71
-2.92
-1.75
-0.69
-0.13
-0.01
-0.00
0.31
1.11
2.36
3.88
5.48
7.12
8.82
10.53
11.74
11.40
8.06
1.11
-8.85
-19.77
-29.31
-36.24
-40.61
-42.99
-43.73
-42.70
-39.44
-33.86
-26.64
-19.22
-13.11
-9.04
-6.60
-4.50
-1.41
3.44
9.69
16.14
21.25
23.94
24.08
22.52
20.65
19.69
20.32
22.37
24.94
26.79
26.98
25.12
21.55
16.99
12.21
7.87
4.26
1.27
-1.45
-4.34
-7.72
-11.68
-15.72
-19.74
-23.33
-25.87
-26.74
-25.56
-22.40
-17.97
-13.41
-9.98
-8.50
-8.92
-10.31
-11.37
-11.03
-8.85
-5.35
-1.11
3.12
6.77
9.66
11.89
13.72
15.30
16.71
17.92
18.75
18.81
17.56
14.67
10.16
4.59
-1.38
-6.87
-11.23
-14.09
-15.60
-16.22
-16.47
-16.71
-16.86
-17.07
-17.22
-17.17
-16.79
-15.99
-14.70
-12.76
-9.87
-5.48
0.30
7.38
15.25
23.42
31.40
38.84
45.56
49.97
54.24
57.89
60.51
61.51
60.42
56.77
50.15
40.52
28.39
15.12
1.71
-10.78
-21.77
-31.03
-37.73
-41.16
-41.52
-39.84
-37.00
-33.75
-30.23
-27.39
-24.82
-22.33
-20.02
-18.11
-16.65
-15.40
-13.75
-11.47
-8.58
-5.20
-1.79
1.02
2.70
3.08
2.39
0.96
-0.92
-3.05
-5.24
-7.53
-10.09
-13.06
-16.40
-19.89
-23.24
-26.23
-28.72
-30.59
-31.93
-32.95
-33.86
-34.79
-35.68
-36.44
-37.01
-37.37
-37.46
-37.20
-36.43
-34.91
-32.44
-28.98
-24.67
-19.85
-14.85
-9.78
-4.63
0.65
5.97
10.96
15.01
17.48
17.91
16.16
12.47
7.38
1.56
-4.38
-9.97
-14.93
-19.11
-22.42
-24.86
-26.47
-27.44
-28.05
-28.64
-29.43
-30.36
-31.04
-30.89
-29.32
-26.06
-21.22
-15.26
-8.80
-2.42
3.47
8.61
12.82
16.01
18.10
19.06
18.98
18.00
16.35
14.33
12.25
10.43
9.08
8.27
7.88
7.65
7.31
6.66
5.62
4.18
2.37
0.20
-2.23
-4.58
-6.29
-6.68
-5.23
-1.82
3.19
9.10
15.18
20.88
25.89
30.07
33.21
35.12
35.57
34.57
32.40
29.58
26.66
24.01
21.72
19.66
17.64
15.55
13.45
11.52
9.98
8.92
8.26
7.76
7.09
5.93
4.05
1.41
-1.76
-5.05
-7.84
-9.51
-9.58
-7.92
-4.74
-0.55
4.02
8.38
12.12
14.95
16.72
17.38
16.98
15.71
13.94
12.12
10.62
9.61
8.94
8.32
7.45
6.25
4.90
3.75
3.08
2.97
3.13
3.06
2.28
0.56
-1.83
-4.19
-5.60
-5.31
-2.94
1.36
6.96
12.97
18.44
22.55
24.72
24.75
22.88
19.71
16.07
12.78
10.39
9.09
8.67
8.78
9.08
9.35
9.46
9.35
8.92
8.06
6.73
5.02
3.09
1.17
-0.54
-1.85
-2.60
-2.59
-1.58
0.57
3.85
8.05
12.73
17.37
21.45
24.61
26.70
27.73
27.76
26.94
25.38
23.23
20.70
18.01
15.39
12.93
10.64
8.40
6.13
3.84
1.67
-0.17
-1.52
-2.40
-2.96
-3.33
-3.50
-3.18
-1.90
0.82
5.26
11.32
18.59
26.40
33.94
40.44
45.18
47.72
47.90
45.92
42.26
37.47
32.04
26.30
20.37
14.29
8.08
1.76
-4.54
-10.63
-16.16
-20.70
-23.82
-25.31
-25.41
-24.78
-24.31
-24.60
-25.71
-26.93
-27.10
-25.09
-20.25
-12.70
-3.17
7.26
17.58
27.04
35.25
41.98
47.11
50.49
52.00
51.68
49.88
47.22
44.50
42.51
41.80
42.55
44.56
47.34
50.26
52.60
53.73
53.15
50.60
46.11
40.02
32.90
25.44
18.29
12.03
7.15
3.98
2.65
2.91
4.13
5.35
5.52
3.82
-0.06
-5.92
-13.07
-20.67
-27.93
-34.29
-39.44
-43.25
-45.65
-46.55
-45.90
-43.70
-40.18
-35.67
-30.52
-24.88
-18.59
-11.17
-2.05
9.15
22.41
37.28
53.08
69.10
84.71
99.23
111.75
121.10
126.05
125.75
120.17
110.21
97.48
83.79
70.61
58.69
48.08
38.45
29.38
20.72
12.58
5.22
-1.21
-6.80
-11.88
-16.83
-21.82
-26.74
-31.21
-34.84
-37.54
-39.56
-41.40
-43.47
-45.85
-48.19
-49.90
-50.44
-49.63
-47.73
-45.39
-43.33
-42.09
-41.83
-42.30
-42.99
-43.45
-43.48
-43.21
-43.07
-43.48
-44.68
-46.61
-48.95
-51.27
-53.22
-54.56
-55.20
-55.15
-54.52
-53.56
-52.57
-51.82
-51.48
-51.56
-51.91
-52.30
-52.43
-52.05
-51.18
-49.99
-48.80
-47.91
-47.47
-47.43
-47.49
-47.28
-46.62
-45.75
-45.15
-45.21
-46.09
-47.70
-49.72
-51.78
-53.51
-54.57
-55.22
-55.65
-55.86
-55.81
-55.73
-56.13
-57.65
-60.64
-65.07
-71.52
-79.83
-88.88
-96.83
-102.02
-103.59
-101.64
-97.03
-91.00
-86.30
-84.57
-85.52
-87.32
-88.09
-87.04
-84.63
-82.05
-80.43
-82.28
-88.31
-96.69
-103.96
-107.08
-105.02
-98.80
-90.74
-70.34
-34.48
11.13
54.64
86.52
104.32
111.28
112.90
114.29
118.42
123.54
126.81
126.60
123.88
121.40
121.97
126.92
135.28
144.16
148.48
145.04
133.95
118.28
101.78
86.99
74.70
64.69
56.57
49.21
42.12
35.43
29.69
25.43
23.04
22.69
24.14
26.64
28.31
27.40
23.08
16.06
8.20
1.68
-1.96
-2.33
-0.15
3.02
5.90
7.81
8.77
9.11
9.03
8.47
7.35
5.91
4.58
4.45
6.18
9.64
13.90
17.69
19.79
19.62
17.73
14.69
11.44
8.72
6.84
5.55
4.31
2.35
-0.94
-5.59
-11.11
-16.38
-20.15
-21.41
-20.29
-16.84
-11.70
-5.89
-0.46
3.81
6.57
7.85
7.90
6.96
5.38
3.41
1.38
-0.38
-1.59
-2.15
-2.32
-2.04
-1.66
-1.43
-1.54
-1.97
-2.59
-3.25
-3.76
-3.95
-3.50
-2.07
0.84
5.60
12.31
20.73
30.24
40.07
49.52
58.12
65.54
71.65
76.26
79.09
79.82
78.25
74.47
68.91
62.25
55.20
48.27
41.72
35.52
29.53
23.69
18.07
12.85
8.22
4.22
0.75
-2.35
-5.20
-7.73
-9.67
-10.60
-10.16
-8.23
-5.00
-0.97
3.23
7.02
10.05
12.18
13.47
14.00
13.82
12.85
11.02
8.31
4.81
0.77
-3.56
-7.93
-12.17
-16.20
-19.95
-23.34
-26.34
-28.95
-31.32
-33.73
-36.52
-39.99
-44.21
-48.92
-53.50
-57.14
-59.10
-58.87
-56.34
-51.78
-45.73
-38.77
-31.44
-24.19
-17.41
-11.49
-6.77
-3.50
-1.77
-1.40
-2.06
-3.37
-5.02
-6.89
-9.05
-11.70
-15.02
-19.07
-23.75
-28.81
-34.03
-39.23
-44.38
-49.54
-54.73
-59.80
-64.39
-67.98
-70.09
-70.42
-68.94
-66.01
-62.26
-58.47
-55.36
-53.48
-53.09
-54.18
-56.42
-59.22
-61.86
-63.67
-64.10
-62.89
-60.01
-55.68
-50.37
-44.54
-38.53
-32.44
-26.29
-20.09
-13.98
-8.28
-3.46
-0.21
1.16
1.05
0.49
0.67
2.57
6.61
12.50
19.42
25.81
30.41
32.79
33.19
31.99
29.41
25.60
20.68
14.90
7.92
-0.18
-8.51
-15.95
-21.90
-26.40
-29.82
-32.62
-34.99
-37.79
-41.30
-44.56
-46.11
-45.04
-41.22
-35.00
-26.87
-10.65
15.29
46.75
77.21
102.39
121.18
133.98
141.37
143.39
140.19
133.48
123.24
110.52
97.18
84.84
74.28
65.59
57.92
50.48
42.84
34.46
25.62
17.03
9.13
1.97
-4.56
-11.23
-18.69
-26.78
-35.75
-45.88
-56.80
-67.55
-76.62
-78.31
-69.39
-56.66
-43.42
-29.17
-14.62
-0.62
12.04
22.53
30.12
33.58
32.37
27.04
19.48
12.63
9.44
11.03
16.52
23.96
30.96
35.99
39.44
41.88
43.16
42.77
40.12
35.10
28.21
20.16
11.99
5.21
0.69
-1.68
-2.50
-2.44
-1.92
-1.09
-0.23
0.42
0.98
1.33
1.19
0.42
-0.90
-2.29
-3.21
-3.56
-3.63
-3.85
-4.76
-6.63
-9.20
-11.82
-14.00
-16.17
-19.62
-25.25
-32.55
-39.62
-44.19
-44.89
-42.39
-39.27
-38.76
-42.66
-49.65
-55.66
-56.33
-49.26
-34.77
-14.98
7.97
33.22
57.86
77.90
91.28
98.38
100.37
97.82
90.78
79.50
64.87
48.38
32.39
19.30
10.26
4.65
0.65
-3.56
-8.86
-14.91
-20.71
-24.98
-26.93
-27.06
-26.73
-27.17
-28.59
-30.15
-30.43
-28.46
-24.12
-17.49
-9.60
-1.86
4.52
8.95
11.45
12.35
11.87
10.43
8.87
8.06
8.64
10.77
13.95
17.18
19.28
19.07
16.19
11.45
6.07
1.18
-2.67
-5.53
-7.78
-9.93
-13.00
-17.96
-24.59
-32.61
-41.50
-50.50
-58.53
-64.36
-64.09
-56.32
-43.08
-28.38
-15.58
-5.98
0.80
5.75
9.68
12.86
14.55
14.07
11.51
7.55
3.10
-1.09
-4.65
-7.57
-9.95
-12.26
-14.73
-16.88
-18.14
-18.28
-17.60
-16.70
-16.11
-15.90
-15.88
-15.42
-13.36
-8.90
-2.00
6.56
15.47
23.44
29.63
33.94
35.12
33.39
29.54
24.49
19.00
13.58
8.58
4.22
0.61
-2.31
-4.40
-5.75
-6.54
-6.93
-6.98
-6.67
-6.00
-5.16
-4.52
-4.38
-5.09
-6.79
-9.26
-11.70
-12.88
-11.40
-6.22
2.86
15.01
28.42
40.82
50.28
55.75
57.26
55.61
51.86
46.83
41.04
34.67
27.92
21.06
14.48
8.54
3.41
-0.99
-4.82
-8.22
-11.21
-13.73
-15.73
-17.36
-18.99
-21.13
-24.18
-28.22
-32.70
-36.49
-38.14
-36.43
-30.82
-21.78
-10.70
0.55
10.22
17.20
21.15
22.43
21.69
19.60
16.67
13.27
9.71
6.35
3.51
1.41
0.13
-0.48
-0.60
-0.47
-0.19
0.16
0.53
0.87
1.01
0.79
0.00
-1.46
-3.48
-5.68
-7.34
-7.61
-5.82
-1.74
4.22
11.09
17.65
22.88
26.21
27.58
27.29
25.77
23.37
20.33
16.85
13.17
9.56
6.25
3.38
0.98
-1.02
-2.70
-4.10
-5.28
-6.27
-7.17
-8.15
-9.41
-11.14
-13.44
-16.24
-19.25
-21.95
-23.66
-23.78
-22.02
-18.54
-14.00
-9.37
-5.55
-3.14
-2.21
-2.43
-3.29
-4.37
-5.53
-6.78
-8.20
-9.78
-11.33
-12.60
-13.37
-13.58
-13.31
-12.74
-12.04
-11.28
-10.46
-9.52
-8.53
-7.60
-6.92
-6.55
-6.27
-5.62
-4.00
-1.00
3.37
8.59
13.76
17.96
20.57
21.52
21.14
20.03
18.69
17.40
16.23
15.10
13.96
12.83
11.80
10.94
10.29
9.83
9.49
9.17
8.77
8.15
7.16
5.72
3.81
1.60
-0.59
-2.29
-2.97
-2.25
0.01
3.55
7.79
11.95
15.33
17.45
18.18
17.69
16.26
14.13
11.50
8.42
4.94
1.17
-2.75
-6.58
-10.10
-13.14
-15.60
-17.50
-19.01
-20.33
-21.69
-23.26
-25.11
-27.13
-29.04
-30.41
-30.73
-29.62
-26.93
-22.87
-17.98
-12.97
-8.52
-5.08
-2.80
-1.55
-1.11
-1.24
-1.77
-2.64
-3.78
-5.12
-6.54
-7.91
-9.07
-9.89
-10.31
-10.28
-9.80
-8.93
-7.80
-6.60
-5.56
-4.92
-4.81
-5.13
-5.56
-5.58
-4.62
-2.29
1.47
6.33
11.68
16.79
21.05
24.09
25.80
26.31
25.86
24.73
23.22
21.60
20.08
18.81
17.78
16.84
15.77
14.43
12.79
11.00
9.31
7.94
6.94
6.09
4.93
2.95
-0.18
-4.38
-9.07
-13.38
-16.41
-17.60
-16.89
-14.72
-11.80
-8.86
-6.41
-4.75
-3.98
-4.15
-5.23
-7.12
-9.57
-12.15
-14.45
-16.18
-17.27
-17.89
-18.28
-18.64
-19.01
-19.28
-19.24
-18.77
-17.89
-16.79
-15.74
-14.93
-14.33
-13.60
-12.22
-9.67
-5.76
-0.72
4.78
9.93
14.04
16.81
18.27
18.70
18.40
17.56
16.35
14.93
13.59
12.72
12.63
13.47
15.06
16.99
18.69
19.65
19.59
18.50
16.59
14.18
11.58
9.02
6.72
4.93
4.02
4.37
6.18
9.32
13.23
17.11
20.17
21.95
22.45
22.02
21.10
19.95
18.47
16.30
13.07
8.70
3.56
-1.66
-6.18
-9.54
-11.70
-13.07
-14.21
-15.59
-17.41
-19.62
-21.98
-24.20
-25.91
-26.66
-25.95
-23.43
-19.15
-13.65
-7.94
-3.12
0.02
1.23
0.89
-0.35
-1.80
-3.06
-3.99
-4.61
-5.03
-5.27
-5.35
-5.27
-5.06
-4.77
-4.47
-4.26
-4.30
-4.73
-5.62
-6.85
-8.12
-9.08
-9.42
-9.01
-7.88
-6.05
-3.48
-0.01
4.38
9.46
14.66
19.21
22.47
24.16
24.47
23.89
23.01
22.17
21.50
20.91
20.25
19.49
18.72
18.10
17.82
17.93
18.37
18.89
19.15
18.79
17.56
15.36
12.30
8.58
4.46
0.24
-3.77
-7.19
-9.62
-10.80
-10.67
-9.46
-7.69
-5.92
-4.62
-4.02
-4.12
-4.80
-5.95
-7.50
-9.37
-11.41
-13.38
-15.02
-16.18
-16.89
-17.29
-17.58
-17.81
-17.95
-17.87
-17.53
-17.05
-16.72
-16.82
-17.52
-18.68
-19.88
-20.51
-19.99
-18.00
-14.57
-10.02
-4.84
0.44
5.44
9.89
13.62
16.57
18.69
19.97
20.46
20.24
19.47
18.32
16.99
15.70
14.57
13.65
12.87
12.09
11.17
10.01
8.55
6.80
4.80
2.61
0.34
-1.83
-3.60
-4.69
-4.87
-4.10
-2.59
-0.73
1.02
2.29
2.96
3.07
2.85
2.43
1.89
1.18
0.23
-0.92
-2.12
-3.21
-4.08
-4.74
-5.29
-5.80
-6.23
-6.43
-6.24
-5.61
-4.68
-3.74
-3.14
-3.09
-3.63
-4.54
-5.45
-5.95
-5.71
-4.62
-2.75
-0.30
2.48
5.36
8.14
10.66
12.78
14.36
15.31
15.63
15.39
14.73
13.82
12.80
11.80
10.90
10.15
9.57
9.14
8.78
8.40
7.87
7.11
6.03
4.58
2.71
0.46
-2.07
-4.59
-6.74
-8.11
-8.43
-7.68
-6.09
-4.08
-2.13
-0.64
0.15
0.18
-0.47
-1.60
-2.93
-4.19
-5.16
-5.74
-5.98
-6.09
-6.28
-6.69
-7.29
-7.95
-8.49
-8.80
-8.86
-8.79
-8.74
-8.83
-9.15
-9.61
-10.03
-10.13
-9.59
-8.19
-5.88
-2.72
1.03
5.12
9.25
13.15
16.53
19.12
20.68
21.12
20.55
19.23
17.53
15.81
14.24
12.81
11.42
9.91
8.25
6.51
4.82
3.31
2.04
0.90
-0.25
-1.57
-3.11
-4.74
-6.22
-7.22
-7.48
-6.89
-5.54
-3.68
-1.70
0.01
1.16
1.57
1.22
0.16
-1.48
-3.53
-5.80
-8.06
-10.12
-11.83
-13.14
-14.09
-14.73
-15.06
-15.01
-14.44
-13.31
-11.74
-10.05
-8.70
-8.08
-8.37
-9.52
-11.17
-12.88
-14.09
-14.34
-13.29
-10.76
-6.88
-2.05
3.07
7.74
11.37
13.60
14.45
14.20
13.29
12.15
11.07
10.18
9.48
8.88
8.32
7.76
7.26
6.90
6.76
6.85
7.10
7.31
7.25
6.65
5.35
3.37
0.91
-1.65
-3.85
-5.31
-5.88
-5.66
-4.97
-4.17
-3.54
-3.18
-3.10
-3.30
-3.81
-4.65
-5.78
-6.98
-7.96
-8.48
-8.49
-8.22
-8.00
-8.08
-8.47
-8.91
-9.10
-8.90
-8.41
-7.94
-7.82
-8.19
-8.96
-9.85
-10.50
-10.61
-9.94
-8.33
-5.74
-2.21
2.03
6.62
11.06
14.92
17.89
19.82
20.81
21.02
20.71
20.09
19.31
18.46
17.52
16.45
15.26
13.98
12.71
11.52
10.40
9.23
7.82
5.97
3.49
0.36
-3.36
-7.36
-11.21
-14.33
-16.16
-16.39
-15.04
-12.50
-9.40
-6.39
-3.92
-2.15
-1.05
-0.55
-0.58
-1.12
-2.05
-3.11
-3.94
-4.22
-3.81
-2.88
-1.82
-1.01
-0.66
-0.66
-0.72
-0.51
0.13
1.05
1.95
2.51
2.55
2.13
1.49
0.90
0.66
0.91
1.73
3.09
4.87
6.87
8.81
10.40
11.42
11.75
11.42
10.60
9.49
8.32
7.29
6.49
5.96
5.64
5.48
5.42
5.49
5.71
6.11
6.65
7.17
7.43
7.19
6.25
4.69
2.81
1.18
0.39
0.89
2.72
5.46
8.42
10.86
12.25
12.43
11.58
10.05
8.14
6.08
4.02
2.14
0.64
-0.32
-0.66
-0.54
-0.28
-0.28
-0.82
-2.03
-3.78
-5.82
-7.89
-9.84
-11.64
-13.33
-14.93
-16.33
-17.29
-17.48
-16.66
-14.74
-11.95
-8.75
-5.72
-3.38
-1.99
-1.54
-1.79
-2.39
-3.05
-3.60
-4.01
-4.27
-4.37
-4.23
-3.79
-3.02
-2.03
-0.99
-0.10
0.51
0.85
1.07
1.29
1.56
1.76
1.70
1.26
0.57
0.01
0.08
1.17
3.38
6.43
9.77
12.86
15.33
17.05
18.14
18.78
19.11
19.15
18.83
18.07
16.80
15.06
12.88
10.34
7.56
4.63
1.64
-1.28
-4.05
-6.59
-8.84
-10.80
-12.51
-14.03
-15.40
-16.56
-17.38
-17.64
-17.16
-15.91
-14.04
-11.88
-9.85
-8.23
-7.15
-6.48
-6.05
-5.70
-5.42
-5.31
-5.51
-6.06
-6.90
-7.85
-8.71
-9.32
-9.65
-9.75
-9.72
-9.67
-9.66
-9.70
-9.76
-9.82
-9.93
-10.18
-10.66
-11.31
-11.90
-12.01
-11.23
-9.32
-6.37
-2.80
0.82
4.02
6.57
8.51
10.09
11.48
12.70
13.60
13.95
13.66
12.82
11.69
10.55
9.59
8.87
8.29
7.76
7.21
6.67
6.22
5.89
5.61
5.20
4.49
3.41
2.06
0.75
-0.20
-0.57
-0.34
0.26
0.90
1.23
1.07
0.39
-0.69
-2.01
-3.45
-4.98
-6.60
-8.31
-10.07
-11.75
-13.19
-14.29
-14.99
-15.35
-15.52
-15.64
-15.80
-16.05
-16.32
-16.58
-16.78
-16.94
-17.06
-17.09
-16.87
-16.16
-14.74
-12.45
-9.33
-5.58
-1.53
2.52
6.36
9.87
13.02
15.73
17.86
19.24
19.78
19.53
18.74
17.72
16.73
15.91
15.23
14.60
13.91
13.14
12.30
11.37
10.27
8.88
7.09
4.91
2.52
0.23
-1.63
-2.82
-3.30
-3.22
-2.89
-2.66
-2.84
-3.64
-5.09
-7.09
-9.42
-11.81
-14.02
-15.93
-17.56
-19.05
-20.50
-21.90
-23.09
-23.79
-23.75
-22.89
-21.35
-19.41
-17.38
-15.45
-13.67
-11.99
-10.32
-8.60
-6.78
-4.81
-2.55
0.22
3.67
7.88
12.72
17.86
22.90
27.44
31.23
34.19
36.36
37.81
38.58
38.54
37.53
35.39
32.08
27.78
22.81
17.55
12.25
6.96
1.58
-4.07
-9.99
-16.01
-21.76
-26.89
-31.13
-34.38
-36.63
-37.81
-37.79
-36.46
-33.82
-30.16
-25.99
-21.85
-18.14
-14.98
-12.17
-9.37
-6.26
-2.66
1.42
5.89
10.58
15.32
19.93
24.19
27.89
30.87
33.09
34.69
35.94
37.10
38.33
39.53
40.42
40.56
39.61
37.41
34.07
29.93
25.54
21.44
18.05
15.43
13.29
11.08
8.23
4.36
-0.46
-5.80
-11.05
-15.69
-19.52
-22.63
-25.23
-27.48
-29.30
-30.48
-30.75
-29.99
-28.22
-25.64
-22.55
-19.34
-16.45
-14.29
-13.09
-12.71
-12.61
-11.94
-9.81
-5.66
0.47
7.97
15.83
23.03
28.83
32.91
35.32
36.28
36.02
34.70
32.40
29.21
25.24
20.71
15.91
11.18
6.78
2.85
-0.71
-4.15
-7.70
-11.46
-15.25
-18.71
-21.43
-23.11
-23.65
-23.11
-21.64
-19.36
-16.38
-12.85
-9.07
-5.41
-2.27
0.13
1.73
2.62
2.86
2.47
1.38
-0.37
-2.55
-4.68
-6.26
-6.90
-6.54
-5.46
-4.11
-2.84
-1.72
-0.52
1.16
3.57
6.56
9.57
11.81
12.55
11.50
8.92
5.47
1.96
-1.04
-3.36
-5.18
-6.81
-8.43
-9.95
-11.10
-11.57
-11.24
-10.21
-8.75
-7.17
-5.72
-4.51
-3.52
-2.68
-1.90
-1.14
-0.38
0.38
1.07
1.62
1.89
1.75
1.14
0.16
-0.92
-1.69
-1.71
-0.68
1.51
4.66
8.41
12.31
16.04
19.47
22.54
25.21
27.31
28.47
28.25
26.28
22.44
17.01
10.58
3.91
-2.35
-7.82
-12.43
-16.28
-19.44
-21.87
-23.46
-24.10
-23.90
-23.14
-22.22
-21.37
-20.54
-19.31
-17.11
-13.57
-8.76
-3.30
1.85
5.70
7.68
7.72
6.26
3.96
1.46
-0.72
-2.27
-2.97
-2.74
-1.62
0.17
2.28
4.29
5.93
7.18
8.25
9.38
10.64
11.75
12.15
11.22
8.60
4.36
-0.95
-6.54
-11.66
-15.83
-18.91
-20.96
-22.11
-22.40
-21.87
-20.60
-18.82
-16.90
-15.14
-13.73
-12.62
-11.60
-10.43
-8.90
-6.94
-4.58
-2.03
0.42
2.41
3.65
4.00
3.62
2.84
2.11
1.78
2.01
2.76
3.87
5.21
6.72
8.49
10.63
13.25
16.34
19.66
22.77
25.18
26.46
26.44
25.19
22.90
19.73
15.74
10.92
5.37
-0.62
-6.52
-11.75
-15.83
-18.57
-20.08
-20.65
-20.62
-20.27
-19.76
-19.15
-18.38
-17.32
-15.83
-13.84
-11.38
-8.66
-5.88
-3.23
-0.82
1.23
2.77
3.56
3.42
2.32
0.47
-1.70
-3.68
-5.02
-5.50
-5.11
-4.00
-2.34
-0.30
1.96
4.30
6.53
8.36
9.44
9.46
8.24
5.84
2.67
-0.60
-3.26
-4.79
-5.06
-4.27
-2.89
-1.34
0.11
1.39
2.52
3.47
4.11
4.27
3.79
2.68
1.13
-0.59
-2.23
-3.64
-4.79
-5.75
-6.57
-7.29
-7.88
-8.33
-8.62
-8.80
-8.92
-9.09
-9.41
-9.91
-10.52
-11.04
-11.15
-10.52
-8.99
-6.61
-3.65
-0.50
2.50
5.13
7.29
8.99
10.24
11.05
11.46
11.54
11.42
11.29
11.27
11.48
11.96
12.66
13.43
14.06
14.29
13.96
13.00
11.54
9.76
7.90
6.16
4.66
3.56
2.98
2.99
3.58
4.53
5.54
6.27
6.51
6.25
5.63
4.84
4.02
3.22
2.40
1.52
0.52
-0.58
-1.74
-2.94
-4.16
-5.38
-6.58
-7.77
-8.92
-10.02
-11.07
-12.06
-13.05
-14.09
-15.20
-16.35
-17.36
-17.97
-17.96
-17.22
-15.86
-14.19
-12.57
-11.23
-10.24
-9.50
-8.85
-8.24
-7.69
-7.30
-7.09
-6.90
-6.45
-5.46
-3.79
-1.55
0.94
3.26
5.07
6.19
6.64
6.62
6.41
6.33
6.59
7.34
8.60
10.34
12.51
15.01
17.69
20.34
22.70
24.49
25.51
25.64
24.78
22.88
19.85
15.60
10.18
3.83
-2.89
-9.18
-14.22
-17.38
-18.50
-17.93
-16.38
-14.72
-13.61
-13.41
-14.09
-15.40
-17.02
-18.63
-19.87
-20.38
-19.74
-17.65
-14.04
-9.27
-4.00
0.96
4.93
7.52
8.73
8.83
8.14
6.91
5.22
3.09
0.51
-2.43
-5.52
-8.45
-10.88
-12.53
-13.19
-12.69
-10.94
-7.97
-3.94
0.71
5.35
9.23
11.82
12.91
12.79
12.06
11.43
11.38
12.04
13.21
14.47
15.42
15.80
15.53
14.64
13.23
11.42
9.35
7.18
5.16
3.54
2.52
2.09
2.06
2.03
1.58
0.44
-1.37
-3.55
-5.68
-7.47
-8.78
-9.70
-10.31
-10.56
-10.23
-9.01
-6.79
-3.71
-0.21
3.13
5.83
7.63
8.50
8.55
7.89
6.57
4.66
2.26
-0.38
-2.93
-5.03
-6.48
-7.29
-7.63
-7.77
-7.85
-7.91
-7.84
-7.58
-7.22
-7.00
-7.24
-8.13
-9.48
-10.77
-11.24
-10.26
-7.56
-3.43
1.45
6.29
10.48
13.75
16.18
17.96
19.33
20.30
20.84
20.85
20.40
19.66
18.91
18.38
18.13
17.97
17.58
16.61
14.89
12.53
9.91
7.48
5.53
4.04
2.73
1.27
-0.41
-2.06
-3.18
-3.34
-2.50
-1.04
0.33
1.01
0.75
-0.22
-1.42
-2.40
-3.00
-3.38
-3.82
-4.53
-5.44
-6.31
-6.85
-6.93
-6.66
-6.31
-6.16
-6.36
-6.90
-7.66
-8.50
-9.32
-10.02
-10.42
-10.25
-9.24
-7.20
-4.22
-0.73
2.68
5.37
6.89
7.11
6.20
4.53
2.59
0.80
-0.55
-1.35
-1.71
-1.82
-1.86
-1.88
-1.76
-1.33
-0.49
0.64
1.69
2.21
1.81
0.36
-1.95
-4.68
-7.33
-9.41
-10.62
-10.82
-10.07
-8.59
-6.72
-4.88
-3.39
-2.42
-1.91
-1.66
-1.43
-1.09
-0.67
-0.28
-0.04
0.02
-0.04
-0.13
-0.19
-0.24
-0.34
-0.53
-0.80
-1.15
-1.59
-2.18
-3.00
-4.07
-5.28
-6.42
-7.22
-7.48
-7.12
-6.20
-4.92
-3.56
-2.45
-1.89
-2.13
-3.25
-5.16
-7.53
-9.92
-11.85
-12.96
-13.10
-12.42
-11.23
-9.92
-8.78
-7.91
-7.24
-6.56
-5.69
-4.51
-2.98
-1.15
0.92
3.18
5.63
8.33
11.41
14.95
18.96
23.24
27.37
30.84
33.21
34.24
33.99
32.75
30.83
28.38
25.37
21.70
17.37
12.66
8.08
4.20
1.37
-0.46
-1.63
-2.64
-3.87
-5.45
-7.25
-9.06
-10.75
-12.35
-13.90
-15.33
-16.36
-16.54
-15.49
-13.16
-9.83
-6.12
-2.68
0.02
1.81
2.77
3.09
2.94
2.39
1.48
0.24
-1.24
-2.86
-4.52
-6.19
-7.87
-9.55
-11.20
-12.77
-14.14
-15.18
-15.73
-15.74
-15.20
-14.23
-13.01
-11.68
-10.36
-9.05
-7.67
-6.14
-4.45
-2.64
-0.88
0.68
1.90
2.80
3.50
4.27
5.34
6.85
8.74
10.76
12.61
14.08
15.13
15.87
16.44
16.96
17.38
17.57
17.37
16.68
15.47
13.80
11.76
9.52
7.28
5.25
3.63
2.51
1.83
1.41
1.01
0.43
-0.42
-1.58
-3.00
-4.63
-6.39
-8.16
-9.76
-10.96
-11.60
-11.66
-11.29
-10.82
-10.51
-10.51
-10.71
-10.82
-10.56
-9.86
-8.87
-7.91
-7.29
-7.11
-7.25
-7.40
-7.30
-6.76
-5.83
-4.65
-3.41
-2.29
-1.43
-0.90
-0.72
-0.89
-1.32
-1.87
-2.45
-2.94
-3.31
-3.54
-3.62
-3.52
-3.19
-2.59
-1.73
-0.65
0.57
1.89
3.24
4.54
5.70
6.59
7.12
7.27
7.17
7.11
7.40
8.24
9.62
11.29
12.88
14.09
14.75
14.88
14.58
13.91
12.89
11.52
9.81
7.87
5.88
3.98
2.23
0.61
-0.96
-2.53
-4.02
-5.32
-6.28
-6.79
-6.86
-6.62
-6.31
-6.15
-6.32
-6.80
-7.43
-7.90
-7.92
-7.30
-6.07
-4.44
-2.73
-1.23
-0.16
0.43
0.56
0.31
-0.24
-1.07
-2.18
-3.60
-5.31
-7.17
-8.93
-10.30
-11.07
-11.21
-10.93
-10.56
-10.41
-10.62
-11.13
-11.76
-12.36
-12.91
-13.47
-14.13
-14.82
-15.32
-15.29
-14.42
-12.53
-9.65
-5.99
-1.92
2.18
5.96
9.22
11.91
14.09
15.91
17.51
18.96
20.22
21.19
21.74
21.83
21.50
20.94
20.39
20.07
20.10
20.44
20.99
21.59
22.11
22.46
22.62
22.54
22.27
21.85
21.38
20.91
20.42
19.75
18.74
17.30
15.51
13.52
11.45
9.26
6.77
3.88
0.67
-2.45
-5.00
-6.64
-7.42
-7.72
-8.03
-8.64
-9.52
-10.43
-11.12
-11.54
-11.88
-12.41
-13.31
-14.61
-16.11
-17.58
-18.77
-19.56
-19.90
-19.88
-19.64
-19.36
-19.18
-19.17
-19.31
-19.47
-19.56
-19.51
-19.38
-19.30
-19.34
-19.53
-19.81
-20.08
-20.27
-20.38
-20.45
-20.47
-20.35
-19.87
-18.82
-17.09
-14.79
-12.23
-9.77
-7.72
-6.19
-5.08
-4.14
-3.08
-1.68
0.17
2.43
5.00
7.72
10.47
13.11
15.56
17.73
19.53
20.90
21.82
22.37
22.66
22.82
22.93
22.91
22.63
21.93
20.73
19.07
17.11
14.97
12.75
10.43
7.98
5.40
2.79
0.31
-1.89
-3.75
-5.29
-6.59
-7.71
-8.64
-9.31
-9.64
-9.59
-9.19
-8.55
-7.84
-7.21
-6.80
-6.65
-6.77
-7.09
-7.54
-8.01
-8.45
-8.79
-9.01
-9.07
-8.96
-8.68
-8.27
-7.76
-7.22
-6.66
-6.05
-5.38
-4.66
-3.93
-3.26
-2.72
-2.34
-2.07
-1.82
-1.47
-0.86
0.09
1.42
3.07
4.87
6.62
8.15
9.41
10.44
11.36
12.24
13.09
13.78
14.18
14.21
13.91
13.37
12.72
12.01
11.28
10.52
9.80
9.19
8.76
8.44
8.08
7.41
6.25
4.54
2.42
0.23
-1.59
-2.72
-3.00
-2.53
-1.62
-0.69
-0.14
-0.17
-0.79
-1.84
-3.08
-4.28
-5.29
-6.11
-6.81
-7.55
-8.41
-9.45
-10.55
-11.54
-12.19
-12.35
-12.04
-11.47
-10.98
-10.96
-11.68
-13.23
-15.47
-18.07
-20.62
-22.63
-23.66
-23.39
-21.66
-18.57
-14.49
-9.93
-5.48
-1.51
1.85
4.73
7.40
10.06
12.77
15.41
17.79
19.73
21.23
22.37
23.31
24.19
25.08
25.95
26.76
27.45
28.01
28.43
28.70
28.78
28.59
28.06
27.13
25.90
24.53
23.31
22.46
22.10
22.12
22.22
21.99
21.10
19.40
16.97
14.04
10.86
7.62
4.36
1.02
-2.41
-5.90
-9.23
-12.07
-14.10
-15.08
-14.93
-13.83
-12.11
-10.17
-8.35
-6.85
-5.70
-4.84
-4.18
-3.68
-3.35
-3.23
-3.33
-3.72
-4.43
-5.54
-7.05
-8.80
-10.44
-11.51
-11.62
-10.67
-9.01
-7.35
-6.52
-7.12
-9.18
-12.16
-15.03
-16.77
-16.65
-14.55
-10.90
-6.48
-2.07
1.83
4.97
7.28
8.65
8.86
7.67
5.04
1.34
-2.61
-5.75
-7.16
-6.23
-2.97
2.22
8.67
15.59
22.13
27.44
30.77
31.78
30.75
28.54
26.38
25.55
26.81
30.28
35.46
41.58
48.09
54.88
62.18
70.39
79.67
89.46
98.35
104.20
104.77
98.45
84.89
64.73
39.73
12.26
-15.25
-40.84
-63.09
-80.99
-93.85
-101.38
-104.50
-104.54
-102.73
-99.84
-96.10
-91.54
-86.08
-79.76
-72.75
-66.65
-62.92
-62.32
-64.79
-69.77
-76.67
-84.75
-92.93
-99.84
-105.43
-109.49
-111.52
-110.92
-107.78
-103.67
-101.22
-103.45
-103.35
-96.78
-83.28
-66.20
-49.02
-32.73
-16.52
0.95
20.32
41.21
60.89
76.67
87.07
91.87
93.35
93.32
93.07
93.17
93.65
93.00
89.95
83.74
74.90
64.72
54.27
44.40
35.59
28.21
21.94
16.69
12.66
10.29
9.76
10.06
10.72
11.19
11.24
10.73
9.89
9.21
9.20
10.08
11.52
13.05
14.19
14.73
14.70
14.45
14.43
15.07
16.63
18.89
21.36
23.28
23.92
22.85
19.99
15.69
10.53
5.09
-0.24
-5.29
-10.09
-14.72
-19.09
-22.91
-25.73
-27.14
-26.97
-25.46
-23.28
-21.40
-20.74
-21.77
-24.34
-27.76
-31.17
-33.91
-35.78
-36.89
-37.32
-36.86
-35.06
-31.61
-26.75
-21.37
-16.76
-13.94
-13.22
-14.05
-15.43
-16.52
-17.03
-17.20
-17.47
-17.98
-18.34
-17.79
-15.53
-11.26
-5.28
1.56
8.17
13.69
17.64
20.02
21.10
21.27
20.84
19.96
18.71
17.07
15.05
12.72
10.25
7.84
5.73
4.07
2.85
1.88
0.87
-0.49
-2.43
-5.04
-8.32
-12.05
-15.84
-19.10
-21.09
-21.18
-19.05
-14.92
-9.51
-3.78
1.32
5.19
7.58
8.60
8.48
7.45
5.70
3.39
0.73
-2.07
-4.80
-7.38
-9.76
-11.97
-14.01
-15.81
-17.27
-18.29
-18.93
-19.38
-19.99
-21.14
-23.02
-25.52
-28.15
-30.08
-30.41
-28.39
-23.71
-16.62
-7.92
1.30
9.88
16.97
22.17
25.54
27.45
28.36
28.63
28.45
27.87
26.90
25.61
24.08
22.41
20.69
18.96
17.27
15.72
14.39
13.29
12.33
11.26
9.73
7.39
4.07
-0.11
-4.61
-8.53
-10.78
-10.40
-6.97
-0.78
7.17
15.47
22.77
28.15
31.29
32.36
31.79
30.06
27.50
24.35
20.79
17.01
13.14
9.32
5.64
2.18
-0.96
-3.72
-6.01
-7.88
-9.47
-11.04
-12.89
-15.31
-18.42
-22.03
-25.57
-28.15
-28.71
-26.40
-20.92
-12.73
-2.98
6.80
15.17
21.21
24.66
25.86
25.41
23.94
21.89
19.61
17.34
15.36
13.90
13.13
13.02
13.38
13.94
14.43
14.63
14.44
13.83
12.82
11.41
9.59
7.47
5.38
3.93
3.87
5.81
9.83
15.27
20.97
25.66
28.53
29.54
29.32
28.72
28.37
28.35
28.33
27.95
27.07
25.92
24.87
24.16
23.77
23.45
22.94
22.14
21.17
20.24
19.52
18.94
18.20
16.98
15.17
13.04
11.20
10.39
11.13
13.40
16.67
20.05
22.67
24.00
23.96
22.89
21.20
19.24
17.14
14.88
12.45
9.88
7.31
4.81
2.40
0.04
-2.38
-4.91
-7.62
-10.60
-13.97
-17.78
-22.03
-26.56
-31.14
-35.53
-39.52
-42.85
-45.14
-45.86
-44.46
-40.73
-34.90
-27.79
-20.54
-14.24
-9.59
-6.74
-5.35
-4.87
-4.75
-4.66
-4.48
-4.25
-4.03
-3.80
-3.43
-2.71
-1.45
0.39
2.63
4.94
6.97
8.47
9.36
9.64
9.33
8.46
7.10
5.51
4.20
3.77
4.68
6.97
10.19
13.52
16.13
17.53
17.70
17.00
15.92
14.81
13.72
12.49
10.91
8.90
6.58
4.25
2.21
0.61
-0.62
-1.72
-2.95
-4.44
-6.13
-7.81
-9.30
-10.53
-11.57
-12.53
-13.35
-13.79
-13.44
-11.99
-9.39
-5.99
-2.34
0.96
3.49
5.11
5.86
5.87
5.27
4.14
2.63
0.86
-0.99
-2.81
-4.57
-6.27
-7.90
-9.36
-10.53
-11.28
-11.58
-11.54
-11.40
-11.43
-11.81
-12.57
-13.63
-14.79
-15.83
-16.49
-16.47
-15.57
-13.65
-10.81
-7.33
-3.63
-0.04
3.30
6.48
9.76
13.40
17.55
22.23
27.36
32.75
38.14
43.09
47.01
49.24
49.28
46.98
42.55
36.57
29.75
22.78
16.15
10.14
4.87
0.27
-3.80
-7.45
-10.72
-13.47
-15.47
-16.50
-16.48
-15.61
-14.35
-13.27
-12.88
-13.41
-14.81
-16.76
-18.82
-20.64
-21.99
-22.81
-23.15
-23.02
-22.44
-21.43
-20.07
-18.46
-16.80
-15.21
-13.78
-12.46
-11.20
-10.00
-8.98
-8.33
-8.24
-8.76
-9.70
-10.71
-11.37
-11.37
-10.63
-9.27
-7.57
-5.81
-4.19
-2.76
-1.47
-0.29
0.80
1.71
2.30
2.50
2.25
1.63
0.80
-0.02
-0.58
-0.64
-0.08
1.09
2.71
4.47
6.08
7.32
8.17
8.77
9.30
9.94
10.79
11.88
13.27
14.97
17.00
19.25
21.45
23.26
24.34
24.48
23.64
21.96
19.65
16.91
13.90
10.71
7.44
4.16
1.01
-1.90
-4.49
-6.74
-8.67
-10.36
-11.90
-13.39
-14.94
-16.62
-18.42
-20.21
-21.66
-22.38
-21.98
-20.29
-17.41
-13.75
-9.83
-6.12
-2.96
-0.50
1.28
2.47
3.16
3.44
3.35
2.90
2.03
0.67
-1.21
-3.55
-6.14
-8.73
-11.10
-13.10
-14.72
-16.01
-17.01
-17.72
-18.14
-18.26
-18.06
-17.52
-16.58
-15.13
-13.12
-10.60
-7.79
-4.97
-2.43
-0.27
1.52
3.06
4.46
5.77
6.96
7.98
8.79
9.33
9.56
9.47
9.07
8.48
7.91
7.61
7.72
8.25
8.96
9.53
9.65
9.16
8.08
6.58
4.92
3.36
2.14
1.40
1.17
1.41
1.98
2.69
3.38
3.90
4.13
4.03
3.58
2.84
1.93
1.00
0.22
-0.35
-0.74
-1.09
-1.52
-2.09
-2.69
-3.16
-3.36
-3.28
-3.12
-3.21
-3.82
-5.06
-6.80
-8.68
-10.29
-11.33
-11.63
-11.24
-10.30
-8.97
-7.41
-5.76
-4.18
-2.76
-1.52
-0.44
0.60
1.65
2.68
3.57
4.17
4.40
4.28
3.89
3.40
2.92
2.56
2.45
2.69
3.37
4.47
5.78
7.02
7.90
8.25
8.13
7.84
7.80
8.38
9.77
11.89
14.42
16.87
18.72
19.58
19.27
17.79
15.35
12.26
8.86
5.47
2.32
-0.46
-2.87
-5.00
-6.99
-8.89
-10.64
-12.04
-12.85
-12.93
-12.23
-10.91
-9.23
-7.49
-5.92
-4.60
-3.41
-2.13
-0.51
1.50
3.72
5.75
7.13
7.54
6.92
5.45
3.42
1.02
-1.67
-4.62
-7.74
-10.75
-13.25
-14.89
-15.60
-15.55
-15.13
-14.72
-14.47
-14.29
-13.98
-13.35
-12.41
-11.37
-10.56
-10.19
-10.26
-10.57
-10.80
-10.69
-10.17
-9.28
-8.16
-6.87
-5.36
-3.56
-1.48
0.75
2.91
4.78
6.25
7.38
8.31
9.18
10.02
10.74
11.21
11.31
11.02
10.44
9.69
8.92
8.16
7.38
6.52
5.49
4.29
3.02
1.79
0.71
-0.20
-0.98
-1.74
-2.49
-3.12
-3.39
-3.07
-2.06
-0.48
1.33
2.99
4.15
4.69
4.69
4.33
3.80
3.17
2.41
1.47
0.29
-1.07
-2.57
-4.12
-5.66
-7.13
-8.48
-9.64
-10.63
-11.50
-12.39
-13.44
-14.71
-16.06
-17.23
-17.87
-17.71
-16.60
-14.60
-11.92
-8.83
-5.66
-2.71
-0.27
1.46
2.40
2.63
2.42
2.12
2.08
2.50
3.36
4.44
5.41
6.07
6.36
6.44
6.48
6.59
6.71
6.59
5.95
4.60
2.53
-0.10
-3.03
-5.94
-8.51
-10.37
-11.14
-10.50
-8.37
-5.01
-1.00
2.90
6.06
8.08
8.98
9.04
8.61
7.99
7.31
6.62
5.94
5.34
4.94
4.87
5.18
5.82
6.64
7.39
7.86
7.85
7.23
5.93
3.90
1.15
-2.21
-5.87
-9.26
-11.69
-12.56
-11.65
-9.21
-5.99
-2.87
-0.62
0.44
0.40
-0.36
-1.43
-2.56
-3.66
-4.75
-5.87
-7.01
-8.14
-9.25
-10.36
-11.49
-12.56
-13.34
-13.55
-12.92
-11.41
-9.29
-7.03
-5.14
-3.96
-3.52
-3.54
-3.58
-3.17
-1.98
0.18
3.28
7.09
11.23
15.18
18.40
20.43
21.06
20.33
18.53
16.10
13.50
11.09
9.09
7.54
6.33
5.33
4.37
3.41
2.49
1.78
1.41
1.40
1.61
1.84
1.88
1.57
0.82
-0.39
-2.02
-4.01
-6.24
-8.39
-9.99
-10.46
-9.35
-6.58
-2.51
2.15
6.61
10.19
12.53
13.56
13.50
12.58
10.98
8.76
6.20
3.61
1.21
-0.93
-2.92
-4.91
-6.97
-9.02
-10.79
-11.47
-10.32
-7.09
-2.17
3.48
8.89
13.41
16.86
19.57
22.75
27.42
33.76
40.94
47.45
51.99
54.01
53.75
52.11
51.06
52.49
57.36
65.68
76.33
87.79
98.27
105.86
103.82
87.78
58.37
21.65
-14.71
-45.77
-69.78
-87.06
-98.57
-105.29
-107.24
-104.46
-99.42
-92.81
-85.69
-78.87
-72.74
-67.24
-62.15
-56.68
-50.34
-43.39
-36.62
-31.50
-28.24
-27.05
-27.67
-29.52
-31.55
-32.86
-33.07
-32.18
-30.75
-29.23
-27.96
-26.89
-25.90
-24.64
-22.88
-20.67
-18.19
-15.86
-13.95
-12.58
-11.55
-10.52
-9.02
-6.69
-3.41
0.74
5.38
10.07
14.27
17.65
20.03
21.42
21.97
21.88
21.42
20.76
20.05
19.30
18.51
17.62
16.63
15.52
14.35
13.23
12.25
11.50
11.03
10.86
11.00
11.41
11.99
12.56
12.88
12.77
12.23
11.48
10.94
11.03
12.03
13.87
16.20
18.51
20.39
21.62
22.20
22.31
22.12
21.72
21.15
20.34
19.23
17.78
15.95
13.76
11.23
8.42
5.35
1.97
-1.77
-5.89
-10.34
-14.94
-19.48
-23.79
-27.77
-31.39
-34.55
-37.00
-38.43
-38.57
-37.38
-35.15
-32.33
-29.45
-26.83
-24.64
-22.85
-21.43
-20.39
-19.76
-19.56
-19.69
-19.96
-20.13
-19.97
-19.36
-18.27
-16.79
-15.10
-13.47
-12.20
-11.53
-11.58
-12.18
-12.95
-13.34
-12.79
-10.88
-7.47
-2.73
2.95
9.08
15.17
20.86
25.95
30.34
34.07
37.25
39.99
42.42
44.59
46.52
48.16
49.54
50.78
52.03
53.41
54.89
56.21
57.02
56.86
55.34
52.16
47.14
40.24
31.68
22.03
12.20
3.25
-3.88
-8.79
-11.70
-13.35
-14.61
-16.16
-18.22
-20.63
-23.05
-25.19
-26.96
-28.37
-29.48
-30.25
-30.65
-30.67
-30.41
-30.09
-29.93
-30.02
-30.32
-30.63
-30.70
-30.43
-29.90
-29.35
-29.02
-28.93
-28.70
-27.54
-24.58
-19.20
-11.39
-1.89
8.03
17.02
24.05
28.67
31.07
31.70
31.13
29.74
27.81
25.52
23.07
20.70
18.60
16.90
15.65
14.86
14.55
14.78
15.57
16.85
18.41
19.87
20.78
20.65
19.12
16.04
11.56
6.16
0.50
-4.74
-9.08
-12.32
-14.56
-15.95
-16.53
-16.09
-14.31
-11.02
-6.53
-1.57
2.83
5.81
7.00
6.61
5.25
3.56
1.93
0.35
-1.42
-3.64
-6.38
-9.50
-12.74
-15.89
-18.78
-21.24
-22.94
-23.35
-21.92
-18.30
-12.62
-5.56
1.81
8.38
13.43
16.78
18.74
19.80
20.37
20.55
20.19
19.13
17.40
15.27
13.16
11.42
10.13
9.10
7.95
6.38
4.27
1.68
-1.21
-4.20
-7.09
-9.61
-11.34
-11.78
-10.53
-7.51
-3.09
1.96
6.77
10.62
13.29
14.97
16.14
17.25
18.49
19.65
20.21
19.51
16.99
12.40
5.90
-1.83
-9.71
-16.42
-20.80
-22.13
-20.34
-15.93
-9.86
-3.14
3.36
9.03
13.58
16.91
19.07
20.26
20.75
20.77
20.39
19.40
17.34
13.76
8.51
1.87
-5.44
-12.48
-18.43
-22.83
-25.58
-26.92
-27.19
-26.72
-25.75
-24.47
-23.03
-21.58
-20.23
-19.05
-18.10
-17.45
-17.27
-17.74
-18.87
-20.42
-21.72
-21.88
-20.06
-15.86
-9.57
-2.14
5.15
11.17
15.23
17.20
17.35
16.05
13.72
10.79
7.85
5.54
4.45
4.78
6.33
8.54
10.89
13.12
15.31
17.71
20.46
23.39
26.04
27.87
28.50
27.85
26.16
23.95
21.82
20.32
19.77
20.15
21.07
21.89
21.92
20.65
17.91
13.94
9.27
4.66
0.95
-1.17
-1.31
0.41
3.30
6.28
8.11
7.79
4.78
-0.84
-8.45
-16.98
-25.24
-32.09
-36.72
-38.85
-38.73
-37.05
-34.69
-32.34
-30.29
-28.37
-26.07
-22.86
-18.43
-12.84
-6.45
0.19
6.62
12.50
17.69
22.10
25.64
28.20
29.67
30.02
29.33
27.81
25.72
23.27
20.59
17.84
15.28
13.29
12.14
11.90
12.29
12.71
12.45
10.99
8.28
4.84
1.68
-0.23
-0.14
2.19
6.48
12.00
17.82
23.07
27.17
29.92
31.11
30.80
29.32
27.27
25.35
24.06
23.71
24.34
25.82
27.25
27.73
26.71
24.14
20.35
15.69
10.53
5.25
0.25
-5.21
-11.93
-20.31
-29.98
-40.14
-50.08
-59.33
-67.63
-74.83
-82.14
-90.69
-100.87
-112.07
-123.41
-134.48
-145.45
-156.76
-160.60
-151.40
-128.46
-96.77
-63.22
-32.55
-6.74
13.93
29.95
42.12
49.98
53.22
52.34
48.83
44.65
41.40
40.06
41.07
43.95
47.38
50.02
51.25
51.38
50.98
50.32
49.22
47.52
45.40
42.25
37.99
33.02
28.05
23.49
19.26
15.14
11.01
8.26
6.68
5.92
5.44
4.59
2.45
-1.97
-9.20
-19.03
-30.47
-43.28
-56.55
-68.95
-79.02
-85.76
-88.84
-88.47
-85.31
-74.80
-57.08
-36.40
-18.71
-7.54
-2.99
-3.04
-5.12
-7.09
-7.68
-8.58
-9.78
-10.75
-10.56
-8.50
-4.49
1.04
7.39
13.85
19.26
23.67
27.35
31.00
35.10
39.67
44.30
48.54
51.99
54.10
54.94
54.75
53.98
52.86
51.42
49.66
47.68
45.65
43.42
40.74
37.11
32.16
25.88
18.76
11.75
5.86
1.63
-1.22
-3.54
-6.38
-10.37
-15.42
-20.80
-25.48
-28.71
-30.24
-30.37
-29.57
-28.22
-26.34
-23.73
-20.16
-15.63
-10.45
-5.11
-0.15
4.04
7.21
9.18
9.71
8.56
5.59
0.98
-4.66
-10.39
-15.23
-18.47
-19.86
-19.65
-18.34
-16.56
-14.89
-13.83
-13.79
-14.99
-17.42
-20.72
-24.26
-27.23
-28.87
-28.68
-26.47
-22.43
-17.03
-10.93
-4.89
0.38
4.40
7.01
8.41
9.12
9.78
10.84
12.50
14.50
16.36
17.52
17.60
16.50
14.35
11.39
7.82
3.82
-0.47
-4.76
-8.61
-11.45
-12.70
-11.92
-8.92
-3.84
2.89
10.62
18.64
26.25
32.92
38.40
42.65
45.79
47.94
49.19
49.53
48.90
47.22
44.41
40.41
35.19
28.77
21.37
13.30
5.04
-2.91
-10.12
-16.35
-21.62
-26.18
-30.38
-34.53
-38.65
-42.40
-45.06
-45.79
-43.93
-39.28
-32.27
-23.85
-15.20
-7.45
-1.34
2.75
4.89
5.40
4.81
3.67
2.45
1.44
0.58
-0.41
-1.93
-4.30
-7.48
-11.17
-14.86
-18.07
-20.54
-22.29
-23.56
-24.67
-25.89
-27.20
-28.32
-28.61
-27.29
-23.68
-17.49
-9.06
0.67
10.34
18.58
24.34
27.16
27.24
25.32
22.42
19.60
17.70
17.12
17.83
19.34
20.98
22.13
22.36
21.58
19.91
17.56
14.74
11.59
8.26
4.85
1.57
-1.38
-3.67
-4.90
-4.60
-2.31
2.18
8.73
16.76
25.31
33.29
39.75
44.03
45.83
45.04
41.73
36.07
28.40
19.28
9.50
-0.02
-8.51
-15.51
-21.04
-25.49
-29.45
-33.47
-37.88
-42.81
-48.29
-54.30
-60.76
-67.38
-73.51
-78.13
-80.06
-78.32
-72.53
-63.10
-51.12
-38.05
-25.34
-14.07
-4.88
1.99
6.63
9.29
10.37
10.34
9.67
8.80
8.10
7.89
8.48
10.05
12.59
15.84
19.29
22.28
24.20
24.70
23.77
21.75
19.20
16.74
15.05
14.85
16.84
21.57
29.25
39.55
51.62
64.23
75.93
85.55
92.42
96.40
97.70
96.60
93.36
88.30
81.70
73.63
64.17
53.47
41.83
29.57
17.07
4.85
-6.33
-15.96
-24.24
-31.83
-39.47
-47.69
-56.60
-65.75
-74.15
-80.32
-83.17
-82.77
-80.00
-76.20
-72.68
-70.54
-70.56
-73.01
-77.54
-79.99
-77.24
-68.53
-56.01
-42.91
-31.54
-22.73
-17.31
-13.33
-9.30
-5.02
-0.88
2.54
4.57
5.08
3.59
-0.13
-5.44
-11.31
-16.67
-20.37
-21.51
-19.73
-15.23
-8.42
0.27
10.57
21.81
32.82
42.37
49.46
53.32
53.67
51.06
46.62
41.93
38.52
37.51
39.44
44.20
50.59
54.66
52.69
42.84
26.44
6.93
-12.00
-27.46
-37.44
-41.49
-40.09
-34.07
-24.38
-11.91
2.33
17.03
30.62
42.37
50.41
53.58
52.07
47.15
40.37
32.81
24.83
15.28
5.42
-3.67
-11.12
-16.58
-20.41
-23.44
-26.39
-29.30
-31.54
-32.19
-31.36
-29.86
-28.85
-29.12
-30.60
-32.35
-33.00
-31.47
-27.37
-21.50
-15.16
-9.65
-5.79
-3.83
-3.53
-4.29
-5.32
-5.74
-4.98
-2.77
0.71
4.86
8.77
11.54
12.66
12.03
10.05
7.16
3.74
0.02
-3.82
-7.46
-10.46
-12.38
-13.02
-12.58
-11.48
-10.27
-9.25
-8.29
-6.91
-4.55
-0.89
3.93
9.30
14.45
18.53
20.90
21.33
20.01
17.49
14.45
11.57
8.47
5.20
1.76
-1.87
-5.69
-9.59
-13.45
-17.12
-20.52
-23.64
-26.48
-29.19
-32.03
-35.29
-39.11
-43.36
-47.56
-50.88
-52.35
-50.99
-46.25
-38.16
-27.37
-14.95
-2.26
9.39
18.96
25.84
30.01
31.81
31.82
30.63
28.73
26.41
23.89
21.30
18.78
16.45
14.28
12.16
9.88
7.34
4.56
1.79
-0.66
-2.49
-3.54
-3.80
-3.25
-1.72
1.15
5.87
12.87
22.24
33.60
46.12
58.70
70.09
78.97
84.02
84.03
78.25
66.75
50.63
32.00
13.41
-2.81
-15.14
-23.16
-27.36
-28.72
-28.38
-27.32
